3.992094e+002,0.000000e+000
4.011380e+002,0.000000e+000
4.030665e+002,0.000000e+000
4.049951e+002,0.000000e+000
4.069236e+002,0.000000e+000
4.088522e+002,0.000000e+000
4.107807e+002,0.000000e+000
4.127093e+002,0.000000e+000
4.146378e+002,0.000000e+000
4.165664e+002,0.000000e+000
4.184949e+002,0.000000e+000
4.204235e+002,0.000000e+000
4.223520e+002,0.000000e+000
4.242806e+002,0.000000e+000
4.262091e+002,0.000000e+000
4.281377e+002,0.000000e+000
4.300662e+002,0.000000e+000
4.319948e+002,0.000000e+000
4.339233e+002,0.000000e+000
4.358519e+002,0.000000e+000
4.377804e+002,0.000000e+000
4.397090e+002,0.000000e+000
4.416375e+002,0.000000e+000
4.435660e+002,0.000000e+000
4.454946e+002,0.000000e+000
4.474232e+002,0.000000e+000
4.493517e+002,0.000000e+000
4.512802e+002,0.000000e+000
4.532088e+002,0.000000e+000
4.551373e+002,0.000000e+000
4.570659e+002,0.000000e+000
4.589944e+002,0.000000e+000
4.609230e+002,0.000000e+000
4.628515e+002,0.000000e+000
4.647801e+002,0.000000e+000
4.667086e+002,0.000000e+000
4.686372e+002,0.000000e+000
4.705657e+002,0.000000e+000
4.724943e+002,0.000000e+000
4.744228e+002,0.000000e+000
4.763514e+002,0.000000e+000
4.782799e+002,0.000000e+000
4.802085e+002,0.000000e+000
4.821370e+002,0.000000e+000
4.840656e+002,0.000000e+000
4.859941e+002,0.000000e+000
4.879226e+002,0.000000e+000
4.898512e+002,0.000000e+000
4.917798e+002,0.000000e+000
4.937083e+002,0.000000e+000
4.956368e+002,0.000000e+000
4.975654e+002,0.000000e+000
4.994939e+002,0.000000e+000
5.014225e+002,0.000000e+000
5.033510e+002,0.000000e+000
5.052796e+002,0.000000e+000
5.072081e+002,0.000000e+000
5.091367e+002,0.000000e+000
5.110652e+002,0.000000e+000
5.129938e+002,0.000000e+000
5.149223e+002,0.000000e+000
5.168509e+002,0.000000e+000
5.187794e+002,0.000000e+000
5.207079e+002,0.000000e+000
5.226365e+002,0.000000e+000
5.245651e+002,0.000000e+000
5.264936e+002,0.000000e+000
5.284221e+002,0.000000e+000
5.303507e+002,0.000000e+000
5.322792e+002,0.000000e+000
5.342078e+002,0.000000e+000
5.361364e+002,0.000000e+000
5.380649e+002,0.000000e+000
5.399934e+002,0.000000e+000
5.419220e+002,0.000000e+000
5.438505e+002,0.000000e+000
5.457791e+002,0.000000e+000
5.477076e+002,0.000000e+000
5.496362e+002,0.000000e+000
5.515647e+002,0.000000e+000
5.534933e+002,0.000000e+000
5.554218e+002,0.000000e+000
5.573503e+002,0.000000e+000
5.592789e+002,0.000000e+000
5.612075e+002,0.000000e+000
5.631360e+002,0.000000e+000
5.650646e+002,0.000000e+000
5.669931e+002,0.000000e+000
5.689216e+002,0.000000e+000
5.708502e+002,0.000000e+000
5.727787e+002,0.000000e+000
5.747073e+002,0.000000e+000
5.766359e+002,0.000000e+000
5.785644e+002,0.000000e+000
5.804929e+002,0.000000e+000
5.824215e+002,0.000000e+000
5.843500e+002,0.000000e+000
5.862786e+002,0.000000e+000
5.882072e+002,0.000000e+000
5.901357e+002,0.000000e+000
5.920642e+002,0.000000e+000
5.939928e+002,0.000000e+000
5.959213e+002,0.000000e+000
5.978499e+002,0.000000e+000
5.997784e+002,0.000000e+000
6.017070e+002,0.000000e+000
6.036355e+002,0.000000e+000
6.055641e+002,0.000000e+000
6.074926e+002,0.000000e+000
6.094211e+002,0.000000e+000
6.113497e+002,0.000000e+000
6.132783e+002,0.000000e+000
6.152068e+002,0.000000e+000
6.171354e+002,0.000000e+000
6.190639e+002,0.000000e+000
6.209924e+002,0.000000e+000
6.229210e+002,0.000000e+000
6.248495e+002,0.000000e+000
6.267781e+002,0.000000e+000
6.287067e+002,0.000000e+000
6.306352e+002,0.000000e+000
6.325637e+002,0.000000e+000
6.344923e+002,0.000000e+000
6.364208e+002,0.000000e+000
6.383494e+002,0.000000e+000
6.402780e+002,0.000000e+000
6.422065e+002,0.000000e+000
6.441350e+002,0.000000e+000
6.460636e+002,0.000000e+000
6.479921e+002,0.000000e+000
6.499207e+002,0.000000e+000
6.518492e+002,0.000000e+000
6.537778e+002,0.000000e+000
6.557063e+002,0.000000e+000
6.576349e+002,0.000000e+000
6.595634e+002,0.000000e+000
6.614919e+002,0.000000e+000
6.634205e+002,0.000000e+000
6.653491e+002,0.000000e+000
6.672776e+002,0.000000e+000
6.692062e+002,0.000000e+000
6.711347e+002,0.000000e+000
6.730632e+002,0.000000e+000
6.749918e+002,1.377813e-002
6.769203e+002,1.455860e-002
6.788489e+002,1.499211e-002
6.807775e+002,1.440074e-002
6.827060e+002,1.304583e-002
6.846345e+002,1.262087e-002
6.865631e+002,1.296887e-002
6.884916e+002,1.340401e-002
6.904202e+002,1.286565e-002
6.923488e+002,1.171317e-002
6.942773e+002,1.092032e-002
6.962058e+002,1.022820e-002
6.981344e+002,9.448388e-003
7.000629e+002,9.328225e-003
7.019915e+002,9.905844e-003
7.039200e+002,1.017596e-002
7.058486e+002,1.040332e-002
7.077771e+002,1.134831e-002
7.097057e+002,1.332054e-002
7.116342e+002,1.598311e-002
7.135627e+002,2.157341e-002
7.154913e+002,3.046125e-002
7.174199e+002,4.085427e-002
7.193484e+002,4.432666e-002
7.212770e+002,3.242262e-002
7.232055e+002,1.928537e-002
7.251340e+002,1.389152e-002
7.270626e+002,1.458190e-002
7.289911e+002,1.884762e-002
7.309197e+002,1.491519e-002
7.328483e+002,1.302063e-003
7.347768e+002,-7.516182e-003
7.367053e+002,-1.097971e-002
7.386339e+002,-1.317831e-002
7.405624e+002,-1.471972e-002
7.424910e+002,-1.609176e-002
7.444196e+002,-1.766663e-002
7.463481e+002,-1.909898e-002
7.482766e+002,-2.056672e-002
7.502052e+002,-2.227760e-002
7.521337e+002,-2.386361e-002
7.540623e+002,-2.493692e-002
7.559908e+002,-2.587524e-002
7.579194e+002,-2.707614e-002
7.598479e+002,-2.883743e-002
7.617765e+002,-2.999360e-002
7.637050e+002,-3.058238e-002
7.656335e+002,-3.129120e-002
7.675621e+002,-3.255401e-002
7.694907e+002,-3.397610e-002
7.714192e+002,-3.520577e-002
7.733478e+002,-3.583635e-002
7.752763e+002,-3.647177e-002
7.772048e+002,-3.723111e-002
7.791334e+002,-3.830166e-002
7.810620e+002,-3.930835e-002
7.829905e+002,-4.011418e-002
7.849191e+002,-4.036842e-002
7.868476e+002,-4.092832e-002
7.887761e+002,-4.141820e-002
7.907047e+002,-4.187328e-002
7.926332e+002,-4.226255e-002
7.945618e+002,-4.276173e-002
7.964904e+002,-4.357404e-002
7.984189e+002,-4.441305e-002
8.003474e+002,-4.458355e-002
8.022760e+002,-4.495946e-002
8.042045e+002,-4.548736e-002
8.061331e+002,-4.571581e-002
8.080616e+002,-4.616889e-002
8.099902e+002,-4.684406e-002
8.119187e+002,-4.719216e-002
8.138473e+002,-4.743272e-002
8.157758e+002,-4.781353e-002
8.177043e+002,-4.835559e-002
8.196329e+002,-4.885384e-002
8.215615e+002,-4.929411e-002
8.234900e+002,-4.949715e-002
8.254186e+002,-4.978720e-002
8.273471e+002,-4.989018e-002
8.292756e+002,-5.004124e-002
8.312042e+002,-5.025232e-002
8.331328e+002,-5.034206e-002
8.350613e+002,-5.020229e-002
8.369899e+002,-5.019656e-002
8.389184e+002,-5.009962e-002
8.408469e+002,-5.014246e-002
8.427755e+002,-5.037829e-002
8.447040e+002,-5.087470e-002
8.466326e+002,-5.099203e-002
8.485612e+002,-5.071278e-002
8.504896e+002,-5.010145e-002
8.524182e+002,-4.999751e-002
8.543468e+002,-5.010667e-002
8.562753e+002,-5.005412e-002
8.582039e+002,-4.983737e-002
8.601324e+002,-4.999146e-002
8.620609e+002,-5.025329e-002
8.639895e+002,-5.029361e-002
8.659181e+002,-5.023741e-002
8.678466e+002,-5.036864e-002
8.697751e+002,-5.026155e-002
8.717037e+002,-4.988965e-002
8.736322e+002,-4.984894e-002
8.755608e+002,-5.000055e-002
8.774894e+002,-5.016533e-002
8.794178e+002,-5.037369e-002
8.813464e+002,-5.045597e-002
8.832750e+002,-5.059436e-002
8.852035e+002,-5.076228e-002
8.871321e+002,-5.087196e-002
8.890607e+002,-5.080364e-002
8.909891e+002,-5.073613e-002
8.929177e+002,-5.087001e-002
8.948463e+002,-5.116790e-002
8.967748e+002,-5.138716e-002
8.987034e+002,-5.157755e-002
9.006320e+002,-5.177867e-002
9.025604e+002,-5.195054e-002
9.044890e+002,-5.207185e-002
9.064176e+002,-5.218619e-002
9.083461e+002,-5.235743e-002
9.102747e+002,-5.240818e-002
9.122032e+002,-5.240278e-002
9.141317e+002,-5.257431e-002
9.160603e+002,-5.291641e-002
9.179889e+002,-5.311557e-002
9.199174e+002,-5.311955e-002
9.218459e+002,-5.318994e-002
9.237745e+002,-5.334261e-002
9.257030e+002,-5.334024e-002
9.276316e+002,-5.340585e-002
9.295602e+002,-5.355467e-002
9.314886e+002,-5.367612e-002
9.334172e+002,-5.381439e-002
9.353458e+002,-5.391950e-002
9.372743e+002,-5.395456e-002
9.392029e+002,-5.404403e-002
9.411315e+002,-5.412609e-002
9.430599e+002,-5.406721e-002
9.449885e+002,-5.410365e-002
9.469171e+002,-5.414943e-002
9.488456e+002,-5.420310e-002
9.507742e+002,-5.423650e-002
9.527028e+002,-5.414867e-002
9.546312e+002,-5.386878e-002
9.565598e+002,-5.372135e-002
9.584884e+002,-5.382973e-002
9.604169e+002,-5.398113e-002
9.623455e+002,-5.406012e-002
9.642740e+002,-5.414639e-002
9.662025e+002,-5.421091e-002
9.681311e+002,-5.431329e-002
9.700597e+002,-5.441997e-002
9.719882e+002,-5.447755e-002
9.739167e+002,-5.441210e-002
9.758453e+002,-5.441243e-002
9.777738e+002,-5.446343e-002
9.797024e+002,-5.443321e-002
9.816310e+002,-5.446916e-002
9.835594e+002,-5.452531e-002
9.854880e+002,-5.457811e-002
9.874166e+002,-5.459974e-002
9.893451e+002,-5.458016e-002
9.912737e+002,-5.458177e-002
9.932023e+002,-5.450710e-002
9.951307e+002,-5.456330e-002
9.970593e+002,-5.460275e-002
9.989879e+002,-5.455102e-002
1.000916e+003,-5.450070e-002
1.002845e+003,-5.452472e-002
1.004774e+003,-5.447480e-002
1.006702e+003,-5.433551e-002
1.008631e+003,-5.427762e-002
1.010559e+003,-5.421410e-002
1.012488e+003,-5.412913e-002
1.014416e+003,-5.395582e-002
1.016345e+003,-5.374185e-002
1.018273e+003,-5.371907e-002
1.020202e+003,-5.378146e-002
1.022130e+003,-5.374964e-002
1.024059e+003,-5.380362e-002
1.025988e+003,-5.383008e-002
1.027916e+003,-5.351676e-002
1.029845e+003,-5.326234e-002
1.031773e+003,-5.327243e-002
1.033702e+003,-5.320982e-002
1.035630e+003,-5.319346e-002
1.037559e+003,-5.324206e-002
1.039487e+003,-5.314019e-002
1.041416e+003,-5.304466e-002
1.043344e+003,-5.296187e-002
1.045273e+003,-5.274460e-002
1.047202e+003,-5.246421e-002
1.049130e+003,-5.201780e-002
1.051059e+003,-5.174191e-002
1.052987e+003,-5.179453e-002
1.054916e+003,-5.182711e-002
1.056844e+003,-5.172988e-002
1.058773e+003,-5.159514e-002
1.060701e+003,-5.157081e-002
1.062630e+003,-5.161041e-002
1.064558e+003,-5.171043e-002
1.066487e+003,-5.181911e-002
1.068416e+003,-5.193084e-002
1.070344e+003,-5.195183e-002
1.072273e+003,-5.182564e-002
1.074201e+003,-5.165390e-002
1.076130e+003,-5.158899e-002
1.078058e+003,-5.154830e-002
1.079987e+003,-5.150469e-002
1.081915e+003,-5.159464e-002
1.083844e+003,-5.157040e-002
1.085773e+003,-5.147738e-002
1.087701e+003,-5.143715e-002
1.089630e+003,-5.141893e-002
1.091558e+003,-5.146802e-002
1.093487e+003,-5.138122e-002
1.095415e+003,-5.124364e-002
1.097344e+003,-5.138761e-002
1.099272e+003,-5.149471e-002
1.101201e+003,-5.153727e-002
1.103129e+003,-5.164278e-002
1.105058e+003,-5.169388e-002
1.106987e+003,-5.167219e-002
1.108915e+003,-5.158908e-002
1.110844e+003,-5.151358e-002
1.112772e+003,-5.145799e-002
1.114701e+003,-5.136679e-002
1.116629e+003,-5.139199e-002
1.118558e+003,-5.140874e-002
1.120486e+003,-5.127038e-002
1.122415e+003,-5.112251e-002
1.124344e+003,-5.103549e-002
1.126272e+003,-5.107084e-002
1.128201e+003,-5.110687e-002
1.130129e+003,-5.111070e-002
1.132058e+003,-5.107676e-002
1.133986e+003,-5.120701e-002
1.135915e+003,-5.137842e-002
1.137843e+003,-5.147638e-002
1.139772e+003,-5.149877e-002
1.141700e+003,-5.149307e-002
1.143629e+003,-5.154030e-002
1.145557e+003,-5.156899e-002
1.147486e+003,-5.153309e-002
1.149415e+003,-5.151363e-002
1.151343e+003,-5.148159e-002
1.153272e+003,-5.131710e-002
1.155200e+003,-5.101328e-002
1.157129e+003,-5.063117e-002
1.159057e+003,-5.026675e-002
1.160986e+003,-4.982581e-002
1.162914e+003,-4.927621e-002
1.164843e+003,-4.868305e-002
1.166771e+003,-4.807253e-002
1.168700e+003,-4.743082e-002
1.170629e+003,-4.688835e-002
1.172557e+003,-4.647937e-002
1.174486e+003,-4.632951e-002
1.176414e+003,-4.660573e-002
1.178343e+003,-4.746573e-002
1.180271e+003,-4.873803e-002
1.182200e+003,-4.992424e-002
1.184128e+003,-5.084293e-002
1.186057e+003,-5.142187e-002
1.187986e+003,-5.158967e-002
1.189914e+003,-5.154789e-002
1.191843e+003,-5.123106e-002
1.193771e+003,-5.044633e-002
1.195700e+003,-4.985284e-002
1.197628e+003,-5.017112e-002
1.199557e+003,-5.103870e-002
1.201485e+003,-5.170735e-002
1.203414e+003,-5.208869e-002
1.205343e+003,-5.234912e-002
1.207271e+003,-5.243508e-002
1.209200e+003,-5.245337e-002
1.211128e+003,-5.252816e-002
1.213057e+003,-5.258353e-002
1.214985e+003,-5.250872e-002
1.216914e+003,-5.214135e-002
1.218842e+003,-5.170938e-002
1.220771e+003,-5.165034e-002
1.222699e+003,-5.202982e-002
1.224628e+003,-5.251412e-002
1.226557e+003,-5.285604e-002
1.228485e+003,-5.299032e-002
1.230414e+003,-5.303282e-002
1.232342e+003,-5.303452e-002
1.234271e+003,-5.301786e-002
1.236199e+003,-5.289596e-002
1.238128e+003,-5.274715e-002
1.240056e+003,-5.254219e-002
1.241985e+003,-5.203873e-002
1.243913e+003,-5.176038e-002
1.245842e+003,-5.191082e-002
1.247771e+003,-5.217576e-002
1.249699e+003,-5.241502e-002
1.251628e+003,-5.249460e-002
1.253556e+003,-5.242921e-002
1.255485e+003,-5.230911e-002
1.257413e+003,-5.212322e-002
1.259342e+003,-5.189297e-002
1.261270e+003,-5.152959e-002
1.263199e+003,-5.106737e-002
1.265127e+003,-5.076078e-002
1.267056e+003,-5.084941e-002
1.268985e+003,-5.121125e-002
1.270913e+003,-5.147982e-002
1.272842e+003,-5.165857e-002
1.274770e+003,-5.177441e-002
1.276699e+003,-5.180235e-002
1.278627e+003,-5.169802e-002
1.280556e+003,-5.151740e-002
1.282484e+003,-5.130894e-002
1.284413e+003,-5.112961e-002
1.286342e+003,-5.087331e-002
1.288270e+003,-5.074359e-002
1.290199e+003,-5.079061e-002
1.292127e+003,-5.073625e-002
1.294056e+003,-5.070836e-002
1.295984e+003,-5.076800e-002
1.297913e+003,-5.074285e-002
1.299841e+003,-5.068813e-002
1.301770e+003,-5.061085e-002
1.303698e+003,-5.054915e-002
1.305627e+003,-5.035903e-002
1.307556e+003,-5.002382e-002
1.309484e+003,-4.990333e-002
1.311413e+003,-5.008642e-002
1.313341e+003,-5.040978e-002
1.315270e+003,-5.065974e-002
1.317198e+003,-5.082212e-002
1.319127e+003,-5.102612e-002
1.321055e+003,-5.122853e-002
1.322984e+003,-5.133215e-002
1.324912e+003,-5.119950e-002
1.326841e+003,-5.093193e-002
1.328770e+003,-5.082032e-002
1.330698e+003,-5.082100e-002
1.332627e+003,-5.081401e-002
1.334555e+003,-5.071299e-002
1.336484e+003,-5.047367e-002
1.338412e+003,-5.017047e-002
1.340341e+003,-4.982011e-002
1.342269e+003,-4.946069e-002
1.344198e+003,-4.915622e-002
1.346126e+003,-4.891519e-002
1.348055e+003,-4.877676e-002
1.349984e+003,-4.865500e-002
1.351912e+003,-4.857492e-002
1.353841e+003,-4.857688e-002
1.355769e+003,-4.860897e-002
1.357698e+003,-4.857344e-002
1.359626e+003,-4.840412e-002
1.361555e+003,-4.813502e-002
1.363483e+003,-4.774188e-002
1.365412e+003,-4.726661e-002
1.367341e+003,-4.682291e-002
1.369269e+003,-4.658718e-002
1.371198e+003,-4.664367e-002
1.373126e+003,-4.669658e-002
1.375055e+003,-4.634404e-002
1.376983e+003,-4.602670e-002
1.378912e+003,-4.667572e-002
1.380840e+003,-4.804678e-002
1.382769e+003,-4.917879e-002
1.384698e+003,-4.985698e-002
1.386626e+003,-5.016276e-002
1.388555e+003,-5.023729e-002
1.390483e+003,-5.022248e-002
1.392412e+003,-5.011048e-002
1.394340e+003,-4.988971e-002
1.396269e+003,-4.968567e-002
1.398197e+003,-4.960103e-002
1.400126e+003,-4.962245e-002
1.402054e+003,-4.970293e-002
1.403983e+003,-4.972580e-002
1.405911e+003,-4.959857e-002
1.407840e+003,-4.940566e-002
1.409769e+003,-4.931528e-002
1.411697e+003,-4.920435e-002
1.413626e+003,-4.898327e-002
1.415554e+003,-4.883640e-002
1.417483e+003,-4.878769e-002
1.419411e+003,-4.861960e-002
1.421340e+003,-4.843612e-002
1.423268e+003,-4.816670e-002
1.425197e+003,-4.758803e-002
1.427125e+003,-4.688770e-002
1.429054e+003,-4.619588e-002
1.430983e+003,-4.538748e-002
1.432911e+003,-4.437260e-002
1.434840e+003,-4.347639e-002
1.436768e+003,-4.275816e-002
1.438697e+003,-4.199245e-002
1.440625e+003,-4.123307e-002
1.442554e+003,-4.057157e-002
1.444482e+003,-3.996038e-002
1.446411e+003,-3.924324e-002
1.448340e+003,-3.820930e-002
1.450268e+003,-3.652754e-002
1.452197e+003,-3.389008e-002
1.454125e+003,-3.041843e-002
1.456054e+003,-2.707399e-002
1.457982e+003,-2.312484e-002
1.459911e+003,-1.389051e-002
1.461839e+003,-7.457698e-004
1.463768e+003,1.822580e-003
1.465697e+003,-4.385997e-003
1.467625e+003,-7.761526e-003
1.469554e+003,-7.193794e-003
1.471482e+003,-1.047527e-003
1.473411e+003,-5.544756e-003
1.475339e+003,-2.703464e-002
1.477268e+003,-4.252635e-002
1.479196e+003,-4.783665e-002
1.481125e+003,-4.983533e-002
1.483053e+003,-5.088130e-002
1.484982e+003,-5.144456e-002
1.486911e+003,-5.186537e-002
1.488839e+003,-5.219383e-002
1.490768e+003,-5.234624e-002
1.492696e+003,-5.236004e-002
1.494625e+003,-5.251935e-002
1.496553e+003,-5.274533e-002
1.498482e+003,-5.288537e-002
1.500410e+003,-5.303880e-002
1.502339e+003,-5.328828e-002
1.504267e+003,-5.355027e-002
1.506196e+003,-5.371720e-002
1.508125e+003,-5.379112e-002
1.510053e+003,-5.376975e-002
1.511982e+003,-5.354500e-002
1.513910e+003,-5.329490e-002
1.515839e+003,-5.310941e-002
1.517767e+003,-5.276485e-002
1.519696e+003,-5.241993e-002
1.521624e+003,-5.224393e-002
1.523553e+003,-5.211135e-002
1.525481e+003,-5.205248e-002
1.527410e+003,-5.206012e-002
1.529339e+003,-5.202286e-002
1.531267e+003,-5.201468e-002
1.533196e+003,-5.195177e-002
1.535124e+003,-5.180267e-002
1.537053e+003,-5.170841e-002
1.538981e+003,-5.171120e-002
1.540910e+003,-5.159182e-002
1.542838e+003,-5.147811e-002
1.544767e+003,-5.133238e-002
1.546696e+003,-5.120333e-002
1.548624e+003,-5.112855e-002
1.550553e+003,-5.099380e-002
1.552481e+003,-5.085766e-002
1.554410e+003,-5.078415e-002
1.556338e+003,-5.074942e-002
1.558267e+003,-5.072876e-002
1.560195e+003,-5.052662e-002
1.562124e+003,-5.041600e-002
1.564052e+003,-5.047730e-002
1.565981e+003,-5.050582e-002
1.567910e+003,-5.049459e-002
1.569838e+003,-5.052783e-002
1.571767e+003,-5.044662e-002
1.573695e+003,-5.036198e-002
1.575624e+003,-5.037328e-002
1.577552e+003,-5.037626e-002
1.579481e+003,-5.028664e-002
1.581409e+003,-5.023296e-002
1.583338e+003,-5.014065e-002
1.585266e+003,-4.996571e-002
1.587195e+003,-4.988478e-002
1.589124e+003,-4.976424e-002
1.591052e+003,-4.960318e-002
1.592981e+003,-4.952659e-002
1.594909e+003,-4.949788e-002
1.596838e+003,-4.949750e-002
1.598766e+003,-4.948165e-002
1.600695e+003,-4.947205e-002
1.602623e+003,-4.945629e-002
1.604552e+003,-4.943482e-002
1.606480e+003,-4.950536e-002
1.608409e+003,-4.950744e-002
1.610338e+003,-4.943565e-002
1.612266e+003,-4.937790e-002
1.614195e+003,-4.929795e-002
1.616123e+003,-4.913772e-002
1.618052e+003,-4.886491e-002
1.619980e+003,-4.872304e-002
1.621909e+003,-4.866403e-002
1.623837e+003,-4.860085e-002
1.625766e+003,-4.857632e-002
1.627695e+003,-4.840504e-002
1.629623e+003,-4.807295e-002
1.631552e+003,-4.791200e-002
1.633480e+003,-4.785330e-002
1.635409e+003,-4.781906e-002
1.637337e+003,-4.767520e-002
1.639266e+003,-4.761282e-002
1.641194e+003,-4.760160e-002
1.643123e+003,-4.739550e-002
1.645052e+003,-4.725210e-002
1.646980e+003,-4.715515e-002
1.648909e+003,-4.703183e-002
1.650837e+003,-4.689233e-002
1.652766e+003,-4.678168e-002
1.654694e+003,-4.663927e-002
1.656623e+003,-4.651063e-002
1.658551e+003,-4.640833e-002
1.660480e+003,-4.631574e-002
1.662408e+003,-4.626711e-002
1.664337e+003,-4.622734e-002
1.666266e+003,-4.620774e-002
1.668194e+003,-4.633290e-002
1.670123e+003,-4.644647e-002
1.672051e+003,-4.643176e-002
1.673980e+003,-4.645555e-002
1.675908e+003,-4.654397e-002
1.677837e+003,-4.661951e-002
1.679765e+003,-4.672021e-002
1.681694e+003,-4.691565e-002
1.683622e+003,-4.712114e-002
1.685551e+003,-4.727207e-002
1.687479e+003,-4.737218e-002
1.689408e+003,-4.755471e-002
1.691337e+003,-4.774826e-002
1.693265e+003,-4.788891e-002
1.695194e+003,-4.800991e-002
1.697122e+003,-4.815418e-002
1.699051e+003,-4.836798e-002
1.700979e+003,-4.854461e-002
1.702908e+003,-4.874395e-002
1.704836e+003,-4.886115e-002
1.706765e+003,-4.897759e-002
1.708694e+003,-4.910213e-002
1.710622e+003,-4.913281e-002
1.712551e+003,-4.920462e-002
1.714479e+003,-4.919764e-002
1.716408e+003,-4.926799e-002
1.718336e+003,-4.941444e-002
1.720265e+003,-4.946397e-002
1.722193e+003,-4.937021e-002
1.724122e+003,-4.926266e-002
1.726051e+003,-4.920702e-002
1.727979e+003,-4.909204e-002
1.729908e+003,-4.876299e-002
1.731836e+003,-4.832542e-002
1.733765e+003,-4.770860e-002
1.735693e+003,-4.688838e-002
1.737622e+003,-4.629073e-002
1.739550e+003,-4.645504e-002
1.741479e+003,-4.724004e-002
1.743407e+003,-4.795099e-002
1.745336e+003,-4.843589e-002
1.747265e+003,-4.883424e-002
1.749193e+003,-4.917578e-002
1.751122e+003,-4.942210e-002
1.753050e+003,-4.962707e-002
1.754979e+003,-4.992394e-002
1.756907e+003,-5.014107e-002
1.758836e+003,-5.021076e-002
1.760764e+003,-5.030984e-002
1.762693e+003,-5.046117e-002
1.764621e+003,-5.052178e-002
1.766550e+003,-5.059354e-002
1.768479e+003,-5.069397e-002
1.770407e+003,-5.069751e-002
1.772336e+003,-5.071682e-002
1.774264e+003,-5.078044e-002
1.776193e+003,-5.074432e-002
1.778121e+003,-5.068259e-002
1.780050e+003,-5.068403e-002
1.781978e+003,-5.070078e-002
1.783907e+003,-5.072655e-002
1.785835e+003,-5.078518e-002
1.787764e+003,-5.075883e-002
1.789693e+003,-5.072935e-002
1.791621e+003,-5.076039e-002
1.793550e+003,-5.074999e-002
1.795478e+003,-5.067725e-002
1.797407e+003,-5.067799e-002
1.799335e+003,-5.074123e-002
1.801264e+003,-5.073893e-002
1.803192e+003,-5.075432e-002
1.805121e+003,-5.073949e-002
1.807049e+003,-5.069830e-002
1.808978e+003,-5.071434e-002
1.810907e+003,-5.067301e-002
1.812835e+003,-5.063803e-002
1.814764e+003,-5.064853e-002
1.816692e+003,-5.070231e-002
1.818621e+003,-5.068642e-002
1.820549e+003,-5.063886e-002
1.822478e+003,-5.066561e-002
1.824406e+003,-5.062653e-002
1.826335e+003,-5.052169e-002
1.828264e+003,-5.051816e-002
1.830192e+003,-5.055912e-002
1.832121e+003,-5.050464e-002
1.834049e+003,-5.045468e-002
1.835978e+003,-5.052594e-002
1.837906e+003,-5.058749e-002
1.839835e+003,-5.060649e-002
1.841763e+003,-5.063187e-002
1.843692e+003,-5.063591e-002
1.845620e+003,-5.064001e-002
1.847549e+003,-5.058897e-002
1.849478e+003,-5.057021e-002
1.851406e+003,-5.056006e-002
1.853335e+003,-5.046326e-002
1.855263e+003,-5.041166e-002
1.857192e+003,-5.038355e-002
1.859120e+003,-5.042839e-002
1.861049e+003,-5.044072e-002
1.862977e+003,-5.036053e-002
1.864906e+003,-5.034191e-002
1.866834e+003,-5.034389e-002
1.868763e+003,-5.033533e-002
1.870692e+003,-5.032919e-002
1.872620e+003,-5.036590e-002
1.874549e+003,-5.037422e-002
1.876477e+003,-5.035133e-002
1.878406e+003,-5.027369e-002
1.880334e+003,-5.016843e-002
1.882263e+003,-5.015949e-002
1.884191e+003,-5.010856e-002
1.886120e+003,-5.002763e-002
1.888048e+003,-4.996379e-002
1.889977e+003,-4.992279e-002
1.891906e+003,-4.987308e-002
1.893834e+003,-4.982921e-002
1.895763e+003,-4.982070e-002
1.897691e+003,-4.981742e-002
1.899620e+003,-4.980330e-002
1.901548e+003,-4.980123e-002
1.903477e+003,-4.975497e-002
1.905405e+003,-4.975978e-002
1.907334e+003,-4.977485e-002
1.909263e+003,-4.976531e-002
1.911191e+003,-4.979231e-002
1.913120e+003,-4.984115e-002
1.915048e+003,-4.988708e-002
1.916977e+003,-4.982283e-002
1.918905e+003,-4.977145e-002
1.920834e+003,-4.985574e-002
1.922762e+003,-4.988554e-002
1.924691e+003,-4.974932e-002
1.926620e+003,-4.963750e-002
1.928548e+003,-4.966794e-002
1.930477e+003,-4.968248e-002
1.932405e+003,-4.970057e-002
1.934334e+003,-4.968939e-002
1.936262e+003,-4.966149e-002
1.938191e+003,-4.966227e-002
1.940119e+003,-4.968050e-002
1.942048e+003,-4.966285e-002
1.943976e+003,-4.964867e-002
1.945905e+003,-4.964424e-002
1.947833e+003,-4.961255e-002
1.949762e+003,-4.962789e-002
1.951691e+003,-4.965934e-002
1.953619e+003,-4.958300e-002
1.955548e+003,-4.948742e-002
1.957476e+003,-4.949049e-002
1.959405e+003,-4.950539e-002
1.961333e+003,-4.944765e-002
1.963262e+003,-4.942210e-002
1.965190e+003,-4.946563e-002
1.967119e+003,-4.950536e-002
1.969047e+003,-4.945076e-002
1.970976e+003,-4.940906e-002
1.972905e+003,-4.945153e-002
1.974833e+003,-4.940179e-002
1.976762e+003,-4.941604e-002
1.978690e+003,-4.942459e-002
1.980619e+003,-4.933303e-002
1.982547e+003,-4.927914e-002
1.984476e+003,-4.929535e-002
1.986404e+003,-4.937452e-002
1.988333e+003,-4.931809e-002
1.990262e+003,-4.922228e-002
1.992190e+003,-4.927497e-002
1.994119e+003,-4.932238e-002
1.996047e+003,-4.931664e-002
1.997976e+003,-4.927059e-002
1.999904e+003,-4.913767e-002
2.001833e+003,-4.905093e-002
2.003761e+003,-4.906990e-002
2.005690e+003,-4.909218e-002
2.007619e+003,-4.902332e-002
2.009547e+003,-4.887838e-002
2.011476e+003,-4.871424e-002
2.013404e+003,-4.867828e-002
2.015333e+003,-4.869890e-002
2.017261e+003,-4.868995e-002
2.019190e+003,-4.869096e-002
2.021118e+003,-4.862372e-002
2.023047e+003,-4.850941e-002
2.024975e+003,-4.850206e-002
2.026904e+003,-4.856817e-002
2.028833e+003,-4.860695e-002
2.030761e+003,-4.861690e-002
2.032690e+003,-4.864297e-002
2.034618e+003,-4.866395e-002
2.036547e+003,-4.871637e-002
2.038475e+003,-4.873604e-002
2.040404e+003,-4.870026e-002
2.042332e+003,-4.874641e-002
2.044261e+003,-4.880679e-002
2.046189e+003,-4.876853e-002
2.048118e+003,-4.866362e-002
2.050046e+003,-4.869635e-002
2.051975e+003,-4.886811e-002
2.053904e+003,-4.888679e-002
2.055832e+003,-4.880951e-002
2.057761e+003,-4.879962e-002
2.059689e+003,-4.883711e-002
2.061618e+003,-4.890645e-002
2.063546e+003,-4.896962e-002
2.065475e+003,-4.892954e-002
2.067403e+003,-4.878718e-002
2.069332e+003,-4.871563e-002
2.071260e+003,-4.868338e-002
2.073189e+003,-4.863391e-002
2.075118e+003,-4.867731e-002
2.077046e+003,-4.878351e-002
2.078975e+003,-4.874543e-002
2.080903e+003,-4.859753e-002
2.082832e+003,-4.860108e-002
2.084760e+003,-4.873225e-002
2.086689e+003,-4.871859e-002
2.088617e+003,-4.861237e-002
2.090546e+003,-4.860020e-002
2.092475e+003,-4.868957e-002
2.094403e+003,-4.877380e-002
2.096332e+003,-4.882947e-002
2.098260e+003,-4.878701e-002
2.100189e+003,-4.874910e-002
2.102117e+003,-4.871392e-002
2.104046e+003,-4.864247e-002
2.105974e+003,-4.868800e-002
2.107903e+003,-4.875562e-002
2.109832e+003,-4.869061e-002
2.111760e+003,-4.870852e-002
2.113688e+003,-4.872911e-002
2.115617e+003,-4.861211e-002
2.117546e+003,-4.849415e-002
2.119474e+003,-4.851095e-002
2.121403e+003,-4.851946e-002
2.123331e+003,-4.842709e-002
2.125260e+003,-4.839235e-002
2.127188e+003,-4.847640e-002
2.129117e+003,-4.856716e-002
2.131045e+003,-4.856580e-002
2.132974e+003,-4.845326e-002
2.134903e+003,-4.839045e-002
2.136831e+003,-4.839327e-002
2.138760e+003,-4.831602e-002
2.140688e+003,-4.821996e-002
2.142617e+003,-4.816065e-002
2.144545e+003,-4.809442e-002
2.146474e+003,-4.807580e-002
2.148402e+003,-4.816554e-002
2.150331e+003,-4.826242e-002
2.152260e+003,-4.829055e-002
2.154188e+003,-4.826941e-002
2.156117e+003,-4.832571e-002
2.158045e+003,-4.831815e-002
2.159974e+003,-4.825619e-002
2.161902e+003,-4.826766e-002
2.163831e+003,-4.829254e-002
2.165759e+003,-4.822995e-002
2.167688e+003,-4.812358e-002
2.169616e+003,-4.809929e-002
2.171545e+003,-4.817177e-002
2.173474e+003,-4.819837e-002
2.175402e+003,-4.814452e-002
2.177331e+003,-4.807398e-002
2.179259e+003,-4.806031e-002
2.181188e+003,-4.806188e-002
2.183116e+003,-4.807826e-002
2.185045e+003,-4.807054e-002
2.186973e+003,-4.809573e-002
2.188902e+003,-4.812242e-002
2.190831e+003,-4.808893e-002
2.192759e+003,-4.806583e-002
2.194688e+003,-4.803765e-002
2.196616e+003,-4.805008e-002
2.198545e+003,-4.815226e-002
2.200473e+003,-4.813206e-002
2.202402e+003,-4.806007e-002
2.204330e+003,-4.806494e-002
2.206259e+003,-4.807686e-002
2.208188e+003,-4.808386e-002
2.210116e+003,-4.806058e-002
2.212044e+003,-4.797716e-002
2.213973e+003,-4.790473e-002
2.215902e+003,-4.796870e-002
2.217830e+003,-4.805408e-002
2.219759e+003,-4.802507e-002
2.221687e+003,-4.790924e-002
2.223616e+003,-4.792123e-002
2.225544e+003,-4.793968e-002
2.227473e+003,-4.784390e-002
2.229401e+003,-4.788265e-002
2.231330e+003,-4.788446e-002
2.233259e+003,-4.784200e-002
2.235187e+003,-4.788316e-002
2.237116e+003,-4.785775e-002
2.239044e+003,-4.780309e-002
2.240973e+003,-4.778115e-002
2.242901e+003,-4.766621e-002
2.244830e+003,-4.768429e-002
2.246758e+003,-4.775616e-002
2.248687e+003,-4.775272e-002
2.250615e+003,-4.770759e-002
2.252544e+003,-4.769765e-002
2.254473e+003,-4.778213e-002
2.256401e+003,-4.778810e-002
2.258330e+003,-4.773116e-002
2.260258e+003,-4.766754e-002
2.262187e+003,-4.760962e-002
2.264115e+003,-4.759171e-002
2.266044e+003,-4.758910e-002
2.267972e+003,-4.755821e-002
2.269901e+003,-4.750761e-002
2.271830e+003,-4.742093e-002
2.273758e+003,-4.730880e-002
2.275687e+003,-4.732408e-002
2.277615e+003,-4.744226e-002
2.279544e+003,-4.750790e-002
2.281472e+003,-4.744208e-002
2.283401e+003,-4.743157e-002
2.285329e+003,-4.751987e-002
2.287258e+003,-4.752566e-002
2.289187e+003,-4.750998e-002
2.291115e+003,-4.748970e-002
2.293043e+003,-4.743994e-002
2.294972e+003,-4.735111e-002
2.296901e+003,-4.724512e-002
2.298829e+003,-4.721454e-002
2.300758e+003,-4.733578e-002
2.302686e+003,-4.744303e-002
2.304615e+003,-4.743272e-002
2.306543e+003,-4.735263e-002
2.308472e+003,-4.731017e-002
2.310400e+003,-4.728759e-002
2.312329e+003,-4.719504e-002
2.314258e+003,-4.715506e-002
2.316186e+003,-4.720262e-002
2.318115e+003,-4.717513e-002
2.320043e+003,-4.716779e-002
2.321972e+003,-4.720851e-002
2.323900e+003,-4.720967e-002
2.325829e+003,-4.717679e-002
2.327757e+003,-4.723192e-002
2.329686e+003,-4.734657e-002
2.331615e+003,-4.735352e-002
2.333543e+003,-4.728387e-002
2.335472e+003,-4.721822e-002
2.337400e+003,-4.726711e-002
2.339329e+003,-4.728657e-002
2.341257e+003,-4.721377e-002
2.343186e+003,-4.718488e-002
2.345114e+003,-4.717712e-002
2.347043e+003,-4.716440e-002
2.348971e+003,-4.718199e-002
2.350900e+003,-4.729234e-002
2.352829e+003,-4.740049e-002
2.354757e+003,-4.745058e-002
2.356686e+003,-4.747377e-002
2.358614e+003,-4.744636e-002
2.360543e+003,-4.750773e-002
2.362471e+003,-4.767743e-002
2.364400e+003,-4.766440e-002
2.366328e+003,-4.754963e-002
2.368257e+003,-4.758289e-002
2.370186e+003,-4.754610e-002
2.372114e+003,-4.743828e-002
2.374042e+003,-4.738180e-002
2.375971e+003,-4.737025e-002
2.377900e+003,-4.739206e-002
2.379828e+003,-4.741980e-002
2.381757e+003,-4.742622e-002
2.383685e+003,-4.741098e-002
2.385614e+003,-4.734372e-002
2.387542e+003,-4.732110e-002
2.389471e+003,-4.738374e-002
2.391399e+003,-4.739957e-002
2.393328e+003,-4.736113e-002
2.395257e+003,-4.736695e-002
2.397185e+003,-4.742254e-002
2.399114e+003,-4.740979e-002
2.401042e+003,-4.732993e-002
2.402971e+003,-4.722961e-002
2.404899e+003,-4.722761e-002
2.406828e+003,-4.728598e-002
2.408756e+003,-4.731620e-002
2.410685e+003,-4.732333e-002
2.412614e+003,-4.725083e-002
2.414542e+003,-4.710768e-002
2.416471e+003,-4.707209e-002
2.418399e+003,-4.715848e-002
2.420328e+003,-4.721775e-002
2.422256e+003,-4.728509e-002
2.424185e+003,-4.725166e-002
2.426113e+003,-4.723638e-002
2.428042e+003,-4.730360e-002
2.429970e+003,-4.733560e-002
2.431899e+003,-4.733222e-002
2.433828e+003,-4.736897e-002
2.435756e+003,-4.738926e-002
2.437685e+003,-4.728319e-002
2.439613e+003,-4.726652e-002
2.441542e+003,-4.729754e-002
2.443470e+003,-4.721971e-002
2.445399e+003,-4.721032e-002
2.447327e+003,-4.718645e-002
2.449256e+003,-4.715952e-002
2.451185e+003,-4.722420e-002
2.453113e+003,-4.724851e-002
2.455042e+003,-4.727558e-002
2.456970e+003,-4.727270e-002
2.458899e+003,-4.716324e-002
2.460827e+003,-4.709778e-002
2.462756e+003,-4.709264e-002
2.464684e+003,-4.709968e-002
2.466613e+003,-4.709097e-002
2.468542e+003,-4.706579e-002
2.470470e+003,-4.704195e-002
2.472398e+003,-4.702895e-002
2.474327e+003,-4.698132e-002
2.476256e+003,-4.696630e-002
2.478184e+003,-4.697578e-002
2.480113e+003,-4.692984e-002
2.482041e+003,-4.692074e-002
2.483970e+003,-4.696924e-002
2.485898e+003,-4.694661e-002
2.487827e+003,-4.691869e-002
2.489755e+003,-4.700204e-002
2.491684e+003,-4.701593e-002
2.493613e+003,-4.693950e-002
2.495541e+003,-4.692116e-002
2.497470e+003,-4.696701e-002
2.499398e+003,-4.695916e-002
2.501327e+003,-4.686896e-002
2.503255e+003,-4.673928e-002
2.505184e+003,-4.671203e-002
2.507112e+003,-4.676011e-002
2.509041e+003,-4.671994e-002
2.510969e+003,-4.666968e-002
2.512898e+003,-4.662903e-002
2.514827e+003,-4.664394e-002
2.516755e+003,-4.672583e-002
2.518684e+003,-4.671152e-002
2.520612e+003,-4.666168e-002
2.522541e+003,-4.662275e-002
2.524469e+003,-4.656712e-002
2.526398e+003,-4.654751e-002
2.528326e+003,-4.658870e-002
2.530255e+003,-4.655555e-002
2.532184e+003,-4.651447e-002
2.534112e+003,-4.658844e-002
2.536041e+003,-4.656540e-002
2.537969e+003,-4.652908e-002
2.539898e+003,-4.647276e-002
2.541826e+003,-4.647556e-002
2.543755e+003,-4.648881e-002
2.545683e+003,-4.641702e-002
2.547612e+003,-4.637474e-002
2.549541e+003,-4.640121e-002
2.551469e+003,-4.628879e-002
2.553397e+003,-4.612966e-002
2.555326e+003,-4.615009e-002
2.557255e+003,-4.622657e-002
2.559183e+003,-4.620714e-002
2.561112e+003,-4.615945e-002
2.563040e+003,-4.620714e-002
2.564969e+003,-4.624575e-002
2.566897e+003,-4.625215e-002
2.568826e+003,-4.627953e-002
2.570754e+003,-4.626696e-002
2.572683e+003,-4.619168e-002
2.574612e+003,-4.607406e-002
2.576540e+003,-4.599377e-002
2.578469e+003,-4.600244e-002
2.580397e+003,-4.600631e-002
2.582326e+003,-4.603168e-002
2.584254e+003,-4.599162e-002
2.586183e+003,-4.590092e-002
2.588111e+003,-4.587435e-002
2.590040e+003,-4.584505e-002
2.591969e+003,-4.577256e-002
2.593897e+003,-4.567722e-002
2.595826e+003,-4.565864e-002
2.597754e+003,-4.570317e-002
2.599683e+003,-4.565043e-002
2.601611e+003,-4.567946e-002
2.603540e+003,-4.577038e-002
2.605468e+003,-4.566123e-002
2.607397e+003,-4.546871e-002
2.609325e+003,-4.540661e-002
2.611254e+003,-4.541449e-002
2.613183e+003,-4.540067e-002
2.615111e+003,-4.526963e-002
2.617040e+003,-4.525363e-002
2.618968e+003,-4.526912e-002
2.620897e+003,-4.511786e-002
2.622825e+003,-4.496020e-002
2.624754e+003,-4.487042e-002
2.626682e+003,-4.482416e-002
2.628611e+003,-4.488500e-002
2.630540e+003,-4.488103e-002
2.632468e+003,-4.471094e-002
2.634396e+003,-4.458537e-002
2.636325e+003,-4.463970e-002
2.638254e+003,-4.474621e-002
2.640182e+003,-4.475536e-002
2.642111e+003,-4.472532e-002
2.644039e+003,-4.468090e-002
2.645968e+003,-4.465573e-002
2.647896e+003,-4.471348e-002
2.649825e+003,-4.473919e-002
2.651753e+003,-4.472104e-002
2.653682e+003,-4.465079e-002
2.655611e+003,-4.458454e-002
2.657539e+003,-4.455604e-002
2.659468e+003,-4.461677e-002
2.661396e+003,-4.455383e-002
2.663325e+003,-4.444392e-002
2.665253e+003,-4.438921e-002
2.667182e+003,-4.438741e-002
2.669110e+003,-4.446154e-002
2.671039e+003,-4.455464e-002
2.672968e+003,-4.458343e-002
2.674896e+003,-4.455212e-002
2.676825e+003,-4.459805e-002
2.678753e+003,-4.471859e-002
2.680682e+003,-4.467698e-002
2.682610e+003,-4.463312e-002
2.684539e+003,-4.461528e-002
2.686467e+003,-4.455771e-002
2.688396e+003,-4.470371e-002
2.690324e+003,-4.485730e-002
2.692253e+003,-4.479015e-002
2.694182e+003,-4.470589e-002
2.696110e+003,-4.479909e-002
2.698039e+003,-4.479445e-002
2.699967e+003,-4.468903e-002
2.701896e+003,-4.469408e-002
2.703824e+003,-4.472416e-002
2.705753e+003,-4.464257e-002
2.707681e+003,-4.456758e-002
2.709610e+003,-4.454079e-002
2.711539e+003,-4.445086e-002
2.713467e+003,-4.442238e-002
2.715396e+003,-4.442463e-002
2.717324e+003,-4.431268e-002
2.719253e+003,-4.421052e-002
2.721181e+003,-4.419621e-002
2.723110e+003,-4.419134e-002
2.725038e+003,-4.425888e-002
2.726967e+003,-4.423288e-002
2.728896e+003,-4.399892e-002
2.730824e+003,-4.383954e-002
2.732752e+003,-4.389303e-002
2.734681e+003,-4.391813e-002
2.736610e+003,-4.384109e-002
2.738538e+003,-4.378277e-002
2.740467e+003,-4.371836e-002
2.742395e+003,-4.367917e-002
2.744324e+003,-4.368948e-002
2.746252e+003,-4.361504e-002
2.748181e+003,-4.351785e-002
2.750109e+003,-4.354189e-002
2.752038e+003,-4.351908e-002
2.753967e+003,-4.337418e-002
2.755895e+003,-4.333901e-002
2.757824e+003,-4.329040e-002
2.759752e+003,-4.315848e-002
2.761681e+003,-4.304269e-002
2.763609e+003,-4.292199e-002
2.765538e+003,-4.280767e-002
2.767466e+003,-4.270774e-002
2.769395e+003,-4.248527e-002
2.771323e+003,-4.236066e-002
2.773252e+003,-4.237310e-002
2.775181e+003,-4.217912e-002
2.777109e+003,-4.179803e-002
2.779038e+003,-4.152559e-002
2.780966e+003,-4.137184e-002
2.782895e+003,-4.116704e-002
2.784823e+003,-4.098959e-002
2.786752e+003,-4.078175e-002
2.788680e+003,-4.044809e-002
2.790609e+003,-4.012418e-002
2.792538e+003,-3.989032e-002
2.794466e+003,-3.961620e-002
2.796395e+003,-3.920113e-002
2.798323e+003,-3.872205e-002
2.800252e+003,-3.830360e-002
2.802180e+003,-3.796175e-002
2.804109e+003,-3.761289e-002
2.806037e+003,-3.722290e-002
2.807966e+003,-3.677598e-002
2.809895e+003,-3.629531e-002
2.811823e+003,-3.568014e-002
2.813751e+003,-3.499569e-002
2.815680e+003,-3.427248e-002
2.817609e+003,-3.351312e-002
2.819537e+003,-3.258982e-002
2.821466e+003,-3.152406e-002
2.823394e+003,-3.019230e-002
2.825323e+003,-2.875588e-002
2.827251e+003,-2.712449e-002
2.829180e+003,-2.504065e-002
2.831108e+003,-2.242766e-002
2.833037e+003,-1.910567e-002
2.834966e+003,-1.474329e-002
2.836894e+003,-8.610859e-003
2.838823e+003,2.362437e-004
2.840751e+003,1.357272e-002
2.842680e+003,3.383423e-002
2.844608e+003,6.337827e-002
2.846537e+003,9.956298e-002
2.848465e+003,1.224974e-001
2.850394e+003,1.101266e-001
2.852323e+003,7.648259e-002
2.854251e+003,4.538033e-002
2.856180e+003,2.292816e-002
2.858108e+003,7.233661e-003
2.860037e+003,-3.833275e-003
2.861965e+003,-1.143387e-002
2.863894e+003,-1.637411e-002
2.865822e+003,-1.925502e-002
2.867751e+003,-2.050013e-002
2.869679e+003,-2.065289e-002
2.871608e+003,-2.028968e-002
2.873537e+003,-1.966283e-002
2.875465e+003,-1.852518e-002
2.877394e+003,-1.670012e-002
2.879322e+003,-1.423317e-002
2.881251e+003,-1.116883e-002
2.883179e+003,-7.698054e-003
2.885108e+003,-3.907986e-003
2.887036e+003,9.404458e-005
2.888965e+003,4.295397e-003
2.890894e+003,8.576686e-003
2.892822e+003,1.283145e-002
2.894750e+003,1.716837e-002
2.896679e+003,2.150290e-002
2.898608e+003,2.594507e-002
2.900536e+003,3.090045e-002
2.902465e+003,3.676860e-002
2.904393e+003,4.420298e-002
2.906322e+003,5.432452e-002
2.908250e+003,6.869765e-002
2.910179e+003,8.911784e-002
2.912107e+003,1.160949e-001
2.914036e+003,1.445445e-001
2.915965e+003,1.609842e-001
2.917893e+003,1.551576e-001
2.919822e+003,1.331428e-001
2.921750e+003,1.064243e-001
2.923679e+003,8.151226e-002
2.925607e+003,6.061970e-002
2.927536e+003,4.358009e-002
2.929464e+003,2.938635e-002
2.931393e+003,1.719260e-002
2.933322e+003,6.644644e-003
2.935250e+003,-2.185414e-003
2.937179e+003,-9.623424e-003
2.939107e+003,-1.598482e-002
2.941036e+003,-2.136847e-002
2.942964e+003,-2.595961e-002
2.944893e+003,-2.963286e-002
2.946821e+003,-3.209781e-002
2.948750e+003,-3.349146e-002
2.950678e+003,-3.433873e-002
2.952607e+003,-3.479552e-002
2.954536e+003,-3.526908e-002
2.956464e+003,-3.601193e-002
2.958393e+003,-3.673768e-002
2.960321e+003,-3.764978e-002
2.962250e+003,-3.872423e-002
2.964178e+003,-3.970802e-002
2.966107e+003,-4.071137e-002
2.968035e+003,-4.185294e-002
2.969964e+003,-4.286048e-002
2.971893e+003,-4.356119e-002
2.973821e+003,-4.420645e-002
2.975750e+003,-4.473695e-002
2.977678e+003,-4.501472e-002
2.979607e+003,-4.540017e-002
2.981535e+003,-4.581729e-002
2.983464e+003,-4.599830e-002
2.985392e+003,-4.614729e-002
2.987321e+003,-4.633105e-002
2.989250e+003,-4.652280e-002
2.991178e+003,-4.681211e-002
2.993106e+003,-4.697563e-002
2.995035e+003,-4.699354e-002
2.996964e+003,-4.691012e-002
2.998892e+003,-4.687300e-002
3.000821e+003,-4.705631e-002
3.002749e+003,-4.715530e-002
3.004678e+003,-4.709394e-002
3.006606e+003,-4.711297e-002
3.008535e+003,-4.730901e-002
3.010463e+003,-4.739981e-002
3.012392e+003,-4.729029e-002
3.014321e+003,-4.725496e-002
3.016249e+003,-4.734924e-002
3.018178e+003,-4.743085e-002
3.020106e+003,-4.747161e-002
3.022035e+003,-4.747713e-002
3.023963e+003,-4.749361e-002
3.025892e+003,-4.754200e-002
3.027820e+003,-4.761760e-002
3.029749e+003,-4.770276e-002
3.031677e+003,-4.772523e-002
3.033606e+003,-4.766630e-002
3.035535e+003,-4.777762e-002
3.037463e+003,-4.791164e-002
3.039392e+003,-4.780718e-002
3.041320e+003,-4.773903e-002
3.043249e+003,-4.775099e-002
3.045177e+003,-4.775289e-002
3.047106e+003,-4.787004e-002
3.049034e+003,-4.795586e-002
3.050963e+003,-4.803922e-002
3.052892e+003,-4.809771e-002
3.054820e+003,-4.806467e-002
3.056749e+003,-4.783918e-002
3.058677e+003,-4.781496e-002
3.060606e+003,-4.800134e-002
3.062534e+003,-4.805663e-002
3.064463e+003,-4.798894e-002
3.066391e+003,-4.790310e-002
3.068320e+003,-4.796796e-002
3.070249e+003,-4.802703e-002
3.072177e+003,-4.803857e-002
3.074105e+003,-4.804889e-002
3.076034e+003,-4.804435e-002
3.077963e+003,-4.804382e-002
3.079891e+003,-4.808905e-002
3.081820e+003,-4.813046e-002
3.083748e+003,-4.819549e-002
3.085677e+003,-4.817684e-002
3.087605e+003,-4.810145e-002
3.089534e+003,-4.815739e-002
3.091462e+003,-4.824157e-002
3.093391e+003,-4.823487e-002
3.095320e+003,-4.819849e-002
3.097248e+003,-4.825488e-002
3.099177e+003,-4.836214e-002
3.101105e+003,-4.837504e-002
3.103034e+003,-4.835464e-002
3.104962e+003,-4.838524e-002
3.106891e+003,-4.836401e-002
3.108819e+003,-4.830532e-002
3.110748e+003,-4.829666e-002
3.112677e+003,-4.835924e-002
3.114605e+003,-4.838369e-002
3.116534e+003,-4.838805e-002
3.118462e+003,-4.838894e-002
3.120391e+003,-4.842306e-002
3.122319e+003,-4.839161e-002
3.124248e+003,-4.845566e-002
3.126176e+003,-4.851946e-002
3.128105e+003,-4.853202e-002
3.130033e+003,-4.855747e-002
3.131962e+003,-4.852891e-002
3.133891e+003,-4.850132e-002
3.135819e+003,-4.853581e-002
3.137748e+003,-4.850135e-002
3.139676e+003,-4.831566e-002
3.141605e+003,-4.833061e-002
3.143533e+003,-4.840619e-002
3.145462e+003,-4.825500e-002
3.147390e+003,-4.810531e-002
3.149319e+003,-4.816323e-002
3.151248e+003,-4.830226e-002
3.153176e+003,-4.834661e-002
3.155104e+003,-4.821373e-002
3.157033e+003,-4.808968e-002
3.158962e+003,-4.830540e-002
3.160890e+003,-4.836638e-002
3.162819e+003,-4.817387e-002
3.164747e+003,-4.827078e-002
3.166676e+003,-4.831279e-002
3.168604e+003,-4.821124e-002
3.170533e+003,-4.814181e-002
3.172461e+003,-4.820531e-002
3.174390e+003,-4.830976e-002
3.176319e+003,-4.821085e-002
3.178247e+003,-4.816097e-002
3.180176e+003,-4.817672e-002
3.182104e+003,-4.802367e-002
3.184033e+003,-4.790381e-002
3.185961e+003,-4.785870e-002
3.187890e+003,-4.792556e-002
3.189818e+003,-4.801567e-002
3.191747e+003,-4.791817e-002
3.193676e+003,-4.781348e-002
3.195604e+003,-4.782451e-002
3.197532e+003,-4.795235e-002
3.199461e+003,-4.793236e-002
3.201390e+003,-4.799051e-002
3.203318e+003,-4.808288e-002
3.205247e+003,-4.800608e-002
3.207175e+003,-4.799374e-002
3.209104e+003,-4.799893e-002
3.211032e+003,-4.791432e-002
3.212961e+003,-4.779706e-002
3.214889e+003,-4.779709e-002
3.216818e+003,-4.781950e-002
3.218747e+003,-4.787069e-002
3.220675e+003,-4.783885e-002
3.222604e+003,-4.768972e-002
3.224532e+003,-4.762381e-002
3.226461e+003,-4.762289e-002
3.228389e+003,-4.771335e-002
3.230318e+003,-4.776138e-002
3.232246e+003,-4.768533e-002
3.234175e+003,-4.777777e-002
3.236104e+003,-4.775141e-002
3.238032e+003,-4.762205e-002
3.239961e+003,-4.762069e-002
3.241889e+003,-4.763022e-002
3.243818e+003,-4.771896e-002
3.245746e+003,-4.772235e-002
3.247675e+003,-4.768072e-002
3.249603e+003,-4.765641e-002
3.251532e+003,-4.768601e-002
3.253460e+003,-4.771413e-002
3.255389e+003,-4.757769e-002
3.257318e+003,-4.759403e-002
3.259246e+003,-4.784200e-002
3.261175e+003,-4.772624e-002
3.263103e+003,-4.752917e-002
3.265032e+003,-4.757918e-002
3.266960e+003,-4.772410e-002
3.268889e+003,-4.776171e-002
3.270817e+003,-4.772882e-002
3.272746e+003,-4.763592e-002
3.274675e+003,-4.767131e-002
3.276603e+003,-4.761879e-002
3.278531e+003,-4.748637e-002
3.280460e+003,-4.754220e-002
3.282389e+003,-4.757731e-002
3.284317e+003,-4.759216e-002
3.286246e+003,-4.748061e-002
3.288174e+003,-4.739437e-002
3.290103e+003,-4.752038e-002
3.292031e+003,-4.753511e-002
3.293960e+003,-4.753490e-002
3.295888e+003,-4.748482e-002
3.297817e+003,-4.737470e-002
3.299746e+003,-4.724143e-002
3.301674e+003,-4.714184e-002
3.303603e+003,-4.729989e-002
3.305531e+003,-4.748117e-002
3.307460e+003,-4.745319e-002
3.309388e+003,-4.741630e-002
3.311317e+003,-4.737925e-002
3.313245e+003,-4.741303e-002
3.315174e+003,-4.755206e-002
3.317103e+003,-4.762333e-002
3.319031e+003,-4.757630e-002
3.320960e+003,-4.743391e-002
3.322888e+003,-4.731596e-002
3.324817e+003,-4.720104e-002
3.326745e+003,-4.728693e-002
3.328674e+003,-4.746979e-002
3.330602e+003,-4.747820e-002
3.332531e+003,-4.740459e-002
3.334459e+003,-4.742360e-002
3.336388e+003,-4.732809e-002
3.338317e+003,-4.714957e-002
3.340245e+003,-4.717982e-002
3.342174e+003,-4.717284e-002
3.344102e+003,-4.699880e-002
3.346031e+003,-4.705399e-002
3.347959e+003,-4.730934e-002
3.349888e+003,-4.745049e-002
3.351816e+003,-4.743350e-002
3.353745e+003,-4.730488e-002
3.355674e+003,-4.723772e-002
3.357602e+003,-4.730607e-002
3.359531e+003,-4.736202e-002
3.361459e+003,-4.742515e-002
3.363388e+003,-4.743231e-002
3.365316e+003,-4.717537e-002
3.367245e+003,-4.715468e-002
3.369173e+003,-4.732586e-002
3.371102e+003,-4.733531e-002
3.373031e+003,-4.734104e-002
3.374959e+003,-4.721501e-002
3.376887e+003,-4.717364e-002
3.378816e+003,-4.715753e-002
3.380745e+003,-4.713657e-002
3.382673e+003,-4.726497e-002
3.384602e+003,-4.736237e-002
3.386530e+003,-4.722357e-002
3.388459e+003,-4.718176e-002
3.390387e+003,-4.734381e-002
3.392316e+003,-4.738671e-002
3.394244e+003,-4.731326e-002
3.396173e+003,-4.741377e-002
3.398102e+003,-4.739692e-002
3.400030e+003,-4.708960e-002
3.401959e+003,-4.715786e-002
3.403887e+003,-4.728286e-002
3.405816e+003,-4.717432e-002
3.407744e+003,-4.710042e-002
3.409673e+003,-4.722432e-002
3.411601e+003,-4.755536e-002
3.413530e+003,-4.756846e-002
3.415458e+003,-4.739140e-002
3.417387e+003,-4.732000e-002
3.419316e+003,-4.719492e-002
3.421244e+003,-4.724607e-002
3.423173e+003,-4.731926e-002
3.425101e+003,-4.737191e-002
3.427030e+003,-4.744238e-002
3.428958e+003,-4.762511e-002
3.430887e+003,-4.774443e-002
3.432815e+003,-4.757265e-002
3.434744e+003,-4.752284e-002
3.436673e+003,-4.749522e-002
3.438601e+003,-4.746029e-002
3.440530e+003,-4.748919e-002
3.442458e+003,-4.739660e-002
3.444387e+003,-4.740765e-002
3.446315e+003,-4.764219e-002
3.448244e+003,-4.773520e-002
3.450172e+003,-4.771131e-002
3.452101e+003,-4.778014e-002
3.454030e+003,-4.766671e-002
3.455958e+003,-4.765267e-002
3.457886e+003,-4.786301e-002
3.459815e+003,-4.790372e-002
3.461744e+003,-4.778916e-002
3.463672e+003,-4.789568e-002
3.465601e+003,-4.797443e-002
3.467529e+003,-4.791814e-002
3.469458e+003,-4.772915e-002
3.471386e+003,-4.756204e-002
3.473315e+003,-4.781166e-002
3.475243e+003,-4.797769e-002
3.477172e+003,-4.786500e-002
3.479101e+003,-4.786755e-002
3.481029e+003,-4.789458e-002
3.482958e+003,-4.804812e-002
3.484886e+003,-4.821002e-002
3.486815e+003,-4.804127e-002
3.488743e+003,-4.796324e-002
3.490672e+003,-4.816545e-002
3.492600e+003,-4.840806e-002
3.494529e+003,-4.833191e-002
3.496458e+003,-4.805589e-002
3.498386e+003,-4.806562e-002
3.500315e+003,-4.822120e-002
3.502243e+003,-4.836428e-002
3.504172e+003,-4.837032e-002
3.506100e+003,-4.830867e-002
3.508029e+003,-4.828341e-002
3.509957e+003,-4.815952e-002
3.511886e+003,-4.796087e-002
3.513814e+003,-4.788354e-002
3.515743e+003,-4.816569e-002
3.517672e+003,-4.848215e-002
3.519600e+003,-4.844451e-002
3.521529e+003,-4.845969e-002
3.523457e+003,-4.850600e-002
3.525386e+003,-4.826932e-002
3.527314e+003,-4.816447e-002
3.529243e+003,-4.830182e-002
3.531171e+003,-4.843983e-002
3.533100e+003,-4.850781e-002
3.535029e+003,-4.841342e-002
3.536957e+003,-4.842750e-002
3.538885e+003,-4.851919e-002
3.540814e+003,-4.839167e-002
3.542743e+003,-4.846312e-002
3.544671e+003,-4.864750e-002
3.546600e+003,-4.849193e-002
3.548528e+003,-4.832488e-002
3.550457e+003,-4.845557e-002
3.552385e+003,-4.862742e-002
3.554314e+003,-4.867680e-002
3.556242e+003,-4.864241e-002
3.558171e+003,-4.867985e-002
3.560100e+003,-4.892818e-002
3.562028e+003,-4.914489e-002
3.563957e+003,-4.907623e-002
3.565885e+003,-4.894109e-002
3.567814e+003,-4.891074e-002
3.569742e+003,-4.883459e-002
3.571671e+003,-4.874892e-002
3.573599e+003,-4.880347e-002
3.575528e+003,-4.899099e-002
3.577457e+003,-4.902098e-002
3.579385e+003,-4.902491e-002
3.581314e+003,-4.904211e-002
3.583242e+003,-4.900390e-002
3.585171e+003,-4.894864e-002
3.587099e+003,-4.891495e-002
3.589028e+003,-4.883702e-002
3.590956e+003,-4.878603e-002
3.592885e+003,-4.892028e-002
3.594813e+003,-4.887815e-002
3.596742e+003,-4.870962e-002
3.598671e+003,-4.879536e-002
3.600599e+003,-4.885038e-002
3.602528e+003,-4.867043e-002
3.604456e+003,-4.870462e-002
3.606385e+003,-4.893818e-002
3.608313e+003,-4.899878e-002
3.610242e+003,-4.909245e-002
3.612170e+003,-4.915098e-002
3.614099e+003,-4.900053e-002
3.616028e+003,-4.911538e-002
3.617956e+003,-4.946933e-002
3.619885e+003,-4.940797e-002
3.621813e+003,-4.918640e-002
3.623742e+003,-4.916314e-002
3.625670e+003,-4.911059e-002
3.627599e+003,-4.914225e-002
3.629527e+003,-4.925222e-002
3.631456e+003,-4.939665e-002
3.633385e+003,-4.944307e-002
3.635313e+003,-4.936926e-002
3.637241e+003,-4.910731e-002
3.639170e+003,-4.905842e-002
3.641099e+003,-4.921184e-002
3.643027e+003,-4.935879e-002
3.644956e+003,-4.944203e-002
3.646884e+003,-4.950770e-002
3.648813e+003,-4.949259e-002
3.650741e+003,-4.939153e-002
3.652670e+003,-4.945924e-002
3.654598e+003,-4.967988e-002
3.656527e+003,-4.976702e-002
3.658456e+003,-4.966847e-002
3.660384e+003,-4.945247e-002
3.662313e+003,-4.928792e-002
3.664241e+003,-4.936435e-002
3.666170e+003,-4.946785e-002
3.668098e+003,-4.950324e-002
3.670027e+003,-4.956860e-002
3.671955e+003,-4.966673e-002
3.673884e+003,-4.976433e-002
3.675813e+003,-4.977778e-002
3.677741e+003,-4.971632e-002
3.679670e+003,-4.957812e-002
3.681598e+003,-4.942686e-002
3.683527e+003,-4.955459e-002
3.685455e+003,-4.959479e-002
3.687384e+003,-4.964982e-002
3.689312e+003,-4.971723e-002
3.691241e+003,-4.969129e-002
3.693169e+003,-4.970160e-002
3.695098e+003,-4.978894e-002
3.697027e+003,-4.988785e-002
3.698955e+003,-4.989916e-002
3.700884e+003,-4.978673e-002
3.702812e+003,-4.960874e-002
3.704741e+003,-4.941986e-002
3.706669e+003,-4.956476e-002
3.708598e+003,-4.993576e-002
3.710526e+003,-5.003271e-002
3.712455e+003,-4.995634e-002
3.714384e+003,-4.995797e-002
3.716312e+003,-4.986738e-002
3.718240e+003,-4.986838e-002
3.720169e+003,-5.003469e-002
3.722098e+003,-5.005462e-002
3.724026e+003,-4.987636e-002
3.725955e+003,-4.969005e-002
3.727883e+003,-4.980626e-002
3.729812e+003,-4.985001e-002
3.731740e+003,-4.988528e-002
3.733669e+003,-4.991966e-002
3.735597e+003,-4.997149e-002
3.737526e+003,-4.998694e-002
3.739455e+003,-4.983949e-002
3.741383e+003,-4.993478e-002
3.743312e+003,-4.996166e-002
3.745240e+003,-5.002261e-002
3.747169e+003,-5.018576e-002
3.749097e+003,-5.013333e-002
3.751026e+003,-5.009002e-002
3.752954e+003,-5.015418e-002
3.754883e+003,-5.012217e-002
3.756812e+003,-5.007538e-002
3.758740e+003,-5.016976e-002
3.760669e+003,-5.030562e-002
3.762597e+003,-5.022638e-002
3.764526e+003,-5.001818e-002
3.766454e+003,-4.996387e-002
3.768383e+003,-5.015373e-002
3.770311e+003,-5.033905e-002
3.772240e+003,-5.019246e-002
3.774168e+003,-5.003626e-002
3.776097e+003,-5.005019e-002
3.778026e+003,-5.007095e-002
3.779954e+003,-5.003026e-002
3.781883e+003,-4.992433e-002
3.783811e+003,-4.985810e-002
3.785740e+003,-5.012415e-002
3.787668e+003,-5.027796e-002
3.789597e+003,-5.017428e-002
3.791525e+003,-5.007806e-002
3.793454e+003,-4.997371e-002
3.795383e+003,-4.992303e-002
3.797311e+003,-4.996609e-002
3.799240e+003,-4.999512e-002
3.801168e+003,-5.007346e-002
3.803097e+003,-5.008872e-002
3.805025e+003,-4.994855e-002
3.806954e+003,-4.998847e-002
3.808882e+003,-5.007437e-002
3.810811e+003,-5.015801e-002
3.812740e+003,-5.017785e-002
3.814668e+003,-5.001213e-002
3.816596e+003,-4.991154e-002
3.818525e+003,-4.999391e-002
3.820454e+003,-5.005007e-002
3.822382e+003,-5.002087e-002
3.824311e+003,-5.013011e-002
3.826239e+003,-5.007189e-002
3.828168e+003,-4.992007e-002
3.830096e+003,-4.995109e-002
3.832025e+003,-5.011261e-002
3.833953e+003,-5.016489e-002
3.835882e+003,-5.008790e-002
3.837811e+003,-5.008161e-002
3.839739e+003,-5.004993e-002
3.841668e+003,-4.993100e-002
3.843596e+003,-4.997775e-002
3.845525e+003,-4.997141e-002
3.847453e+003,-4.994955e-002
3.849382e+003,-5.012300e-002
3.851310e+003,-5.024674e-002
3.853239e+003,-5.031577e-002
3.855167e+003,-5.027560e-002
3.857096e+003,-5.025409e-002
3.859025e+003,-5.016156e-002
3.860953e+003,-4.996751e-002
3.862882e+003,-4.981397e-002
3.864810e+003,-4.988371e-002
3.866739e+003,-4.996550e-002
3.868667e+003,-4.991951e-002
3.870596e+003,-4.988924e-002
3.872524e+003,-4.996889e-002
3.874453e+003,-5.006020e-002
3.876382e+003,-5.000336e-002
3.878310e+003,-5.003008e-002
3.880239e+003,-5.012096e-002
3.882167e+003,-5.005887e-002
3.884096e+003,-4.998446e-002
3.886024e+003,-4.994946e-002
3.887953e+003,-4.986091e-002
3.889881e+003,-4.996502e-002
3.891810e+003,-5.024346e-002
3.893739e+003,-5.032896e-002
3.895667e+003,-5.023992e-002
3.897595e+003,-5.025249e-002
3.899524e+003,-5.035182e-002
3.901453e+003,-5.034814e-002
3.903381e+003,-5.016575e-002
3.905310e+003,-5.009120e-002
3.907238e+003,-5.019228e-002
3.909167e+003,-5.021035e-002
3.911095e+003,-5.001491e-002
3.913024e+003,-4.994861e-002
3.914952e+003,-5.005430e-002
3.916881e+003,-5.005577e-002
3.918810e+003,-5.009070e-002
3.920738e+003,-5.007479e-002
3.922667e+003,-5.018278e-002
3.924595e+003,-5.017959e-002
3.926524e+003,-4.988227e-002
3.928452e+003,-4.984682e-002
3.930381e+003,-4.995109e-002
3.932309e+003,-4.991677e-002
3.934238e+003,-4.992253e-002
3.936167e+003,-4.999385e-002
3.938095e+003,-5.015441e-002
3.940024e+003,-5.038741e-002
3.941952e+003,-5.042263e-002
3.943881e+003,-5.032019e-002
3.945809e+003,-5.029614e-002
3.947738e+003,-5.035368e-002
3.949666e+003,-5.030798e-002
3.951595e+003,-5.021445e-002
3.953523e+003,-5.024698e-002
3.955452e+003,-5.018310e-002
3.957380e+003,-5.019925e-002
3.959309e+003,-5.024872e-002
3.961238e+003,-4.997365e-002
3.963166e+003,-4.989184e-002
3.965095e+003,-4.996665e-002
3.967023e+003,-4.995546e-002
3.968952e+003,-5.002459e-002
3.970880e+003,-5.016105e-002
3.972809e+003,-5.022959e-002
3.974737e+003,-5.028862e-002
3.976666e+003,-5.035357e-002
3.978594e+003,-5.028921e-002
3.980523e+003,-5.022888e-002
3.982452e+003,-5.023287e-002
3.984380e+003,-5.019789e-002
3.986309e+003,-5.014496e-002
3.988237e+003,-5.031347e-002
3.990166e+003,-5.036770e-002
3.992094e+003,-5.013094e-002
3.994023e+003,-5.014024e-002
3.995951e+003,-5.026713e-002
3.997880e+003,-5.029455e-002
3.999809e+003,-5.033566e-002
4.001737e+003,0.000000e+000
