3.992094e+002,0.000000e+000
4.011380e+002,0.000000e+000
4.030665e+002,0.000000e+000
4.049951e+002,0.000000e+000
4.069236e+002,0.000000e+000
4.088522e+002,0.000000e+000
4.107807e+002,0.000000e+000
4.127093e+002,0.000000e+000
4.146378e+002,0.000000e+000
4.165664e+002,0.000000e+000
4.184949e+002,0.000000e+000
4.204235e+002,0.000000e+000
4.223520e+002,0.000000e+000
4.242806e+002,0.000000e+000
4.262091e+002,0.000000e+000
4.281377e+002,0.000000e+000
4.300662e+002,0.000000e+000
4.319948e+002,0.000000e+000
4.339233e+002,0.000000e+000
4.358519e+002,0.000000e+000
4.377804e+002,0.000000e+000
4.397090e+002,0.000000e+000
4.416375e+002,0.000000e+000
4.435660e+002,0.000000e+000
4.454946e+002,0.000000e+000
4.474232e+002,0.000000e+000
4.493517e+002,0.000000e+000
4.512802e+002,0.000000e+000
4.532088e+002,0.000000e+000
4.551373e+002,0.000000e+000
4.570659e+002,0.000000e+000
4.589944e+002,0.000000e+000
4.609230e+002,0.000000e+000
4.628515e+002,0.000000e+000
4.647801e+002,0.000000e+000
4.667086e+002,0.000000e+000
4.686372e+002,0.000000e+000
4.705657e+002,0.000000e+000
4.724943e+002,0.000000e+000
4.744228e+002,0.000000e+000
4.763514e+002,0.000000e+000
4.782799e+002,0.000000e+000
4.802085e+002,0.000000e+000
4.821370e+002,0.000000e+000
4.840656e+002,0.000000e+000
4.859941e+002,0.000000e+000
4.879226e+002,0.000000e+000
4.898512e+002,0.000000e+000
4.917798e+002,0.000000e+000
4.937083e+002,0.000000e+000
4.956368e+002,0.000000e+000
4.975654e+002,0.000000e+000
4.994939e+002,0.000000e+000
5.014225e+002,0.000000e+000
5.033510e+002,0.000000e+000
5.052796e+002,0.000000e+000
5.072081e+002,0.000000e+000
5.091367e+002,0.000000e+000
5.110652e+002,0.000000e+000
5.129938e+002,0.000000e+000
5.149223e+002,0.000000e+000
5.168509e+002,0.000000e+000
5.187794e+002,0.000000e+000
5.207079e+002,0.000000e+000
5.226365e+002,0.000000e+000
5.245651e+002,0.000000e+000
5.264936e+002,0.000000e+000
5.284221e+002,0.000000e+000
5.303507e+002,0.000000e+000
5.322792e+002,0.000000e+000
5.342078e+002,0.000000e+000
5.361364e+002,0.000000e+000
5.380649e+002,0.000000e+000
5.399934e+002,0.000000e+000
5.419220e+002,0.000000e+000
5.438505e+002,0.000000e+000
5.457791e+002,0.000000e+000
5.477076e+002,0.000000e+000
5.496362e+002,0.000000e+000
5.515647e+002,0.000000e+000
5.534933e+002,0.000000e+000
5.554218e+002,0.000000e+000
5.573503e+002,0.000000e+000
5.592789e+002,0.000000e+000
5.612075e+002,0.000000e+000
5.631360e+002,0.000000e+000
5.650646e+002,0.000000e+000
5.669931e+002,0.000000e+000
5.689216e+002,0.000000e+000
5.708502e+002,0.000000e+000
5.727787e+002,0.000000e+000
5.747073e+002,0.000000e+000
5.766359e+002,0.000000e+000
5.785644e+002,0.000000e+000
5.804929e+002,0.000000e+000
5.824215e+002,0.000000e+000
5.843500e+002,0.000000e+000
5.862786e+002,0.000000e+000
5.882072e+002,0.000000e+000
5.901357e+002,0.000000e+000
5.920642e+002,0.000000e+000
5.939928e+002,0.000000e+000
5.959213e+002,0.000000e+000
5.978499e+002,0.000000e+000
5.997784e+002,0.000000e+000
6.017070e+002,0.000000e+000
6.036355e+002,0.000000e+000
6.055641e+002,0.000000e+000
6.074926e+002,0.000000e+000
6.094211e+002,0.000000e+000
6.113497e+002,0.000000e+000
6.132783e+002,0.000000e+000
6.152068e+002,0.000000e+000
6.171354e+002,0.000000e+000
6.190639e+002,0.000000e+000
6.209924e+002,0.000000e+000
6.229210e+002,0.000000e+000
6.248495e+002,0.000000e+000
6.267781e+002,0.000000e+000
6.287067e+002,0.000000e+000
6.306352e+002,0.000000e+000
6.325637e+002,0.000000e+000
6.344923e+002,0.000000e+000
6.364208e+002,0.000000e+000
6.383494e+002,0.000000e+000
6.402780e+002,0.000000e+000
6.422065e+002,0.000000e+000
6.441350e+002,0.000000e+000
6.460636e+002,0.000000e+000
6.479921e+002,0.000000e+000
6.499207e+002,0.000000e+000
6.518492e+002,0.000000e+000
6.537778e+002,0.000000e+000
6.557063e+002,0.000000e+000
6.576349e+002,0.000000e+000
6.595634e+002,0.000000e+000
6.614919e+002,0.000000e+000
6.634205e+002,0.000000e+000
6.653491e+002,0.000000e+000
6.672776e+002,0.000000e+000
6.692062e+002,0.000000e+000
6.711347e+002,0.000000e+000
6.730632e+002,0.000000e+000
6.749918e+002,-1.096081e-002
6.769203e+002,-1.190497e-002
6.788489e+002,-1.216637e-002
6.807775e+002,-1.241918e-002
6.827060e+002,-1.250218e-002
6.846345e+002,-1.253393e-002
6.865631e+002,-1.261507e-002
6.884916e+002,-1.227390e-002
6.904202e+002,-1.179357e-002
6.923488e+002,-1.178322e-002
6.942773e+002,-1.209751e-002
6.962058e+002,-1.222935e-002
6.981344e+002,-1.217603e-002
7.000629e+002,-1.211720e-002
7.019915e+002,-1.232073e-002
7.039200e+002,-1.243898e-002
7.058486e+002,-1.242353e-002
7.077771e+002,-1.237896e-002
7.097057e+002,-1.188214e-002
7.116342e+002,-1.128087e-002
7.135627e+002,-1.096421e-002
7.154913e+002,-1.057365e-002
7.174199e+002,-9.847337e-003
7.193484e+002,-8.875228e-003
7.212770e+002,-8.326860e-003
7.232055e+002,-8.547772e-003
7.251340e+002,-8.936092e-003
7.270626e+002,-8.944045e-003
7.289911e+002,-9.025087e-003
7.309197e+002,-9.366418e-003
7.328483e+002,-9.858771e-003
7.347768e+002,-1.024832e-002
7.367053e+002,-1.059726e-002
7.386339e+002,-1.096405e-002
7.405624e+002,-1.111635e-002
7.424910e+002,-1.148522e-002
7.444196e+002,-1.175039e-002
7.463481e+002,-1.179167e-002
7.482766e+002,-1.203819e-002
7.502052e+002,-1.206828e-002
7.521337e+002,-1.204940e-002
7.540623e+002,-1.181637e-002
7.559908e+002,-1.163589e-002
7.579194e+002,-1.162379e-002
7.598479e+002,-1.177229e-002
7.617765e+002,-1.185061e-002
7.637050e+002,-1.183217e-002
7.656335e+002,-1.178635e-002
7.675621e+002,-1.157001e-002
7.694907e+002,-1.152933e-002
7.714192e+002,-1.154839e-002
7.733478e+002,-1.141073e-002
7.752763e+002,-1.139898e-002
7.772048e+002,-1.150648e-002
7.791334e+002,-1.145527e-002
7.810620e+002,-1.112991e-002
7.829905e+002,-1.072390e-002
7.849191e+002,-1.056799e-002
7.868476e+002,-1.038541e-002
7.887761e+002,-1.021113e-002
7.907047e+002,-1.002409e-002
7.926332e+002,-9.657159e-003
7.945618e+002,-9.238670e-003
7.964904e+002,-8.795976e-003
7.984189e+002,-8.249491e-003
8.003474e+002,-7.646066e-003
8.022760e+002,-6.926639e-003
8.042045e+002,-5.488812e-003
8.061331e+002,-3.668438e-003
8.080616e+002,-2.603903e-003
8.099902e+002,-2.869285e-003
8.119187e+002,-4.122590e-003
8.138473e+002,-5.595688e-003
8.157758e+002,-6.809391e-003
8.177043e+002,-7.694669e-003
8.196329e+002,-8.174515e-003
8.215615e+002,-8.396739e-003
8.234900e+002,-8.476356e-003
8.254186e+002,-8.336351e-003
8.273471e+002,-8.161314e-003
8.292756e+002,-7.925890e-003
8.312042e+002,-7.390526e-003
8.331328e+002,-6.724672e-003
8.350613e+002,-5.932730e-003
8.369899e+002,-4.407874e-003
8.389184e+002,-9.203492e-004
8.408469e+002,3.241743e-003
8.427755e+002,2.740063e-003
8.447040e+002,-1.935843e-003
8.466326e+002,-5.273278e-003
8.485612e+002,-6.623001e-003
8.504896e+002,-7.248541e-003
8.524182e+002,-7.499931e-003
8.543468e+002,-7.659934e-003
8.562753e+002,-7.867389e-003
8.582039e+002,-8.036202e-003
8.601324e+002,-8.154941e-003
8.620609e+002,-8.120340e-003
8.639895e+002,-8.118779e-003
8.659181e+002,-8.176987e-003
8.678466e+002,-8.230245e-003
8.697751e+002,-8.214346e-003
8.717037e+002,-8.273516e-003
8.736322e+002,-8.284276e-003
8.755608e+002,-8.266982e-003
8.774894e+002,-8.312070e-003
8.794178e+002,-8.500271e-003
8.813464e+002,-8.663772e-003
8.832750e+002,-8.657373e-003
8.852035e+002,-8.655294e-003
8.871321e+002,-8.528375e-003
8.890607e+002,-8.196724e-003
8.909891e+002,-7.761461e-003
8.929177e+002,-7.055949e-003
8.948463e+002,-5.771370e-003
8.967748e+002,-4.089603e-003
8.987034e+002,-2.969930e-003
9.006320e+002,-3.390590e-003
9.025604e+002,-5.103846e-003
9.044890e+002,-6.851923e-003
9.064176e+002,-7.942938e-003
9.083461e+002,-8.439702e-003
9.102747e+002,-8.753764e-003
9.122032e+002,-8.897496e-003
9.141317e+002,-8.887563e-003
9.160603e+002,-8.899867e-003
9.179889e+002,-9.002369e-003
9.199174e+002,-9.146929e-003
9.218459e+002,-9.182972e-003
9.237745e+002,-9.140895e-003
9.257030e+002,-9.128371e-003
9.276316e+002,-9.126197e-003
9.295602e+002,-9.145923e-003
9.314886e+002,-9.048160e-003
9.334172e+002,-8.844840e-003
9.353458e+002,-8.525808e-003
9.372743e+002,-8.119983e-003
9.392029e+002,-7.766864e-003
9.411315e+002,-7.718790e-003
9.430599e+002,-7.969648e-003
9.449885e+002,-8.228522e-003
9.469171e+002,-8.364433e-003
9.488456e+002,-8.466868e-003
9.507742e+002,-8.479184e-003
9.527028e+002,-8.403890e-003
9.546312e+002,-8.188335e-003
9.565598e+002,-7.918733e-003
9.584884e+002,-7.638481e-003
9.604169e+002,-7.237592e-003
9.623455e+002,-6.632594e-003
9.642740e+002,-5.675329e-003
9.662025e+002,-4.056779e-003
9.681311e+002,-1.169546e-003
9.700597e+002,3.442250e-003
9.719882e+002,8.088996e-003
9.739167e+002,9.173373e-003
9.758453e+002,5.896186e-003
9.777738e+002,1.067697e-003
9.797024e+002,-2.624092e-003
9.816310e+002,-4.670158e-003
9.835594e+002,-5.588099e-003
9.854880e+002,-5.782356e-003
9.874166e+002,-5.419509e-003
9.893451e+002,-4.521969e-003
9.912737e+002,-2.981547e-003
9.932023e+002,-2.023687e-004
9.951307e+002,3.778929e-003
9.970593e+002,6.854403e-003
9.989879e+002,6.279415e-003
1.000916e+003,2.985976e-003
1.002845e+003,3.018616e-005
1.004774e+003,-1.547977e-003
1.006702e+003,-2.112286e-003
1.008631e+003,-2.038650e-003
1.010559e+003,-1.493959e-003
1.012488e+003,-6.975406e-004
1.014416e+003,-4.519248e-005
1.016345e+003,3.107428e-004
1.018273e+003,2.827917e-004
1.020202e+003,-1.239368e-004
1.022130e+003,-7.662111e-004
1.024059e+003,-1.510932e-003
1.025988e+003,-2.096920e-003
1.027916e+003,-2.466538e-003
1.029845e+003,-2.712808e-003
1.031773e+003,-2.804469e-003
1.033702e+003,-2.791400e-003
1.035630e+003,-2.662887e-003
1.037559e+003,-2.405023e-003
1.039487e+003,-1.994984e-003
1.041416e+003,-1.572276e-003
1.043344e+003,-1.360042e-003
1.045273e+003,-1.490195e-003
1.047202e+003,-2.009793e-003
1.049130e+003,-2.862735e-003
1.051059e+003,-3.624804e-003
1.052987e+003,-4.143759e-003
1.054916e+003,-4.502425e-003
1.056844e+003,-4.713523e-003
1.058773e+003,-4.840841e-003
1.060701e+003,-4.880978e-003
1.062630e+003,-4.917148e-003
1.064558e+003,-4.996455e-003
1.066487e+003,-5.002122e-003
1.068416e+003,-4.957278e-003
1.070344e+003,-4.960882e-003
1.072273e+003,-4.939327e-003
1.074201e+003,-4.878980e-003
1.076130e+003,-4.703559e-003
1.078058e+003,-4.475830e-003
1.079987e+003,-4.317011e-003
1.081915e+003,-4.203256e-003
1.083844e+003,-4.201254e-003
1.085773e+003,-4.182943e-003
1.087701e+003,-4.124395e-003
1.089630e+003,-4.098137e-003
1.091558e+003,-4.009901e-003
1.093487e+003,-3.796686e-003
1.095415e+003,-3.372968e-003
1.097344e+003,-2.779976e-003
1.099272e+003,-2.060251e-003
1.101201e+003,-1.394656e-003
1.103129e+003,-1.239464e-003
1.105058e+003,-1.564485e-003
1.106987e+003,-2.096887e-003
1.108915e+003,-2.546689e-003
1.110844e+003,-2.803383e-003
1.112772e+003,-2.893511e-003
1.114701e+003,-2.928530e-003
1.116629e+003,-3.076540e-003
1.118558e+003,-3.269687e-003
1.120486e+003,-3.429941e-003
1.122415e+003,-3.601211e-003
1.124344e+003,-3.842405e-003
1.126272e+003,-4.104964e-003
1.128201e+003,-4.256839e-003
1.130129e+003,-4.314451e-003
1.132058e+003,-4.272195e-003
1.133986e+003,-4.092689e-003
1.135915e+003,-3.648954e-003
1.137843e+003,-2.955714e-003
1.139772e+003,-2.148027e-003
1.141700e+003,-1.225158e-003
1.143629e+003,-1.830932e-004
1.145557e+003,9.947952e-004
1.147486e+003,2.133065e-003
1.149415e+003,3.245916e-003
1.151343e+003,4.223222e-003
1.153272e+003,4.821324e-003
1.155200e+003,5.037043e-003
1.157129e+003,5.215174e-003
1.159057e+003,5.657381e-003
1.160986e+003,6.364876e-003
1.162914e+003,7.429986e-003
1.164843e+003,8.769765e-003
1.166771e+003,9.782437e-003
1.168700e+003,9.512968e-003
1.170629e+003,7.452671e-003
1.172557e+003,4.474195e-003
1.174486e+003,1.842078e-003
1.176414e+003,5.146021e-005
1.178343e+003,-1.037710e-003
1.180271e+003,-1.734115e-003
1.182200e+003,-2.266771e-003
1.184128e+003,-2.674479e-003
1.186057e+003,-2.941694e-003
1.187986e+003,-3.109439e-003
1.189914e+003,-3.258966e-003
1.191843e+003,-3.399006e-003
1.193771e+003,-3.505280e-003
1.195700e+003,-3.597070e-003
1.197628e+003,-3.683222e-003
1.199557e+003,-3.739597e-003
1.201485e+003,-3.773923e-003
1.203414e+003,-3.769358e-003
1.205343e+003,-3.769883e-003
1.207271e+003,-3.767880e-003
1.209200e+003,-3.689793e-003
1.211128e+003,-3.538508e-003
1.213057e+003,-3.317171e-003
1.214985e+003,-3.080751e-003
1.216914e+003,-2.886500e-003
1.218842e+003,-2.761604e-003
1.220771e+003,-2.817374e-003
1.222699e+003,-3.028997e-003
1.224628e+003,-3.264655e-003
1.226557e+003,-3.453807e-003
1.228485e+003,-3.563189e-003
1.230414e+003,-3.598976e-003
1.232342e+003,-3.580640e-003
1.234271e+003,-3.585832e-003
1.236199e+003,-3.585700e-003
1.238128e+003,-3.519380e-003
1.240056e+003,-3.444241e-003
1.241985e+003,-3.368990e-003
1.243913e+003,-3.263932e-003
1.245842e+003,-3.108024e-003
1.247771e+003,-2.910329e-003
1.249699e+003,-2.599094e-003
1.251628e+003,-2.048708e-003
1.253556e+003,-1.282248e-003
1.255485e+003,-7.919431e-004
1.257413e+003,-1.069210e-003
1.259342e+003,-1.771637e-003
1.261270e+003,-2.351408e-003
1.263199e+003,-2.691668e-003
1.265127e+003,-2.932677e-003
1.267056e+003,-3.144539e-003
1.268985e+003,-3.295370e-003
1.270913e+003,-3.395291e-003
1.272842e+003,-3.433722e-003
1.274770e+003,-3.408968e-003
1.276699e+003,-3.362414e-003
1.278627e+003,-3.252158e-003
1.280556e+003,-3.110985e-003
1.282484e+003,-2.942780e-003
1.284413e+003,-2.738985e-003
1.286342e+003,-2.522378e-003
1.288270e+003,-2.261102e-003
1.290199e+003,-1.926178e-003
1.292127e+003,-1.486167e-003
1.294056e+003,-1.047627e-003
1.295984e+003,-8.505126e-004
1.297913e+003,-8.570272e-004
1.299841e+003,-8.446263e-004
1.301770e+003,-5.474599e-004
1.303698e+003,-2.734354e-004
1.305627e+003,-7.790773e-004
1.307556e+003,-1.771802e-003
1.309484e+003,-2.432239e-003
1.311413e+003,-2.690219e-003
1.313341e+003,-2.702107e-003
1.315270e+003,-2.492071e-003
1.317198e+003,-2.256190e-003
1.319127e+003,-2.060086e-003
1.321055e+003,-1.806648e-003
1.322984e+003,-1.466750e-003
1.324912e+003,-1.028719e-003
1.326841e+003,-5.675795e-004
1.328770e+003,-1.235061e-004
1.330698e+003,4.930625e-005
1.332627e+003,-1.548740e-004
1.334555e+003,-4.275168e-004
1.336484e+003,-4.914641e-004
1.338412e+003,-3.720684e-004
1.340341e+003,-8.670313e-005
1.342269e+003,3.617092e-004
1.344198e+003,9.637781e-004
1.346126e+003,1.716284e-003
1.348055e+003,2.684616e-003
1.349984e+003,3.969385e-003
1.351912e+003,5.737651e-003
1.353841e+003,8.189367e-003
1.355769e+003,1.130927e-002
1.357698e+003,1.382567e-002
1.359626e+003,1.422842e-002
1.361555e+003,1.289862e-002
1.363483e+003,1.172181e-002
1.365412e+003,1.201180e-002
1.367341e+003,1.472786e-002
1.369269e+003,2.128347e-002
1.371198e+003,3.388735e-002
1.373126e+003,5.413134e-002
1.375055e+003,7.553733e-002
1.376983e+003,8.057331e-002
1.378912e+003,6.286344e-002
1.380840e+003,3.819226e-002
1.382769e+003,2.022037e-002
1.384698e+003,1.010572e-002
1.386626e+003,4.884048e-003
1.388555e+003,2.295685e-003
1.390483e+003,1.010271e-003
1.392412e+003,3.027518e-004
1.394340e+003,-1.230424e-004
1.396269e+003,-3.798812e-004
1.398197e+003,-5.765471e-004
1.400126e+003,-6.881125e-004
1.402054e+003,-7.848322e-004
1.403983e+003,-8.291494e-004
1.405911e+003,-7.685925e-004
1.407840e+003,-6.968459e-004
1.409769e+003,-6.233670e-004
1.411697e+003,-4.536331e-004
1.413626e+003,-2.537988e-004
1.415554e+003,-3.237075e-005
1.417483e+003,1.651715e-004
1.419411e+003,3.717905e-004
1.421340e+003,5.561463e-004
1.423268e+003,8.178218e-004
1.425197e+003,1.338589e-003
1.427125e+003,2.153809e-003
1.429054e+003,3.513660e-003
1.430983e+003,6.123663e-003
1.432911e+003,1.010369e-002
1.434840e+003,1.372874e-002
1.436768e+003,1.502518e-002
1.438697e+003,1.498008e-002
1.440625e+003,1.573791e-002
1.442554e+003,1.826259e-002
1.444482e+003,2.280197e-002
1.446411e+003,2.927990e-002
1.448340e+003,3.669508e-002
1.450268e+003,4.306686e-002
1.452197e+003,4.721862e-002
1.454125e+003,4.935361e-002
1.456054e+003,5.017827e-002
1.457982e+003,5.021551e-002
1.459911e+003,4.946674e-002
1.461839e+003,4.728762e-002
1.463768e+003,4.287631e-002
1.465697e+003,3.621916e-002
1.467625e+003,2.848570e-002
1.469554e+003,2.078208e-002
1.471482e+003,1.403574e-002
1.473411e+003,8.783357e-003
1.475339e+003,5.131380e-003
1.477268e+003,2.708955e-003
1.479196e+003,1.082047e-003
1.481125e+003,-1.187362e-004
1.483053e+003,-1.001150e-003
1.484982e+003,-1.686656e-003
1.486911e+003,-2.227347e-003
1.488839e+003,-2.632688e-003
1.490768e+003,-2.914806e-003
1.492696e+003,-3.180163e-003
1.494625e+003,-3.467218e-003
1.496553e+003,-3.687921e-003
1.498482e+003,-3.805095e-003
1.500410e+003,-3.907920e-003
1.502339e+003,-4.022770e-003
1.504267e+003,-4.206374e-003
1.506196e+003,-4.288731e-003
1.508125e+003,-4.273540e-003
1.510053e+003,-4.326295e-003
1.511982e+003,-4.385078e-003
1.513910e+003,-4.408760e-003
1.515839e+003,-4.433916e-003
1.517767e+003,-4.444051e-003
1.519696e+003,-4.490685e-003
1.521624e+003,-4.447396e-003
1.523553e+003,-4.382716e-003
1.525481e+003,-4.372056e-003
1.527410e+003,-4.317765e-003
1.529339e+003,-4.274885e-003
1.531267e+003,-4.279249e-003
1.533196e+003,-4.208178e-003
1.535124e+003,-4.130992e-003
1.537053e+003,-4.147730e-003
1.538981e+003,-4.038363e-003
1.540910e+003,-3.862044e-003
1.542838e+003,-3.756744e-003
1.544767e+003,-3.619021e-003
1.546696e+003,-3.490523e-003
1.548624e+003,-3.446246e-003
1.550553e+003,-3.467218e-003
1.552481e+003,-3.478262e-003
1.554410e+003,-3.445687e-003
1.556338e+003,-3.438981e-003
1.558267e+003,-3.402590e-003
1.560195e+003,-3.256434e-003
1.562124e+003,-3.181183e-003
1.564052e+003,-3.172631e-003
1.565981e+003,-3.120854e-003
1.567910e+003,-2.998099e-003
1.569838e+003,-2.867080e-003
1.571767e+003,-2.722094e-003
1.573695e+003,-2.645565e-003
1.575624e+003,-2.534797e-003
1.577552e+003,-2.366600e-003
1.579481e+003,-2.268617e-003
1.581409e+003,-2.151522e-003
1.583338e+003,-2.047620e-003
1.585266e+003,-1.980307e-003
1.587195e+003,-1.879399e-003
1.589124e+003,-1.761638e-003
1.591052e+003,-1.675269e-003
1.592981e+003,-1.579110e-003
1.594909e+003,-1.481940e-003
1.596838e+003,-1.427782e-003
1.598766e+003,-1.429962e-003
1.600695e+003,-1.411632e-003
1.602623e+003,-1.317496e-003
1.604552e+003,-1.263813e-003
1.606480e+003,-1.190100e-003
1.608409e+003,-1.077903e-003
1.610338e+003,-1.023034e-003
1.612266e+003,-1.021744e-003
1.614195e+003,-1.031297e-003
1.616123e+003,-1.005117e-003
1.618052e+003,-8.869203e-004
1.619980e+003,-7.929023e-004
1.621909e+003,-7.643257e-004
1.623837e+003,-6.770631e-004
1.625766e+003,-5.884924e-004
1.627695e+003,-5.225738e-004
1.629623e+003,-4.147395e-004
1.631552e+003,-3.157851e-004
1.633480e+003,-2.946273e-004
1.635409e+003,-2.574414e-004
1.637337e+003,-1.426517e-004
1.639266e+003,-3.339783e-005
1.641194e+003,5.928084e-005
1.643123e+003,7.439229e-005
1.645052e+003,9.603307e-005
1.646980e+003,1.817119e-004
1.648909e+003,2.664794e-004
1.650837e+003,2.520244e-004
1.652766e+003,3.582273e-004
1.654694e+003,5.640756e-004
1.656623e+003,6.457985e-004
1.658551e+003,6.653439e-004
1.660480e+003,6.908638e-004
1.662408e+003,7.485131e-004
1.664337e+003,7.841287e-004
1.666266e+003,7.448288e-004
1.668194e+003,7.064618e-004
1.670123e+003,7.068601e-004
1.672051e+003,7.051012e-004
1.673980e+003,6.698239e-004
1.675908e+003,7.162192e-004
1.677837e+003,7.341415e-004
1.679765e+003,6.920254e-004
1.681694e+003,5.721377e-004
1.683622e+003,4.422663e-004
1.685551e+003,4.894998e-004
1.687479e+003,4.817046e-004
1.689408e+003,3.791858e-004
1.691337e+003,2.908817e-004
1.693265e+003,1.845627e-004
1.695194e+003,1.203927e-004
1.697122e+003,1.588074e-004
1.699051e+003,1.135652e-004
1.700979e+003,1.503552e-004
1.702908e+003,1.884742e-004
1.704836e+003,1.842975e-004
1.706765e+003,2.634292e-004
1.708694e+003,3.435370e-004
1.710622e+003,3.835301e-004
1.712551e+003,3.232434e-004
1.714479e+003,2.395257e-004
1.716408e+003,1.383235e-004
1.718336e+003,1.301037e-004
1.720265e+003,2.032255e-004
1.722193e+003,2.846152e-004
1.724122e+003,4.139088e-004
1.726051e+003,6.432434e-004
1.727979e+003,9.519564e-004
1.729908e+003,1.359594e-003
1.731836e+003,1.839050e-003
1.733765e+003,2.577576e-003
1.735693e+003,3.585115e-003
1.737622e+003,4.642785e-003
1.739550e+003,5.884464e-003
1.741479e+003,7.152272e-003
1.743407e+003,8.235593e-003
1.745336e+003,9.087898e-003
1.747265e+003,9.440328e-003
1.749193e+003,9.124543e-003
1.751122e+003,8.211888e-003
1.753050e+003,6.915469e-003
1.754979e+003,5.418976e-003
1.756907e+003,4.020381e-003
1.758836e+003,2.831502e-003
1.760764e+003,1.814228e-003
1.762693e+003,1.072879e-003
1.764621e+003,5.475869e-004
1.766550e+003,1.338159e-004
1.768479e+003,-1.375507e-004
1.770407e+003,-3.377695e-004
1.772336e+003,-4.776295e-004
1.774264e+003,-5.755213e-004
1.776193e+003,-6.729278e-004
1.778121e+003,-7.208951e-004
1.780050e+003,-7.756375e-004
1.781978e+003,-8.537534e-004
1.783907e+003,-9.345665e-004
1.785835e+003,-9.771162e-004
1.787764e+003,-1.005943e-003
1.789693e+003,-1.041379e-003
1.791621e+003,-1.069475e-003
1.793550e+003,-1.085075e-003
1.795478e+003,-1.099221e-003
1.797407e+003,-1.106988e-003
1.799335e+003,-1.135178e-003
1.801264e+003,-1.182401e-003
1.803192e+003,-1.239200e-003
1.805121e+003,-1.255224e-003
1.807049e+003,-1.251028e-003
1.808978e+003,-1.248550e-003
1.810907e+003,-1.231105e-003
1.812835e+003,-1.196907e-003
1.814764e+003,-1.233517e-003
1.816692e+003,-1.290837e-003
1.818621e+003,-1.302862e-003
1.820549e+003,-1.311055e-003
1.822478e+003,-1.282347e-003
1.824406e+003,-1.264045e-003
1.826335e+003,-1.238076e-003
1.828264e+003,-1.237548e-003
1.830192e+003,-1.233484e-003
1.832121e+003,-1.208538e-003
1.834049e+003,-1.181839e-003
1.835978e+003,-1.176486e-003
1.837906e+003,-1.179162e-003
1.839835e+003,-1.182566e-003
1.841763e+003,-1.181112e-003
1.843692e+003,-1.117597e-003
1.845620e+003,-1.027694e-003
1.847549e+003,-1.037710e-003
1.849478e+003,-1.074598e-003
1.851406e+003,-1.098263e-003
1.853335e+003,-1.088942e-003
1.855263e+003,-1.052948e-003
1.857192e+003,-1.038503e-003
1.859120e+003,-1.035330e-003
1.861049e+003,-1.052386e-003
1.862977e+003,-1.048255e-003
1.864906e+003,-1.033644e-003
1.866834e+003,-1.063889e-003
1.868763e+003,-1.093074e-003
1.870692e+003,-1.025116e-003
1.872620e+003,-1.001414e-003
1.874549e+003,-9.924887e-004
1.876477e+003,-9.328141e-004
1.878406e+003,-8.877470e-004
1.880334e+003,-8.542164e-004
1.882263e+003,-8.089757e-004
1.884191e+003,-7.976317e-004
1.886120e+003,-8.099017e-004
1.888048e+003,-7.773243e-004
1.889977e+003,-6.899319e-004
1.891906e+003,-6.475525e-004
1.893834e+003,-6.621757e-004
1.895763e+003,-6.255838e-004
1.897691e+003,-6.048381e-004
1.899620e+003,-5.705246e-004
1.901548e+003,-5.417680e-004
1.903477e+003,-5.324688e-004
1.905405e+003,-4.791851e-004
1.907334e+003,-4.458215e-004
1.909263e+003,-4.560824e-004
1.911191e+003,-4.609811e-004
1.913120e+003,-4.601536e-004
1.915048e+003,-4.764711e-004
1.916977e+003,-4.922253e-004
1.918905e+003,-4.579360e-004
1.920834e+003,-4.258286e-004
1.922762e+003,-4.162953e-004
1.924691e+003,-3.999094e-004
1.926620e+003,-4.157326e-004
1.928548e+003,-4.516802e-004
1.930477e+003,-4.586642e-004
1.932405e+003,-4.532359e-004
1.934334e+003,-4.374140e-004
1.936262e+003,-4.090789e-004
1.938191e+003,-3.801461e-004
1.940119e+003,-3.860387e-004
1.942048e+003,-4.321841e-004
1.943976e+003,-4.614114e-004
1.945905e+003,-4.118596e-004
1.947833e+003,-3.790205e-004
1.949762e+003,-3.477681e-004
1.951691e+003,-2.991967e-004
1.953619e+003,-2.625079e-004
1.955548e+003,-2.644616e-004
1.957476e+003,-2.293264e-004
1.959405e+003,-1.869020e-004
1.961333e+003,-1.892866e-004
1.963262e+003,-1.809404e-004
1.965190e+003,-1.844843e-004
1.967119e+003,-2.457850e-004
1.969047e+003,-2.585673e-004
1.970976e+003,-2.462155e-004
1.972905e+003,-1.965398e-004
1.974833e+003,-1.795163e-004
1.976762e+003,-2.341614e-004
1.978690e+003,-2.628722e-004
1.980619e+003,-2.537988e-004
1.982547e+003,-2.578057e-004
1.984476e+003,-2.710844e-004
1.986404e+003,-2.594614e-004
1.988333e+003,-2.359165e-004
1.990262e+003,-2.123704e-004
1.992190e+003,-2.306179e-004
1.994119e+003,-2.383009e-004
1.996047e+003,-2.165101e-004
1.997976e+003,-2.456857e-004
1.999904e+003,-2.650577e-004
2.001833e+003,-2.190270e-004
2.003761e+003,-1.937909e-004
2.005690e+003,-1.919693e-004
2.007619e+003,-1.881606e-004
2.009547e+003,-1.488789e-004
2.011476e+003,-1.369214e-004
2.013404e+003,-1.419230e-004
2.015333e+003,-1.264211e-004
2.017261e+003,-1.416249e-004
2.019190e+003,-1.779927e-004
2.021118e+003,-1.624258e-004
2.023047e+003,-1.226780e-004
2.024975e+003,-9.975513e-005
2.026904e+003,-7.977944e-005
2.028833e+003,-8.855826e-005
2.030761e+003,-1.206243e-004
2.032690e+003,-1.450366e-004
2.034618e+003,-1.341059e-004
2.036547e+003,-1.165830e-004
2.038475e+003,-6.921149e-005
2.040404e+003,-5.099029e-005
2.042332e+003,-1.137343e-004
2.044261e+003,-1.564308e-004
2.046189e+003,-1.297666e-004
2.048118e+003,-7.169614e-005
2.050046e+003,-2.339200e-005
2.051975e+003,1.179588e-005
2.053904e+003,3.876700e-006
2.055832e+003,-9.873832e-006
2.057761e+003,1.461236e-005
2.059689e+003,5.792216e-005
2.061618e+003,4.370600e-005
2.063546e+003,4.188345e-005
2.065475e+003,7.674521e-005
2.067403e+003,9.036592e-005
2.069332e+003,9.059791e-005
2.071260e+003,1.489631e-004
2.073189e+003,1.998774e-004
2.075118e+003,1.689833e-004
2.077046e+003,1.718008e-004
2.078975e+003,2.224858e-004
2.080903e+003,2.708227e-004
2.082832e+003,2.955236e-004
2.084760e+003,3.020887e-004
2.086689e+003,3.184354e-004
2.088617e+003,3.429733e-004
2.090546e+003,3.348491e-004
2.092475e+003,3.257635e-004
2.094403e+003,3.519267e-004
2.096332e+003,3.844919e-004
2.098260e+003,3.939767e-004
2.100189e+003,3.885047e-004
2.102117e+003,4.030638e-004
2.104046e+003,4.114545e-004
2.105974e+003,4.320176e-004
2.107903e+003,4.981909e-004
2.109832e+003,5.485821e-004
2.111760e+003,5.771807e-004
2.113688e+003,6.110237e-004
2.115617e+003,6.437411e-004
2.117546e+003,6.732420e-004
2.119474e+003,6.817375e-004
2.121403e+003,6.998575e-004
2.123331e+003,7.547199e-004
2.125260e+003,8.088257e-004
2.127188e+003,8.067343e-004
2.129117e+003,8.219714e-004
2.131045e+003,8.826262e-004
2.132974e+003,9.024147e-004
2.134903e+003,9.193154e-004
2.136831e+003,9.402345e-004
2.138760e+003,9.447506e-004
2.140688e+003,9.230010e-004
2.142617e+003,9.240636e-004
2.144545e+003,9.641434e-004
2.146474e+003,9.727443e-004
2.148402e+003,9.619185e-004
2.150331e+003,1.015984e-003
2.152260e+003,1.093806e-003
2.154188e+003,1.143137e-003
2.156117e+003,1.131509e-003
2.158045e+003,1.126593e-003
2.159974e+003,1.147987e-003
2.161902e+003,1.140313e-003
2.163831e+003,1.134831e-003
2.165759e+003,1.178153e-003
2.167688e+003,1.233475e-003
2.169616e+003,1.255938e-003
2.171545e+003,1.266538e-003
2.173474e+003,1.296347e-003
2.175402e+003,1.311003e-003
2.177331e+003,1.340250e-003
2.179259e+003,1.365511e-003
2.181188e+003,1.348028e-003
2.183116e+003,1.336960e-003
2.185045e+003,1.353911e-003
2.186973e+003,1.392202e-003
2.188902e+003,1.394263e-003
2.190831e+003,1.392402e-003
2.192759e+003,1.387349e-003
2.194688e+003,1.397653e-003
2.196616e+003,1.396590e-003
2.198545e+003,1.440071e-003
2.200473e+003,1.467265e-003
2.202402e+003,1.452205e-003
2.204330e+003,1.449346e-003
2.206259e+003,1.453801e-003
2.208188e+003,1.464007e-003
2.210116e+003,1.490439e-003
2.212044e+003,1.458821e-003
2.213973e+003,1.410318e-003
2.215902e+003,1.416103e-003
2.217830e+003,1.461048e-003
2.219759e+003,1.493364e-003
2.221687e+003,1.500812e-003
2.223616e+003,1.512084e-003
2.225544e+003,1.518634e-003
2.227473e+003,1.532832e-003
2.229401e+003,1.547263e-003
2.231330e+003,1.528675e-003
2.233259e+003,1.526182e-003
2.235187e+003,1.497487e-003
2.237116e+003,1.504569e-003
2.239044e+003,1.588199e-003
2.240973e+003,1.626511e-003
2.242901e+003,1.652686e-003
2.244830e+003,1.649326e-003
2.246758e+003,1.592056e-003
2.248687e+003,1.594085e-003
2.250615e+003,1.652087e-003
2.252544e+003,1.702845e-003
2.254473e+003,1.680592e-003
2.256401e+003,1.657043e-003
2.258330e+003,1.691502e-003
2.260258e+003,1.737508e-003
2.262187e+003,1.721041e-003
2.264115e+003,1.707835e-003
2.266044e+003,1.737408e-003
2.267972e+003,1.728925e-003
2.269901e+003,1.687311e-003
2.271830e+003,1.703278e-003
2.273758e+003,1.683586e-003
2.275687e+003,1.614970e-003
2.277615e+003,1.576925e-003
2.279544e+003,1.582612e-003
2.281472e+003,1.615502e-003
2.283401e+003,1.610447e-003
2.285329e+003,1.564787e-003
2.287258e+003,1.561529e-003
2.289187e+003,1.550854e-003
2.291115e+003,1.571338e-003
2.293043e+003,1.622885e-003
2.294972e+003,1.646965e-003
2.296901e+003,1.660302e-003
2.298829e+003,1.650091e-003
2.300758e+003,1.632231e-003
2.302686e+003,1.620857e-003
2.304615e+003,1.624216e-003
2.306543e+003,1.653949e-003
2.308472e+003,1.637852e-003
2.310400e+003,1.614006e-003
2.312329e+003,1.623883e-003
2.314258e+003,1.643572e-003
2.316186e+003,1.678430e-003
2.318115e+003,1.695560e-003
2.320043e+003,1.674705e-003
2.321972e+003,1.671977e-003
2.323900e+003,1.721806e-003
2.325829e+003,1.733050e-003
2.327757e+003,1.772007e-003
2.329686e+003,1.817722e-003
2.331615e+003,1.807141e-003
2.333543e+003,1.814760e-003
2.335472e+003,1.810202e-003
2.337400e+003,1.806343e-003
2.339329e+003,1.823578e-003
2.341257e+003,1.875720e-003
2.343186e+003,1.914723e-003
2.345114e+003,2.003791e-003
2.347043e+003,2.072701e-003
2.348971e+003,2.068640e-003
2.350900e+003,2.076297e-003
2.352829e+003,2.134929e-003
2.354757e+003,2.114186e-003
2.356686e+003,2.010016e-003
2.358614e+003,2.036913e-003
2.360543e+003,2.115484e-003
2.362471e+003,2.143886e-003
2.364400e+003,2.146317e-003
2.366328e+003,2.168627e-003
2.368257e+003,2.193304e-003
2.370186e+003,2.218380e-003
2.372114e+003,2.273268e-003
2.374042e+003,2.343754e-003
2.375971e+003,2.349250e-003
2.377900e+003,2.330762e-003
2.379828e+003,2.334193e-003
2.381757e+003,2.315738e-003
2.383685e+003,2.302214e-003
2.385614e+003,2.322667e-003
2.387542e+003,2.358545e-003
2.389471e+003,2.372671e-003
2.391399e+003,2.404821e-003
2.393328e+003,2.444871e-003
2.395257e+003,2.488991e-003
2.397185e+003,2.507853e-003
2.399114e+003,2.480227e-003
2.401042e+003,2.474395e-003
2.402971e+003,2.472929e-003
2.404899e+003,2.451936e-003
2.406828e+003,2.464498e-003
2.408756e+003,2.458567e-003
2.410685e+003,2.425079e-003
2.412614e+003,2.408919e-003
2.414542e+003,2.419015e-003
2.416471e+003,2.447604e-003
2.418399e+003,2.520683e-003
2.420328e+003,2.543180e-003
2.422256e+003,2.564144e-003
2.424185e+003,2.607576e-003
2.426113e+003,2.648078e-003
2.428042e+003,2.680949e-003
2.429970e+003,2.651245e-003
2.431899e+003,2.638444e-003
2.433828e+003,2.629943e-003
2.435756e+003,2.633310e-003
2.437685e+003,2.618309e-003
2.439613e+003,2.599109e-003
2.441542e+003,2.602342e-003
2.443470e+003,2.568610e-003
2.445399e+003,2.531848e-003
2.447327e+003,2.539414e-003
2.449256e+003,2.581843e-003
2.451185e+003,2.583676e-003
2.453113e+003,2.611376e-003
2.455042e+003,2.706754e-003
2.456970e+003,2.725926e-003
2.458899e+003,2.618843e-003
2.460827e+003,2.561644e-003
2.462756e+003,2.609509e-003
2.464684e+003,2.603842e-003
2.466613e+003,2.566877e-003
2.468542e+003,2.562944e-003
2.470470e+003,2.627810e-003
2.472398e+003,2.668313e-003
2.474327e+003,2.639910e-003
2.476256e+003,2.645811e-003
2.478184e+003,2.727160e-003
2.480113e+003,2.807056e-003
2.482041e+003,2.822997e-003
2.483970e+003,2.817361e-003
2.485898e+003,2.840340e-003
2.487827e+003,2.876127e-003
2.489755e+003,2.868289e-003
2.491684e+003,2.851513e-003
2.493613e+003,2.856415e-003
2.495541e+003,2.840706e-003
2.497470e+003,2.826966e-003
2.499398e+003,2.813593e-003
2.501327e+003,2.842074e-003
2.503255e+003,2.840673e-003
2.505184e+003,2.825632e-003
2.507112e+003,2.883599e-003
2.509041e+003,2.870390e-003
2.510969e+003,2.833036e-003
2.512898e+003,2.883865e-003
2.514827e+003,2.941039e-003
2.516755e+003,2.985543e-003
2.518684e+003,3.048336e-003
2.520612e+003,3.100759e-003
2.522541e+003,3.093451e-003
2.524469e+003,3.052306e-003
2.526398e+003,3.092984e-003
2.528326e+003,3.156526e-003
2.530255e+003,3.200518e-003
2.532184e+003,3.242377e-003
2.534112e+003,3.307110e-003
2.536041e+003,3.374124e-003
2.537969e+003,3.357027e-003
2.539898e+003,3.337794e-003
2.541826e+003,3.365876e-003
2.543755e+003,3.384609e-003
2.545683e+003,3.428757e-003
2.547612e+003,3.481561e-003
2.549541e+003,3.524082e-003
2.551469e+003,3.589392e-003
2.553397e+003,3.655212e-003
2.555326e+003,3.671753e-003
2.557255e+003,3.698486e-003
2.559183e+003,3.753461e-003
2.561112e+003,3.762485e-003
2.563040e+003,3.787653e-003
2.564969e+003,3.833814e-003
2.566897e+003,3.883424e-003
2.568826e+003,3.936216e-003
2.570754e+003,3.999581e-003
2.572683e+003,4.102423e-003
2.574612e+003,4.199970e-003
2.576540e+003,4.276658e-003
2.578469e+003,4.307109e-003
2.580397e+003,4.352054e-003
2.582326e+003,4.390544e-003
2.584254e+003,4.372437e-003
2.586183e+003,4.313099e-003
2.588111e+003,4.256447e-003
2.590040e+003,4.201375e-003
2.591969e+003,4.130253e-003
2.593897e+003,4.117141e-003
2.595826e+003,4.099212e-003
2.597754e+003,4.060313e-003
2.599683e+003,4.084261e-003
2.601611e+003,4.118579e-003
2.603540e+003,4.137813e-003
2.605468e+003,4.207631e-003
2.607397e+003,4.265883e-003
2.609325e+003,4.303094e-003
2.611254e+003,4.353627e-003
2.613183e+003,4.392385e-003
2.615111e+003,4.406777e-003
2.617040e+003,4.407513e-003
2.618968e+003,4.408116e-003
2.620897e+003,4.418827e-003
2.622825e+003,4.424083e-003
2.624754e+003,4.466663e-003
2.626682e+003,4.465658e-003
2.628611e+003,4.425623e-003
2.630540e+003,4.397472e-003
2.632468e+003,4.384988e-003
2.634396e+003,4.370997e-003
2.636325e+003,4.367550e-003
2.638254e+003,4.394125e-003
2.640182e+003,4.410158e-003
2.642111e+003,4.457356e-003
2.644039e+003,4.548353e-003
2.645968e+003,4.586994e-003
2.647896e+003,4.591749e-003
2.649825e+003,4.665258e-003
2.651753e+003,4.739650e-003
2.653682e+003,4.771909e-003
2.655611e+003,4.791005e-003
2.657539e+003,4.809431e-003
2.659468e+003,4.821057e-003
2.661396e+003,4.833553e-003
2.663325e+003,4.861062e-003
2.665253e+003,4.863742e-003
2.667182e+003,4.880731e-003
2.669110e+003,4.880329e-003
2.671039e+003,4.923289e-003
2.672968e+003,4.994172e-003
2.674896e+003,5.021020e-003
2.676825e+003,5.065905e-003
2.678753e+003,5.096177e-003
2.680682e+003,5.083639e-003
2.682610e+003,5.054474e-003
2.684539e+003,5.034897e-003
2.686467e+003,5.052463e-003
2.688396e+003,5.115320e-003
2.690324e+003,5.144489e-003
2.692253e+003,5.129770e-003
2.694182e+003,5.094836e-003
2.696110e+003,5.082164e-003
2.698039e+003,5.096747e-003
2.699967e+003,5.144758e-003
2.701896e+003,5.206824e-003
2.703824e+003,5.299856e-003
2.705753e+003,5.398813e-003
2.707681e+003,5.510343e-003
2.709610e+003,5.670675e-003
2.711539e+003,5.820320e-003
2.713467e+003,5.967833e-003
2.715396e+003,6.131392e-003
2.717324e+003,6.338281e-003
2.719253e+003,6.627486e-003
2.721181e+003,6.883925e-003
2.723110e+003,6.952806e-003
2.725038e+003,6.827846e-003
2.726967e+003,6.585232e-003
2.728896e+003,6.357445e-003
2.730824e+003,6.196221e-003
2.732752e+003,6.044699e-003
2.734681e+003,5.911570e-003
2.736610e+003,5.769716e-003
2.738538e+003,5.636838e-003
2.740467e+003,5.454977e-003
2.742395e+003,5.258771e-003
2.744324e+003,5.115924e-003
2.746252e+003,5.010026e-003
2.748181e+003,4.863072e-003
2.750109e+003,4.754556e-003
2.752038e+003,4.755293e-003
2.753967e+003,4.754891e-003
2.755895e+003,4.858214e-003
2.757824e+003,5.085717e-003
2.759752e+003,5.294423e-003
2.761681e+003,5.471150e-003
2.763609e+003,5.700217e-003
2.765538e+003,5.872105e-003
2.767466e+003,6.000721e-003
2.769395e+003,6.126116e-003
2.771323e+003,6.212052e-003
2.773252e+003,6.286844e-003
2.775181e+003,6.453314e-003
2.777109e+003,6.652114e-003
2.779038e+003,6.801727e-003
2.780966e+003,6.981493e-003
2.782895e+003,7.219343e-003
2.784823e+003,7.372892e-003
2.786752e+003,7.584150e-003
2.788680e+003,7.912348e-003
2.790609e+003,8.256767e-003
2.792538e+003,8.529478e-003
2.794466e+003,8.780788e-003
2.796395e+003,9.062523e-003
2.798323e+003,9.309572e-003
2.800252e+003,9.584097e-003
2.802180e+003,1.000504e-002
2.804109e+003,1.051679e-002
2.806037e+003,1.108994e-002
2.807966e+003,1.162991e-002
2.809895e+003,1.210528e-002
2.811823e+003,1.254771e-002
2.813751e+003,1.298587e-002
2.815680e+003,1.353023e-002
2.817609e+003,1.427715e-002
2.819537e+003,1.512699e-002
2.821466e+003,1.620665e-002
2.823394e+003,1.769263e-002
2.825323e+003,1.970237e-002
2.827251e+003,2.252591e-002
2.829180e+003,2.671606e-002
2.831108e+003,3.287499e-002
2.833037e+003,4.074125e-002
2.834966e+003,4.824979e-002
2.836894e+003,5.240330e-002
2.838823e+003,5.207053e-002
2.840751e+003,4.869479e-002
2.842680e+003,4.436269e-002
2.844608e+003,4.066734e-002
2.846537e+003,3.834634e-002
2.848465e+003,3.735301e-002
2.850394e+003,3.694239e-002
2.852323e+003,3.644262e-002
2.854251e+003,3.586120e-002
2.856180e+003,3.556291e-002
2.858108e+003,3.630071e-002
2.860037e+003,3.887395e-002
2.861965e+003,4.350731e-002
2.863894e+003,4.907696e-002
2.865822e+003,5.316071e-002
2.867751e+003,5.433237e-002
2.869679e+003,5.362649e-002
2.871608e+003,5.286475e-002
2.873537e+003,5.299264e-002
2.875465e+003,5.360860e-002
2.877394e+003,5.325794e-002
2.879322e+003,5.146838e-002
2.881251e+003,4.925900e-002
2.883179e+003,4.760825e-002
2.885108e+003,4.671797e-002
2.887036e+003,4.643510e-002
2.888965e+003,4.669557e-002
2.890894e+003,4.760806e-002
2.892822e+003,4.922798e-002
2.894750e+003,5.157497e-002
2.896679e+003,5.476700e-002
2.898608e+003,5.868373e-002
2.900536e+003,6.310737e-002
2.902465e+003,6.786933e-002
2.904393e+003,7.262690e-002
2.906322e+003,7.731692e-002
2.908250e+003,8.212714e-002
2.910179e+003,8.755691e-002
2.912107e+003,9.422853e-002
2.914036e+003,1.017229e-001
2.915965e+003,1.082280e-001
2.917893e+003,1.114412e-001
2.919822e+003,1.106616e-001
2.921750e+003,1.070620e-001
2.923679e+003,1.019550e-001
2.925607e+003,9.581458e-002
2.927536e+003,8.840796e-002
2.929464e+003,7.984280e-002
2.931393e+003,7.097188e-002
2.933322e+003,6.294356e-002
2.935250e+003,5.652434e-002
2.937179e+003,5.225753e-002
2.939107e+003,5.074896e-002
2.941036e+003,5.260563e-002
2.942964e+003,5.830886e-002
2.944893e+003,6.714560e-002
2.946821e+003,7.654468e-002
2.948750e+003,8.320777e-002
2.950678e+003,8.520802e-002
2.952607e+003,8.340932e-002
2.954536e+003,7.997276e-002
2.956464e+003,7.643767e-002
2.958393e+003,7.301223e-002
2.960321e+003,6.889063e-002
2.962250e+003,6.314918e-002
2.964178e+003,5.575294e-002
2.966107e+003,4.770002e-002
2.968035e+003,3.998792e-002
2.969964e+003,3.309996e-002
2.971893e+003,2.727830e-002
2.973821e+003,2.262601e-002
2.975750e+003,1.897463e-002
2.977678e+003,1.602141e-002
2.979607e+003,1.364131e-002
2.981535e+003,1.185136e-002
2.983464e+003,1.049431e-002
2.985392e+003,9.395294e-003
2.987321e+003,8.481564e-003
2.989250e+003,7.679852e-003
2.991178e+003,7.060021e-003
2.993106e+003,6.602691e-003
2.995035e+003,6.210607e-003
2.996964e+003,5.855951e-003
2.998892e+003,5.591793e-003
3.000821e+003,5.426022e-003
3.002749e+003,5.248944e-003
3.004678e+003,5.030137e-003
3.006606e+003,4.890884e-003
3.008535e+003,4.798945e-003
3.010463e+003,4.613549e-003
3.012392e+003,4.442125e-003
3.014321e+003,4.381574e-003
3.016249e+003,4.351485e-003
3.018178e+003,4.285960e-003
3.020106e+003,4.202780e-003
3.022035e+003,4.126741e-003
3.023963e+003,4.014228e-003
3.025892e+003,3.932471e-003
3.027820e+003,3.923677e-003
3.029749e+003,3.933073e-003
3.031677e+003,3.914550e-003
3.033606e+003,3.907930e-003
3.035535e+003,3.871522e-003
3.037463e+003,3.817502e-003
3.039392e+003,3.776322e-003
3.041320e+003,3.759076e-003
3.043249e+003,3.747545e-003
3.045177e+003,3.693908e-003
3.047106e+003,3.694977e-003
3.049034e+003,3.736015e-003
3.050963e+003,3.741697e-003
3.052892e+003,3.723683e-003
3.054820e+003,3.727259e-003
3.056749e+003,3.817335e-003
3.058677e+003,3.867745e-003
3.060606e+003,3.792065e-003
3.062534e+003,3.747980e-003
3.064463e+003,3.773982e-003
3.066391e+003,3.802560e-003
3.068320e+003,3.839931e-003
3.070249e+003,3.798248e-003
3.072177e+003,3.722447e-003
3.074105e+003,3.742766e-003
3.076034e+003,3.710449e-003
3.077963e+003,3.637804e-003
3.079891e+003,3.663533e-003
3.081820e+003,3.710784e-003
3.083748e+003,3.731704e-003
3.085677e+003,3.771944e-003
3.087605e+003,3.860858e-003
3.089534e+003,3.882555e-003
3.091462e+003,3.861092e-003
3.093391e+003,3.878309e-003
3.095320e+003,3.943806e-003
3.097248e+003,3.963165e-003
3.099177e+003,3.920902e-003
3.101105e+003,3.936951e-003
3.103034e+003,3.984198e-003
3.104962e+003,3.982092e-003
3.106891e+003,3.982460e-003
3.108819e+003,4.024629e-003
3.110748e+003,4.041919e-003
3.112677e+003,4.065899e-003
3.114605e+003,4.067604e-003
3.116534e+003,4.119750e-003
3.118462e+003,4.119215e-003
3.120391e+003,4.082722e-003
3.122319e+003,4.146042e-003
3.124248e+003,4.234330e-003
3.126176e+003,4.263943e-003
3.128105e+003,4.277093e-003
3.130033e+003,4.295531e-003
3.131962e+003,4.349979e-003
3.133891e+003,4.477107e-003
3.135819e+003,4.538710e-003
3.137748e+003,4.549190e-003
3.139676e+003,4.556724e-003
3.141605e+003,4.570118e-003
3.143533e+003,4.529369e-003
3.145462e+003,4.514403e-003
3.147390e+003,4.508075e-003
3.149319e+003,4.521936e-003
3.151248e+003,4.567372e-003
3.153176e+003,4.557561e-003
3.155104e+003,4.524681e-003
3.157033e+003,4.539246e-003
3.158962e+003,4.586157e-003
3.160890e+003,4.628452e-003
3.162819e+003,4.689607e-003
3.164747e+003,4.788190e-003
3.166676e+003,4.819683e-003
3.168604e+003,4.780418e-003
3.170533e+003,4.757739e-003
3.172461e+003,4.750637e-003
3.174390e+003,4.731007e-003
3.176319e+003,4.754858e-003
3.178247e+003,4.859286e-003
3.180176e+003,4.905662e-003
3.182104e+003,4.874934e-003
3.184033e+003,4.936459e-003
3.185961e+003,4.988742e-003
3.187890e+003,4.965784e-003
3.189818e+003,5.025445e-003
3.191747e+003,5.036406e-003
3.193676e+003,5.033054e-003
3.195604e+003,5.086589e-003
3.197532e+003,5.099060e-003
3.199461e+003,5.107039e-003
3.201390e+003,5.155319e-003
3.203318e+003,5.147339e-003
3.205247e+003,5.125881e-003
3.207175e+003,5.116729e-003
3.209104e+003,5.127256e-003
3.211032e+003,5.146333e-003
3.212961e+003,5.129770e-003
3.214889e+003,5.037345e-003
3.216818e+003,4.978352e-003
3.218747e+003,5.001915e-003
3.220675e+003,5.091484e-003
3.222604e+003,5.114885e-003
3.224532e+003,5.126418e-003
3.226461e+003,5.131212e-003
3.228389e+003,5.112705e-003
3.230318e+003,5.058697e-003
3.232246e+003,5.067347e-003
3.234175e+003,5.112001e-003
3.236104e+003,5.126552e-003
3.238032e+003,5.140701e-003
3.239961e+003,5.169503e-003
3.241889e+003,5.220238e-003
3.243818e+003,5.206858e-003
3.245746e+003,5.172252e-003
3.247675e+003,5.193076e-003
3.249603e+003,5.214369e-003
3.251532e+003,5.184290e-003
3.253460e+003,5.146602e-003
3.255389e+003,5.176980e-003
3.257318e+003,5.229695e-003
3.259246e+003,5.298951e-003
3.261175e+003,5.296872e-003
3.263103e+003,5.275406e-003
3.265032e+003,5.316929e-003
3.266960e+003,5.353961e-003
3.268889e+003,5.345005e-003
3.270817e+003,5.338699e-003
3.272746e+003,5.383113e-003
3.274675e+003,5.367077e-003
3.276603e+003,5.327663e-003
3.278531e+003,5.322464e-003
3.280460e+003,5.335981e-003
3.282389e+003,5.403410e-003
3.284317e+003,5.453300e-003
3.286246e+003,5.517893e-003
3.288174e+003,5.495209e-003
3.290103e+003,5.408006e-003
3.292031e+003,5.407872e-003
3.293960e+003,5.529404e-003
3.295888e+003,5.595083e-003
3.297817e+003,5.453434e-003
3.299746e+003,5.373653e-003
3.301674e+003,5.440382e-003
3.303603e+003,5.495477e-003
3.305531e+003,5.466553e-003
3.307460e+003,5.430082e-003
3.309388e+003,5.538163e-003
3.311317e+003,5.604514e-003
3.313245e+003,5.494101e-003
3.315174e+003,5.440885e-003
3.317103e+003,5.505007e-003
3.319031e+003,5.575583e-003
3.320960e+003,5.606226e-003
3.322888e+003,5.637879e-003
3.324817e+003,5.675811e-003
3.326745e+003,5.586726e-003
3.328674e+003,5.500410e-003
3.330602e+003,5.654528e-003
3.332531e+003,5.719353e-003
3.334459e+003,5.642343e-003
3.336388e+003,5.692731e-003
3.338317e+003,5.777607e-003
3.340245e+003,5.808433e-003
3.342174e+003,5.824450e-003
3.344102e+003,5.778648e-003
3.346031e+003,5.766291e-003
3.347959e+003,5.719857e-003
3.349888e+003,5.709516e-003
3.351816e+003,5.808298e-003
3.353745e+003,5.834962e-003
3.355674e+003,5.713982e-003
3.357602e+003,5.651574e-003
3.359531e+003,5.749201e-003
3.361459e+003,5.825458e-003
3.363388e+003,5.761456e-003
3.365316e+003,5.647613e-003
3.367245e+003,5.538733e-003
3.369173e+003,5.480780e-003
3.371102e+003,5.522122e-003
3.373031e+003,5.607300e-003
3.374959e+003,5.596895e-003
3.376887e+003,5.596291e-003
3.378816e+003,5.702063e-003
3.380745e+003,5.693939e-003
3.382673e+003,5.607166e-003
3.384602e+003,5.597063e-003
3.386530e+003,5.594647e-003
3.388459e+003,5.580953e-003
3.390387e+003,5.535713e-003
3.392316e+003,5.516920e-003
3.394244e+003,5.628144e-003
3.396173e+003,5.684237e-003
3.398102e+003,5.644156e-003
3.400030e+003,5.582195e-003
3.401959e+003,5.634253e-003
3.403887e+003,5.760617e-003
3.405816e+003,5.737584e-003
3.407744e+003,5.624385e-003
3.409673e+003,5.524001e-003
3.411601e+003,5.482492e-003
3.413530e+003,5.494337e-003
3.415458e+003,5.463399e-003
3.417387e+003,5.336686e-003
3.419316e+003,5.326590e-003
3.421244e+003,5.442428e-003
3.423173e+003,5.434644e-003
3.425101e+003,5.313508e-003
3.427030e+003,5.242506e-003
3.428958e+003,5.315219e-003
3.430887e+003,5.361173e-003
3.432815e+003,5.250957e-003
3.434744e+003,5.224128e-003
3.436673e+003,5.291002e-003
3.438601e+003,5.282013e-003
3.440530e+003,5.219735e-003
3.442458e+003,5.186604e-003
3.444387e+003,5.153643e-003
3.446315e+003,5.096378e-003
3.448244e+003,5.037445e-003
3.450172e+003,5.010529e-003
3.452101e+003,5.074386e-003
3.454030e+003,5.081091e-003
3.455958e+003,4.999669e-003
3.457886e+003,4.975135e-003
3.459815e+003,4.978520e-003
3.461744e+003,4.922820e-003
3.463672e+003,4.821157e-003
3.465601e+003,4.692588e-003
3.467529e+003,4.651761e-003
3.469458e+003,4.648512e-003
3.471386e+003,4.646201e-003
3.473315e+003,4.665358e-003
3.475243e+003,4.697578e-003
3.477172e+003,4.688435e-003
3.479101e+003,4.694631e-003
3.481029e+003,4.698885e-003
3.482958e+003,4.610904e-003
3.484886e+003,4.441121e-003
3.486815e+003,4.321466e-003
3.488743e+003,4.297873e-003
3.490672e+003,4.314404e-003
3.492600e+003,4.284320e-003
3.494529e+003,4.231319e-003
3.496458e+003,4.273412e-003
3.498386e+003,4.298308e-003
3.500315e+003,4.164642e-003
3.502243e+003,4.100851e-003
3.504172e+003,4.137947e-003
3.506100e+003,4.150826e-003
3.508029e+003,4.163003e-003
3.509957e+003,4.147681e-003
3.511886e+003,4.136843e-003
3.513814e+003,3.991154e-003
3.515743e+003,3.835519e-003
3.517672e+003,3.828967e-003
3.519600e+003,3.946313e-003
3.521529e+003,4.050146e-003
3.523457e+003,3.985469e-003
3.525386e+003,3.907763e-003
3.527314e+003,3.843809e-003
3.529243e+003,3.769002e-003
3.531171e+003,3.716799e-003
3.533100e+003,3.690031e-003
3.535029e+003,3.700992e-003
3.536957e+003,3.682780e-003
3.538885e+003,3.634430e-003
3.540814e+003,3.500399e-003
3.542743e+003,3.415366e-003
3.544671e+003,3.412527e-003
3.546600e+003,3.411392e-003
3.548528e+003,3.325307e-003
3.550457e+003,3.224585e-003
3.552385e+003,3.180591e-003
3.554314e+003,3.242744e-003
3.556242e+003,3.244380e-003
3.558171e+003,3.163836e-003
3.560100e+003,3.137503e-003
3.562028e+003,3.084508e-003
3.563957e+003,3.115076e-003
3.565885e+003,3.103963e-003
3.567814e+003,2.937970e-003
3.569742e+003,2.812459e-003
3.571671e+003,2.791682e-003
3.573599e+003,2.781979e-003
3.575528e+003,2.766739e-003
3.577457e+003,2.764272e-003
3.579385e+003,2.717023e-003
3.581314e+003,2.674648e-003
3.583242e+003,2.656712e-003
3.585171e+003,2.515351e-003
3.587099e+003,2.411685e-003
3.589028e+003,2.462432e-003
3.590956e+003,2.485259e-003
3.592885e+003,2.506386e-003
3.594813e+003,2.544880e-003
3.596742e+003,2.417916e-003
3.598671e+003,2.257847e-003
3.600599e+003,2.214051e-003
3.602528e+003,2.216349e-003
3.604456e+003,2.214317e-003
3.606385e+003,2.102632e-003
3.608313e+003,2.032486e-003
3.610242e+003,2.085652e-003
3.612170e+003,2.110390e-003
3.614099e+003,2.052127e-003
3.616028e+003,1.907535e-003
3.617956e+003,1.837553e-003
3.619885e+003,1.878948e-003
3.621813e+003,1.908034e-003
3.623742e+003,1.845872e-003
3.625670e+003,1.755406e-003
3.627599e+003,1.712692e-003
3.629527e+003,1.777363e-003
3.631456e+003,1.765985e-003
3.633385e+003,1.696359e-003
3.635313e+003,1.656943e-003
3.637241e+003,1.653883e-003
3.639170e+003,1.644836e-003
3.641099e+003,1.580184e-003
3.643027e+003,1.547130e-003
3.644956e+003,1.432026e-003
3.646884e+003,1.331044e-003
3.648813e+003,1.407227e-003
3.650741e+003,1.576460e-003
3.652670e+003,1.511219e-003
3.654598e+003,1.334733e-003
3.656527e+003,1.436680e-003
3.658456e+003,1.438375e-003
3.660384e+003,1.356271e-003
3.662313e+003,1.294187e-003
3.664241e+003,1.237894e-003
3.666170e+003,1.219320e-003
3.668098e+003,1.227427e-003
3.670027e+003,1.303825e-003
3.671955e+003,1.349357e-003
3.673884e+003,1.325527e-003
3.675813e+003,1.513613e-003
3.677741e+003,1.597676e-003
3.679670e+003,1.466999e-003
3.681598e+003,1.306350e-003
3.683527e+003,1.201544e-003
3.685455e+003,1.181708e-003
3.687384e+003,1.151342e-003
3.689312e+003,1.283553e-003
3.691241e+003,1.284882e-003
3.693169e+003,1.198786e-003
3.695098e+003,1.196261e-003
3.697027e+003,1.262152e-003
3.698955e+003,1.237329e-003
3.700884e+003,1.183104e-003
3.702812e+003,1.204866e-003
3.704741e+003,1.262052e-003
3.706669e+003,1.224337e-003
3.708598e+003,1.151342e-003
3.710526e+003,1.145894e-003
3.712455e+003,1.196593e-003
3.714384e+003,1.259128e-003
3.716312e+003,1.226796e-003
3.718240e+003,1.109750e-003
3.720169e+003,1.018541e-003
3.722098e+003,1.009507e-003
3.724026e+003,1.001105e-003
3.725955e+003,9.287455e-004
3.727883e+003,9.725118e-004
3.729812e+003,1.012264e-003
3.731740e+003,9.808803e-004
3.733669e+003,9.781573e-004
3.735597e+003,9.595608e-004
3.737526e+003,1.035180e-003
3.739455e+003,1.015419e-003
3.741383e+003,8.798705e-004
3.743312e+003,8.461726e-004
3.745240e+003,1.096363e-003
3.747169e+003,1.036044e-003
3.749097e+003,9.217725e-004
3.751026e+003,1.009341e-003
3.752954e+003,1.082711e-003
3.754883e+003,1.007747e-003
3.756812e+003,9.388399e-004
3.758740e+003,9.496319e-004
3.760669e+003,9.272181e-004
3.762597e+003,9.087897e-004
3.764526e+003,8.850499e-004
3.766454e+003,8.979656e-004
3.768383e+003,8.431847e-004
3.770311e+003,8.364454e-004
3.772240e+003,8.481977e-004
3.774168e+003,9.152645e-004
3.776097e+003,8.889345e-004
3.778026e+003,7.874149e-004
3.779954e+003,7.869833e-004
3.781883e+003,8.420227e-004
3.783811e+003,7.974065e-004
3.785740e+003,7.869170e-004
3.787668e+003,8.364454e-004
3.789597e+003,8.612118e-004
3.791525e+003,7.982695e-004
3.793454e+003,8.026845e-004
3.795383e+003,8.326609e-004
3.797311e+003,8.159296e-004
3.799240e+003,7.148585e-004
3.801168e+003,6.636515e-004
3.803097e+003,7.118715e-004
3.805025e+003,6.335208e-004
3.806954e+003,6.004392e-004
3.808882e+003,6.171954e-004
3.810811e+003,5.888596e-004
3.812740e+003,5.918457e-004
3.814668e+003,6.428784e-004
3.816596e+003,7.435676e-004
3.818525e+003,6.394273e-004
3.820454e+003,5.036974e-004
3.822382e+003,5.818257e-004
3.824311e+003,5.231701e-004
3.826239e+003,5.397242e-004
3.828168e+003,6.985632e-004
3.830096e+003,6.601671e-004
3.832025e+003,5.504732e-004
3.833953e+003,5.235351e-004
3.835882e+003,4.279381e-004
3.837811e+003,4.758335e-004
3.839739e+003,5.043941e-004
3.841668e+003,3.748746e-004
3.843596e+003,4.346710e-004
3.845525e+003,4.826002e-004
3.847453e+003,4.100284e-004
3.849382e+003,2.341883e-004
3.851310e+003,1.160178e-004
3.853239e+003,2.223532e-004
3.855167e+003,4.099289e-004
3.857096e+003,3.746425e-004
3.859025e+003,3.098806e-004
3.860953e+003,3.153849e-004
3.862882e+003,3.702650e-004
3.864810e+003,4.422000e-004
3.866739e+003,4.084697e-004
3.868667e+003,3.208560e-004
3.870596e+003,3.604823e-004
3.872524e+003,3.353134e-004
3.874453e+003,2.886603e-004
3.876382e+003,1.910929e-004
3.878310e+003,1.335507e-004
3.880239e+003,1.900653e-004
3.882167e+003,1.953359e-004
3.884096e+003,1.610944e-004
3.886024e+003,2.374372e-004
3.887953e+003,2.799735e-004
3.889881e+003,2.133693e-004
3.891810e+003,1.973912e-004
3.893739e+003,1.452176e-004
3.895667e+003,7.813709e-005
3.897595e+003,2.799917e-005
3.899524e+003,5.981106e-005
3.901453e+003,5.020097e-005
3.903381e+003,1.931757e-005
3.905310e+003,8.579250e-005
3.907238e+003,1.292751e-004
3.909167e+003,8.536167e-005
3.911095e+003,-7.620823e-007
3.913024e+003,-3.054851e-005
3.914952e+003,-2.077455e-005
3.916881e+003,7.587762e-006
3.918810e+003,4.373715e-006
3.920738e+003,-1.050336e-005
3.922667e+003,-9.008211e-005
3.924595e+003,-1.301973e-004
3.926524e+003,-9.084403e-005
3.928452e+003,-1.067448e-004
3.930381e+003,-3.147620e-005
3.932309e+003,6.295513e-006
3.934238e+003,-8.282720e-005
3.936167e+003,-1.854447e-004
3.938095e+003,-1.731902e-004
3.940024e+003,-1.398031e-004
3.941952e+003,-1.336422e-004
3.943881e+003,-1.694144e-004
3.945809e+003,-2.273725e-004
3.947738e+003,-2.117411e-004
3.949666e+003,-1.766679e-004
3.951595e+003,-1.561658e-004
3.953523e+003,-1.372195e-004
3.955452e+003,-2.626735e-004
3.957380e+003,-3.818013e-004
3.959309e+003,-3.085671e-004
3.961238e+003,-2.921108e-004
3.963166e+003,-3.600840e-004
3.965095e+003,-3.509134e-004
3.967023e+003,-2.739983e-004
3.968952e+003,-2.358503e-004
3.970880e+003,-2.077670e-004
3.972809e+003,-2.477719e-004
3.974737e+003,-2.417118e-004
3.976666e+003,-1.582525e-004
3.978594e+003,-1.603060e-004
3.980523e+003,-1.947182e-004
3.982452e+003,-1.982951e-004
3.984380e+003,-3.245260e-004
3.986309e+003,-3.172088e-004
3.988237e+003,-1.772309e-004
3.990166e+003,-2.159802e-004
3.992094e+003,-3.092293e-004
3.994023e+003,-2.890977e-004
3.995951e+003,-2.861507e-004
3.997880e+003,-3.533633e-004
3.999809e+003,-3.193278e-004
4.001737e+003,0.000000e+000
