3.992094e+002,0.000000e+000
4.011380e+002,0.000000e+000
4.030665e+002,0.000000e+000
4.049951e+002,0.000000e+000
4.069236e+002,0.000000e+000
4.088522e+002,0.000000e+000
4.107807e+002,0.000000e+000
4.127093e+002,0.000000e+000
4.146378e+002,0.000000e+000
4.165664e+002,0.000000e+000
4.184949e+002,0.000000e+000
4.204235e+002,0.000000e+000
4.223520e+002,0.000000e+000
4.242806e+002,0.000000e+000
4.262091e+002,0.000000e+000
4.281377e+002,0.000000e+000
4.300662e+002,0.000000e+000
4.319948e+002,0.000000e+000
4.339233e+002,0.000000e+000
4.358519e+002,0.000000e+000
4.377804e+002,0.000000e+000
4.397090e+002,0.000000e+000
4.416375e+002,0.000000e+000
4.435660e+002,0.000000e+000
4.454946e+002,0.000000e+000
4.474232e+002,0.000000e+000
4.493517e+002,0.000000e+000
4.512802e+002,0.000000e+000
4.532088e+002,0.000000e+000
4.551373e+002,0.000000e+000
4.570659e+002,0.000000e+000
4.589944e+002,0.000000e+000
4.609230e+002,0.000000e+000
4.628515e+002,0.000000e+000
4.647801e+002,0.000000e+000
4.667086e+002,0.000000e+000
4.686372e+002,0.000000e+000
4.705657e+002,0.000000e+000
4.724943e+002,0.000000e+000
4.744228e+002,0.000000e+000
4.763514e+002,0.000000e+000
4.782799e+002,0.000000e+000
4.802085e+002,0.000000e+000
4.821370e+002,0.000000e+000
4.840656e+002,0.000000e+000
4.859941e+002,0.000000e+000
4.879226e+002,0.000000e+000
4.898512e+002,0.000000e+000
4.917798e+002,0.000000e+000
4.937083e+002,0.000000e+000
4.956368e+002,0.000000e+000
4.975654e+002,0.000000e+000
4.994939e+002,0.000000e+000
5.014225e+002,0.000000e+000
5.033510e+002,0.000000e+000
5.052796e+002,0.000000e+000
5.072081e+002,0.000000e+000
5.091367e+002,0.000000e+000
5.110652e+002,0.000000e+000
5.129938e+002,0.000000e+000
5.149223e+002,0.000000e+000
5.168509e+002,0.000000e+000
5.187794e+002,0.000000e+000
5.207079e+002,0.000000e+000
5.226365e+002,0.000000e+000
5.245651e+002,0.000000e+000
5.264936e+002,0.000000e+000
5.284221e+002,0.000000e+000
5.303507e+002,0.000000e+000
5.322792e+002,0.000000e+000
5.342078e+002,0.000000e+000
5.361364e+002,0.000000e+000
5.380649e+002,0.000000e+000
5.399934e+002,0.000000e+000
5.419220e+002,0.000000e+000
5.438505e+002,0.000000e+000
5.457791e+002,0.000000e+000
5.477076e+002,0.000000e+000
5.496362e+002,0.000000e+000
5.515647e+002,0.000000e+000
5.534933e+002,0.000000e+000
5.554218e+002,0.000000e+000
5.573503e+002,0.000000e+000
5.592789e+002,0.000000e+000
5.612075e+002,0.000000e+000
5.631360e+002,0.000000e+000
5.650646e+002,0.000000e+000
5.669931e+002,0.000000e+000
5.689216e+002,0.000000e+000
5.708502e+002,0.000000e+000
5.727787e+002,0.000000e+000
5.747073e+002,0.000000e+000
5.766359e+002,0.000000e+000
5.785644e+002,0.000000e+000
5.804929e+002,0.000000e+000
5.824215e+002,0.000000e+000
5.843500e+002,0.000000e+000
5.862786e+002,0.000000e+000
5.882072e+002,0.000000e+000
5.901357e+002,0.000000e+000
5.920642e+002,0.000000e+000
5.939928e+002,0.000000e+000
5.959213e+002,0.000000e+000
5.978499e+002,0.000000e+000
5.997784e+002,0.000000e+000
6.017070e+002,0.000000e+000
6.036355e+002,0.000000e+000
6.055641e+002,0.000000e+000
6.074926e+002,0.000000e+000
6.094211e+002,0.000000e+000
6.113497e+002,0.000000e+000
6.132783e+002,0.000000e+000
6.152068e+002,0.000000e+000
6.171354e+002,0.000000e+000
6.190639e+002,0.000000e+000
6.209924e+002,0.000000e+000
6.229210e+002,0.000000e+000
6.248495e+002,0.000000e+000
6.267781e+002,0.000000e+000
6.287067e+002,0.000000e+000
6.306352e+002,0.000000e+000
6.325637e+002,0.000000e+000
6.344923e+002,0.000000e+000
6.364208e+002,0.000000e+000
6.383494e+002,0.000000e+000
6.402780e+002,0.000000e+000
6.422065e+002,0.000000e+000
6.441350e+002,0.000000e+000
6.460636e+002,0.000000e+000
6.479921e+002,0.000000e+000
6.499207e+002,0.000000e+000
6.518492e+002,0.000000e+000
6.537778e+002,0.000000e+000
6.557063e+002,0.000000e+000
6.576349e+002,0.000000e+000
6.595634e+002,0.000000e+000
6.614919e+002,0.000000e+000
6.634205e+002,0.000000e+000
6.653491e+002,0.000000e+000
6.672776e+002,0.000000e+000
6.692062e+002,0.000000e+000
6.711347e+002,0.000000e+000
6.730632e+002,0.000000e+000
6.749918e+002,-1.318268e-002
6.769203e+002,-1.301888e-002
6.788489e+002,-1.297370e-002
6.807775e+002,-1.303711e-002
6.827060e+002,-1.318033e-002
6.846345e+002,-1.298305e-002
6.865631e+002,-1.278157e-002
6.884916e+002,-1.253718e-002
6.904202e+002,-1.234234e-002
6.923488e+002,-1.229529e-002
6.942773e+002,-1.223679e-002
6.962058e+002,-1.226308e-002
6.981344e+002,-1.227716e-002
7.000629e+002,-1.208636e-002
7.019915e+002,-1.174329e-002
7.039200e+002,-1.134950e-002
7.058486e+002,-1.115782e-002
7.077771e+002,-1.062772e-002
7.097057e+002,-9.886983e-003
7.116342e+002,-8.797048e-003
7.135627e+002,-7.097513e-003
7.154913e+002,-4.326459e-003
7.174199e+002,3.000993e-004
7.193484e+002,4.283818e-003
7.212770e+002,3.141841e-003
7.232055e+002,-3.842511e-004
7.251340e+002,-2.165534e-003
7.270626e+002,-1.709660e-003
7.289911e+002,1.463446e-004
7.309197e+002,-8.099348e-004
7.328483e+002,-5.287190e-003
7.347768e+002,-8.488834e-003
7.367053e+002,-9.895922e-003
7.386339e+002,-1.059322e-002
7.405624e+002,-1.107181e-002
7.424910e+002,-1.108131e-002
7.444196e+002,-1.120267e-002
7.463481e+002,-1.154420e-002
7.482766e+002,-1.187173e-002
7.502052e+002,-1.202378e-002
7.521337e+002,-1.212474e-002
7.540623e+002,-1.222265e-002
7.559908e+002,-1.222881e-002
7.579194e+002,-1.214433e-002
7.598479e+002,-1.216012e-002
7.617765e+002,-1.231990e-002
7.637050e+002,-1.244497e-002
7.656335e+002,-1.224849e-002
7.675621e+002,-1.234801e-002
7.694907e+002,-1.235912e-002
7.714192e+002,-1.210782e-002
7.733478e+002,-1.200631e-002
7.752763e+002,-1.201788e-002
7.772048e+002,-1.204892e-002
7.791334e+002,-1.199023e-002
7.810620e+002,-1.174329e-002
7.829905e+002,-1.170201e-002
7.849191e+002,-1.148228e-002
7.868476e+002,-1.117280e-002
7.887761e+002,-1.104009e-002
7.907047e+002,-1.092938e-002
7.926332e+002,-1.077471e-002
7.945618e+002,-1.046715e-002
7.964904e+002,-1.008868e-002
7.984189e+002,-9.814233e-003
8.003474e+002,-9.557339e-003
8.022760e+002,-8.814548e-003
8.042045e+002,-7.643722e-003
8.061331e+002,-6.337437e-003
8.080616e+002,-5.398730e-003
8.099902e+002,-5.506217e-003
8.119187e+002,-6.614581e-003
8.138473e+002,-7.989589e-003
8.157758e+002,-8.920122e-003
8.177043e+002,-9.440540e-003
8.196329e+002,-9.663123e-003
8.215615e+002,-9.800109e-003
8.234900e+002,-9.863436e-003
8.254186e+002,-9.718984e-003
8.273471e+002,-9.507162e-003
8.292756e+002,-9.239026e-003
8.312042e+002,-8.950504e-003
8.331328e+002,-8.633110e-003
8.350613e+002,-7.992485e-003
8.369899e+002,-6.587887e-003
8.389184e+002,-3.529930e-003
8.408469e+002,-7.604889e-004
8.427755e+002,-2.135267e-003
8.447040e+002,-5.682360e-003
8.466326e+002,-7.817796e-003
8.485612e+002,-8.499199e-003
8.504896e+002,-8.786040e-003
8.524182e+002,-9.025605e-003
8.543468e+002,-9.162274e-003
8.562753e+002,-9.186768e-003
8.582039e+002,-9.225954e-003
8.601324e+002,-9.351113e-003
8.620609e+002,-9.478634e-003
8.639895e+002,-9.477921e-003
8.659181e+002,-9.392424e-003
8.678466e+002,-9.423584e-003
8.697751e+002,-9.409349e-003
8.717037e+002,-9.343621e-003
8.736322e+002,-9.417585e-003
8.755608e+002,-9.617169e-003
8.774894e+002,-9.801372e-003
8.794178e+002,-9.795120e-003
8.813464e+002,-9.688397e-003
8.832750e+002,-9.712342e-003
8.852035e+002,-9.710107e-003
8.871321e+002,-9.516692e-003
8.890607e+002,-9.285311e-003
8.909891e+002,-9.092486e-003
8.929177e+002,-8.694042e-003
8.948463e+002,-7.757588e-003
8.967748e+002,-6.281954e-003
8.987034e+002,-5.328628e-003
9.006320e+002,-5.864774e-003
9.025604e+002,-7.247987e-003
9.044890e+002,-8.565997e-003
9.064176e+002,-9.473674e-003
9.083461e+002,-9.896634e-003
9.102747e+002,-9.983165e-003
9.122032e+002,-1.002079e-002
9.141317e+002,-1.016035e-002
9.160603e+002,-1.027870e-002
9.179889e+002,-1.037273e-002
9.199174e+002,-1.035600e-002
9.218459e+002,-1.031676e-002
9.237745e+002,-1.029725e-002
9.257030e+002,-1.031048e-002
9.276316e+002,-1.028806e-002
9.295602e+002,-1.024612e-002
9.314886e+002,-1.021084e-002
9.334172e+002,-1.013695e-002
9.353458e+002,-9.878367e-003
9.372743e+002,-9.537633e-003
9.392029e+002,-9.285505e-003
9.411315e+002,-9.325624e-003
9.430599e+002,-9.473674e-003
9.449885e+002,-9.612406e-003
9.469171e+002,-9.748598e-003
9.488456e+002,-9.814557e-003
9.507742e+002,-9.811576e-003
9.527028e+002,-9.836552e-003
9.546312e+002,-9.826445e-003
9.565598e+002,-9.618919e-003
9.584884e+002,-9.259040e-003
9.604169e+002,-8.903794e-003
9.623455e+002,-8.462383e-003
9.642740e+002,-7.817341e-003
9.662025e+002,-6.665519e-003
9.681311e+002,-4.528035e-003
9.700597e+002,-1.027860e-003
9.719882e+002,2.198998e-003
9.739167e+002,2.366840e-003
9.758453e+002,-3.170764e-004
9.777738e+002,-3.675699e-003
9.797024e+002,-6.231200e-003
9.816310e+002,-7.663255e-003
9.835594e+002,-8.326697e-003
9.854880e+002,-8.474926e-003
9.874166e+002,-8.301570e-003
9.893451e+002,-7.741119e-003
9.912737e+002,-6.641014e-003
9.932023e+002,-4.679894e-003
9.951307e+002,-1.874021e-003
9.970593e+002,1.746515e-004
9.989879e+002,-6.252198e-004
1.000916e+003,-3.414556e-003
1.002845e+003,-5.817208e-003
1.004774e+003,-7.150512e-003
1.006702e+003,-7.835402e-003
1.008631e+003,-8.219126e-003
1.010559e+003,-8.468947e-003
1.012488e+003,-8.618298e-003
1.014416e+003,-8.760777e-003
1.016345e+003,-8.808379e-003
1.018273e+003,-8.707260e-003
1.020202e+003,-8.618850e-003
1.022130e+003,-8.594682e-003
1.024059e+003,-8.594032e-003
1.025988e+003,-8.593220e-003
1.027916e+003,-8.463521e-003
1.029845e+003,-8.304106e-003
1.031773e+003,-8.140925e-003
1.033702e+003,-7.959856e-003
1.035630e+003,-7.779004e-003
1.037559e+003,-7.540149e-003
1.039487e+003,-7.277769e-003
1.041416e+003,-7.074922e-003
1.043344e+003,-6.806259e-003
1.045273e+003,-6.567718e-003
1.047202e+003,-6.503125e-003
1.049130e+003,-6.532175e-003
1.051059e+003,-6.534133e-003
1.052987e+003,-6.505769e-003
1.054916e+003,-6.331037e-003
1.056844e+003,-6.220944e-003
1.058773e+003,-6.168681e-003
1.060701e+003,-6.008813e-003
1.062630e+003,-5.943091e-003
1.064558e+003,-5.995251e-003
1.066487e+003,-6.028028e-003
1.068416e+003,-6.057142e-003
1.070344e+003,-6.059985e-003
1.072273e+003,-6.003062e-003
1.074201e+003,-5.925180e-003
1.076130e+003,-5.808413e-003
1.078058e+003,-5.665256e-003
1.079987e+003,-5.613089e-003
1.081915e+003,-5.586922e-003
1.083844e+003,-5.521038e-003
1.085773e+003,-5.524047e-003
1.087701e+003,-5.558659e-003
1.089630e+003,-5.504974e-003
1.091558e+003,-5.357822e-003
1.093487e+003,-5.168614e-003
1.095415e+003,-4.884091e-003
1.097344e+003,-4.390195e-003
1.099272e+003,-3.793500e-003
1.101201e+003,-3.342686e-003
1.103129e+003,-3.298461e-003
1.105058e+003,-3.655460e-003
1.106987e+003,-4.092689e-003
1.108915e+003,-4.370482e-003
1.110844e+003,-4.541380e-003
1.112772e+003,-4.620101e-003
1.114701e+003,-4.673436e-003
1.116629e+003,-4.703297e-003
1.118558e+003,-4.694939e-003
1.120486e+003,-4.715523e-003
1.122415e+003,-4.802993e-003
1.124344e+003,-4.974542e-003
1.126272e+003,-5.151032e-003
1.128201e+003,-5.324275e-003
1.130129e+003,-5.448468e-003
1.132058e+003,-5.388520e-003
1.133986e+003,-5.230951e-003
1.135915e+003,-4.937492e-003
1.137843e+003,-4.466516e-003
1.139772e+003,-3.899547e-003
1.141700e+003,-3.246864e-003
1.143629e+003,-2.501196e-003
1.145557e+003,-1.705799e-003
1.147486e+003,-8.455522e-004
1.149415e+003,4.373914e-005
1.151343e+003,8.088257e-004
1.153272e+003,1.273916e-003
1.155200e+003,1.500613e-003
1.157129e+003,1.761161e-003
1.159057e+003,2.207091e-003
1.160986e+003,2.833469e-003
1.162914e+003,3.730133e-003
1.164843e+003,4.916352e-003
1.166771e+003,5.847186e-003
1.168700e+003,5.577395e-003
1.170629e+003,3.835419e-003
1.172557e+003,1.599938e-003
1.174486e+003,-7.981257e-005
1.176414e+003,-1.021910e-003
1.178343e+003,-1.470944e-003
1.180271e+003,-1.652725e-003
1.182200e+003,-1.939900e-003
1.184128e+003,-2.495167e-003
1.186057e+003,-3.069960e-003
1.187986e+003,-3.510506e-003
1.189914e+003,-3.759044e-003
1.191843e+003,-3.804109e-003
1.193771e+003,-3.718802e-003
1.195700e+003,-3.562631e-003
1.197628e+003,-3.519906e-003
1.199557e+003,-3.714761e-003
1.201485e+003,-3.953988e-003
1.203414e+003,-4.153834e-003
1.205343e+003,-4.252935e-003
1.207271e+003,-4.222124e-003
1.209200e+003,-4.180088e-003
1.211128e+003,-4.130532e-003
1.213057e+003,-3.948538e-003
1.214985e+003,-3.665941e-003
1.216914e+003,-3.477441e-003
1.218842e+003,-3.331540e-003
1.220771e+003,-3.321741e-003
1.222699e+003,-3.554349e-003
1.224628e+003,-3.851371e-003
1.226557e+003,-4.052905e-003
1.228485e+003,-4.124165e-003
1.230414e+003,-4.115566e-003
1.232342e+003,-4.084122e-003
1.234271e+003,-4.086026e-003
1.236199e+003,-4.091212e-003
1.238128e+003,-4.039184e-003
1.240056e+003,-3.939049e-003
1.241985e+003,-3.818167e-003
1.243913e+003,-3.688282e-003
1.245842e+003,-3.625987e-003
1.247771e+003,-3.526743e-003
1.249699e+003,-3.263998e-003
1.251628e+003,-2.781885e-003
1.253556e+003,-2.138696e-003
1.255485e+003,-1.729363e-003
1.257413e+003,-1.967476e-003
1.259342e+003,-2.558514e-003
1.261270e+003,-3.000929e-003
1.263199e+003,-3.151447e-003
1.265127e+003,-3.227394e-003
1.267056e+003,-3.366984e-003
1.268985e+003,-3.498641e-003
1.270913e+003,-3.563880e-003
1.272842e+003,-3.553791e-003
1.274770e+003,-3.527827e-003
1.276699e+003,-3.539429e-003
1.278627e+003,-3.475896e-003
1.280556e+003,-3.335288e-003
1.282484e+003,-3.140658e-003
1.284413e+003,-2.907894e-003
1.286342e+003,-2.711294e-003
1.288270e+003,-2.503864e-003
1.290199e+003,-2.239214e-003
1.292127e+003,-1.953820e-003
1.294056e+003,-1.665169e-003
1.295984e+003,-1.508752e-003
1.297913e+003,-1.513507e-003
1.299841e+003,-1.471703e-003
1.301770e+003,-1.204143e-003
1.303698e+003,-9.915960e-004
1.305627e+003,-1.365360e-003
1.307556e+003,-2.097942e-003
1.309484e+003,-2.597217e-003
1.311413e+003,-2.792683e-003
1.313341e+003,-2.874519e-003
1.315270e+003,-2.872610e-003
1.317198e+003,-2.749686e-003
1.319127e+003,-2.579332e-003
1.321055e+003,-2.413623e-003
1.322984e+003,-2.190129e-003
1.324912e+003,-1.825917e-003
1.326841e+003,-1.420021e-003
1.328770e+003,-1.072152e-003
1.330698e+003,-9.872984e-004
1.332627e+003,-1.166705e-003
1.334555e+003,-1.333319e-003
1.336484e+003,-1.292720e-003
1.338412e+003,-1.055427e-003
1.340341e+003,-7.396505e-004
1.342269e+003,-3.599846e-004
1.344198e+003,1.764746e-004
1.346126e+003,8.146350e-004
1.348055e+003,1.642541e-003
1.349984e+003,2.734295e-003
1.351912e+003,4.163471e-003
1.353841e+003,6.154143e-003
1.355769e+003,8.676258e-003
1.357698e+003,1.072221e-002
1.359626e+003,1.102628e-002
1.361555e+003,9.906996e-003
1.363483e+003,9.044152e-003
1.365412e+003,9.448726e-003
1.367341e+003,1.173400e-002
1.369269e+003,1.714055e-002
1.371198e+003,2.766551e-002
1.373126e+003,4.423750e-002
1.375055e+003,6.095643e-002
1.376983e+003,6.307032e-002
1.378912e+003,4.721082e-002
1.380840e+003,2.775762e-002
1.382769e+003,1.419535e-002
1.384698e+003,6.608746e-003
1.386626e+003,2.742264e-003
1.388555e+003,8.942801e-004
1.390483e+003,-9.045499e-006
1.392412e+003,-4.887171e-004
1.394340e+003,-7.488460e-004
1.396269e+003,-9.300699e-004
1.398197e+003,-1.101402e-003
1.400126e+003,-1.229750e-003
1.402054e+003,-1.299691e-003
1.403983e+003,-1.282975e-003
1.405911e+003,-1.237713e-003
1.407840e+003,-1.199517e-003
1.409769e+003,-1.131642e-003
1.411697e+003,-9.515604e-004
1.413626e+003,-6.909575e-004
1.415554e+003,-4.310918e-004
1.417483e+003,-2.250543e-004
1.419411e+003,-3.810247e-005
1.421340e+003,1.606635e-004
1.423268e+003,4.332779e-004
1.425197e+003,8.809330e-004
1.427125e+003,1.615369e-003
1.429054e+003,2.924127e-003
1.430983e+003,5.232444e-003
1.432911e+003,8.647425e-003
1.434840e+003,1.170088e-002
1.436768e+003,1.278654e-002
1.438697e+003,1.284060e-002
1.440625e+003,1.363963e-002
1.442554e+003,1.590086e-002
1.444482e+003,1.971243e-002
1.446411e+003,2.507037e-002
1.448340e+003,3.114874e-002
1.450268e+003,3.633414e-002
1.452197e+003,3.999784e-002
1.454125e+003,4.240591e-002
1.456054e+003,4.388394e-002
1.457982e+003,4.479671e-002
1.459911e+003,4.567702e-002
1.461839e+003,4.605027e-002
1.463768e+003,4.321795e-002
1.465697e+003,3.722239e-002
1.467625e+003,3.064934e-002
1.469554e+003,2.434368e-002
1.471482e+003,1.950843e-002
1.473411e+003,1.445692e-002
1.475339e+003,7.665586e-003
1.477268e+003,2.703854e-003
1.479196e+003,3.322627e-004
1.481125e+003,-1.017976e-003
1.483053e+003,-1.945937e-003
1.484982e+003,-2.614113e-003
1.486911e+003,-3.129342e-003
1.488839e+003,-3.552410e-003
1.490768e+003,-3.835935e-003
1.492696e+003,-4.103717e-003
1.494625e+003,-4.344797e-003
1.496553e+003,-4.510623e-003
1.498482e+003,-4.618363e-003
1.500410e+003,-4.747085e-003
1.502339e+003,-4.868790e-003
1.504267e+003,-4.971364e-003
1.506196e+003,-4.989020e-003
1.508125e+003,-4.973657e-003
1.510053e+003,-5.013553e-003
1.511982e+003,-5.062550e-003
1.513910e+003,-5.104206e-003
1.515839e+003,-5.112556e-003
1.517767e+003,-5.069525e-003
1.519696e+003,-5.094938e-003
1.521624e+003,-5.048991e-003
1.523553e+003,-4.950137e-003
1.525481e+003,-4.916755e-003
1.527410e+003,-4.853620e-003
1.529339e+003,-4.762849e-003
1.531267e+003,-4.674157e-003
1.533196e+003,-4.531740e-003
1.535124e+003,-4.365824e-003
1.537053e+003,-4.266223e-003
1.538981e+003,-4.082283e-003
1.540910e+003,-3.847725e-003
1.542838e+003,-3.746265e-003
1.544767e+003,-3.729085e-003
1.546696e+003,-3.756678e-003
1.548624e+003,-3.794453e-003
1.550553e+003,-3.808379e-003
1.552481e+003,-3.771197e-003
1.554410e+003,-3.686114e-003
1.556338e+003,-3.712495e-003
1.558267e+003,-3.738841e-003
1.560195e+003,-3.562795e-003
1.562124e+003,-3.461038e-003
1.564052e+003,-3.438916e-003
1.565981e+003,-3.386119e-003
1.567910e+003,-3.296816e-003
1.569838e+003,-3.132467e-003
1.571767e+003,-2.979934e-003
1.573695e+003,-2.952489e-003
1.575624e+003,-2.822411e-003
1.577552e+003,-2.660022e-003
1.579481e+003,-2.598929e-003
1.581409e+003,-2.554101e-003
1.583338e+003,-2.543757e-003
1.585266e+003,-2.533513e-003
1.587195e+003,-2.502382e-003
1.589124e+003,-2.491313e-003
1.591052e+003,-2.438236e-003
1.592981e+003,-2.314596e-003
1.594909e+003,-2.212513e-003
1.596838e+003,-2.140609e-003
1.598766e+003,-2.087225e-003
1.600695e+003,-2.123364e-003
1.602623e+003,-2.124749e-003
1.604552e+003,-2.068693e-003
1.606480e+003,-1.991191e-003
1.608409e+003,-1.936766e-003
1.610338e+003,-1.906352e-003
1.612266e+003,-1.870326e-003
1.614195e+003,-1.862837e-003
1.616123e+003,-1.774673e-003
1.618052e+003,-1.548076e-003
1.619980e+003,-1.443370e-003
1.621909e+003,-1.451857e-003
1.623837e+003,-1.407867e-003
1.625766e+003,-1.364699e-003
1.627695e+003,-1.338472e-003
1.629623e+003,-1.245312e-003
1.631552e+003,-1.170637e-003
1.633480e+003,-1.166308e-003
1.635409e+003,-1.098924e-003
1.637337e+003,-9.665040e-004
1.639266e+003,-8.570603e-004
1.641194e+003,-7.633665e-004
1.643123e+003,-7.195388e-004
1.645052e+003,-6.325649e-004
1.646980e+003,-4.562810e-004
1.648909e+003,-3.491587e-004
1.650837e+003,-3.888526e-004
1.652766e+003,-2.771110e-004
1.654694e+003,-1.905165e-005
1.656623e+003,5.765361e-006
1.658551e+003,-2.418778e-006
1.660480e+003,4.894173e-005
1.662408e+003,1.043516e-004
1.664337e+003,1.579456e-004
1.666266e+003,1.441901e-004
1.668194e+003,8.963683e-005
1.670123e+003,8.678672e-005
1.672051e+003,1.405442e-004
1.673980e+003,1.606967e-004
1.675908e+003,1.729610e-004
1.677837e+003,1.492945e-004
1.679765e+003,1.211881e-004
1.681694e+003,9.069734e-005
1.683622e+003,4.446816e-005
1.685551e+003,1.040865e-004
1.687479e+003,1.401465e-004
1.689408e+003,6.431793e-005
1.691337e+003,2.829739e-005
1.693265e+003,1.225977e-005
1.695194e+003,1.192842e-005
1.697122e+003,9.192355e-005
1.699051e+003,1.358045e-004
1.700979e+003,3.268909e-004
1.702908e+003,5.322931e-004
1.704836e+003,7.241846e-004
1.706765e+003,1.005290e-003
1.708694e+003,1.237562e-003
1.710622e+003,1.382928e-003
1.712551e+003,1.358697e-003
1.714479e+003,1.225533e-003
1.716408e+003,1.089554e-003
1.718336e+003,1.088889e-003
1.720265e+003,1.069557e-003
1.722193e+003,1.063877e-003
1.724122e+003,1.273351e-003
1.726051e+003,1.730721e-003
1.727979e+003,2.527016e-003
1.729908e+003,3.377363e-003
1.731836e+003,3.679539e-003
1.733765e+003,3.975404e-003
1.735693e+003,4.788559e-003
1.737622e+003,5.753264e-003
1.739550e+003,6.665807e-003
1.741479e+003,7.256133e-003
1.743407e+003,7.522822e-003
1.745336e+003,7.502291e-003
1.747265e+003,7.187777e-003
1.749193e+003,6.602489e-003
1.751122e+003,5.721200e-003
1.753050e+003,4.651694e-003
1.754979e+003,3.497694e-003
1.756907e+003,2.402389e-003
1.758836e+003,1.446720e-003
1.760764e+003,7.042051e-004
1.762693e+003,1.787618e-004
1.764621e+003,-2.579713e-004
1.766550e+003,-5.922976e-004
1.768479e+003,-7.957796e-004
1.770407e+003,-9.584372e-004
1.772336e+003,-1.082762e-003
1.774264e+003,-1.175693e-003
1.776193e+003,-1.280596e-003
1.778121e+003,-1.317662e-003
1.780050e+003,-1.319842e-003
1.781978e+003,-1.364930e-003
1.783907e+003,-1.431448e-003
1.785835e+003,-1.484450e-003
1.787764e+003,-1.527177e-003
1.789693e+003,-1.554679e-003
1.791621e+003,-1.583105e-003
1.793550e+003,-1.549397e-003
1.795478e+003,-1.564320e-003
1.797407e+003,-1.613840e-003
1.799335e+003,-1.657874e-003
1.801264e+003,-1.680682e-003
1.803192e+003,-1.666291e-003
1.805121e+003,-1.692597e-003
1.807049e+003,-1.740386e-003
1.808978e+003,-1.766390e-003
1.810907e+003,-1.787410e-003
1.812835e+003,-1.782461e-003
1.814764e+003,-1.746227e-003
1.816692e+003,-1.727548e-003
1.818621e+003,-1.755698e-003
1.820549e+003,-1.771241e-003
1.822478e+003,-1.765235e-003
1.824406e+003,-1.810772e-003
1.826335e+003,-1.823674e-003
1.828264e+003,-1.776851e-003
1.830192e+003,-1.744577e-003
1.832121e+003,-1.756325e-003
1.834049e+003,-1.763651e-003
1.835978e+003,-1.776323e-003
1.837906e+003,-1.798399e-003
1.839835e+003,-1.778039e-003
1.841763e+003,-1.762001e-003
1.843692e+003,-1.711971e-003
1.845620e+003,-1.652263e-003
1.847549e+003,-1.632094e-003
1.849478e+003,-1.618494e-003
1.851406e+003,-1.607501e-003
1.853335e+003,-1.574984e-003
1.855263e+003,-1.567159e-003
1.857192e+003,-1.555967e-003
1.859120e+003,-1.566004e-003
1.861049e+003,-1.579936e-003
1.862977e+003,-1.577262e-003
1.864906e+003,-1.605686e-003
1.866834e+003,-1.604926e-003
1.868763e+003,-1.549034e-003
1.870692e+003,-1.483426e-003
1.872620e+003,-1.436104e-003
1.874549e+003,-1.406183e-003
1.876477e+003,-1.418105e-003
1.878406e+003,-1.429763e-003
1.880334e+003,-1.383724e-003
1.882263e+003,-1.280035e-003
1.884191e+003,-1.258626e-003
1.886120e+003,-1.297081e-003
1.888048e+003,-1.256380e-003
1.889977e+003,-1.206324e-003
1.891906e+003,-1.168059e-003
1.893834e+003,-1.102890e-003
1.895763e+003,-1.059989e-003
1.897691e+003,-1.085802e-003
1.899620e+003,-1.072780e-003
1.901548e+003,-1.055295e-003
1.903477e+003,-1.055229e-003
1.905405e+003,-9.935466e-004
1.907334e+003,-9.357567e-004
1.909263e+003,-9.365171e-004
1.911191e+003,-9.303344e-004
1.913120e+003,-8.997499e-004
1.915048e+003,-8.909213e-004
1.916977e+003,-9.070243e-004
1.918905e+003,-9.052718e-004
1.920834e+003,-9.132735e-004
1.922762e+003,-9.099671e-004
1.924691e+003,-9.084130e-004
1.926620e+003,-9.446836e-004
1.928548e+003,-9.329795e-004
1.930477e+003,-9.100662e-004
1.932405e+003,-9.431296e-004
1.934334e+003,-9.354261e-004
1.936262e+003,-8.899294e-004
1.938191e+003,-8.823902e-004
1.940119e+003,-8.801747e-004
1.942048e+003,-8.746856e-004
1.943976e+003,-8.802739e-004
1.945905e+003,-8.818611e-004
1.947833e+003,-8.492229e-004
1.949762e+003,-8.298439e-004
1.951691e+003,-7.684271e-004
1.953619e+003,-7.002863e-004
1.955548e+003,-7.041898e-004
1.957476e+003,-6.699172e-004
1.959405e+003,-6.483797e-004
1.961333e+003,-6.576102e-004
1.963262e+003,-6.409686e-004
1.965190e+003,-6.715383e-004
1.967119e+003,-7.047191e-004
1.969047e+003,-7.022381e-004
1.970976e+003,-7.074978e-004
1.972905e+003,-7.061746e-004
1.974833e+003,-7.116990e-004
1.976762e+003,-7.224829e-004
1.978690e+003,-6.848705e-004
1.980619e+003,-6.959196e-004
1.982547e+003,-7.231114e-004
1.984476e+003,-7.152054e-004
1.986404e+003,-7.040575e-004
1.988333e+003,-7.102104e-004
1.990262e+003,-7.228137e-004
1.992190e+003,-7.350196e-004
1.994119e+003,-7.561890e-004
1.996047e+003,-7.795403e-004
1.997976e+003,-7.629696e-004
1.999904e+003,-6.756074e-004
2.001833e+003,-6.217457e-004
2.003761e+003,-6.137387e-004
2.005690e+003,-6.362374e-004
2.007619e+003,-6.278998e-004
2.009547e+003,-5.542437e-004
2.011476e+003,-5.568580e-004
2.013404e+003,-5.782016e-004
2.015333e+003,-5.339580e-004
2.017261e+003,-4.931520e-004
2.019190e+003,-5.082106e-004
2.021118e+003,-5.107259e-004
2.023047e+003,-4.636290e-004
2.024975e+003,-4.769345e-004
2.026904e+003,-5.117849e-004
2.028833e+003,-4.979841e-004
2.030761e+003,-5.201910e-004
2.032690e+003,-5.728409e-004
2.034618e+003,-5.974594e-004
2.036547e+003,-5.207205e-004
2.038475e+003,-4.845138e-004
2.040404e+003,-5.019556e-004
2.042332e+003,-5.025844e-004
2.044261e+003,-4.792513e-004
2.046189e+003,-4.580353e-004
2.048118e+003,-4.312573e-004
2.050046e+003,-3.768356e-004
2.051975e+003,-3.756438e-004
2.053904e+003,-3.915672e-004
2.055832e+003,-3.715056e-004
2.057761e+003,-3.578658e-004
2.059689e+003,-3.920968e-004
2.061618e+003,-4.223530e-004
2.063546e+003,-4.316545e-004
2.065475e+003,-3.675660e-004
2.067403e+003,-2.832699e-004
2.069332e+003,-2.659849e-004
2.071260e+003,-2.573752e-004
2.073189e+003,-2.793295e-004
2.075118e+003,-2.902897e-004
2.077046e+003,-2.694287e-004
2.078975e+003,-2.281011e-004
2.080903e+003,-2.084956e-004
2.082832e+003,-2.105158e-004
2.084760e+003,-2.163445e-004
2.086689e+003,-2.061111e-004
2.088617e+003,-2.057468e-004
2.090546e+003,-1.883593e-004
2.092475e+003,-1.679240e-004
2.094403e+003,-1.569607e-004
2.096332e+003,-1.264211e-004
2.098260e+003,-1.126411e-004
2.100189e+003,-8.511301e-005
2.102117e+003,-8.044200e-005
2.104046e+003,-8.189962e-005
2.105974e+003,-9.753566e-005
2.107903e+003,-9.978826e-005
2.109832e+003,-6.192311e-005
2.111760e+003,-1.401547e-005
2.113688e+003,2.170334e-005
2.115617e+003,4.662210e-005
2.117546e+003,6.667081e-005
2.119474e+003,1.307335e-004
2.121403e+003,1.860875e-004
2.123331e+003,1.880101e-004
2.125260e+003,2.328953e-004
2.127188e+003,3.160812e-004
2.129117e+003,3.530210e-004
2.131045e+003,3.449961e-004
2.132974e+003,3.048739e-004
2.134903e+003,3.058686e-004
2.136831e+003,3.291457e-004
2.138760e+003,3.594543e-004
2.140688e+003,3.906603e-004
2.142617e+003,3.714257e-004
2.144545e+003,3.551433e-004
2.146474e+003,3.886042e-004
2.148402e+003,4.366279e-004
2.150331e+003,4.624660e-004
2.152260e+003,4.728150e-004
2.154188e+003,4.811076e-004
2.156117e+003,4.954708e-004
2.158045e+003,5.348144e-004
2.159974e+003,5.835178e-004
2.161902e+003,6.108578e-004
2.163831e+003,6.011692e-004
2.165759e+003,5.950641e-004
2.167688e+003,6.264862e-004
2.169616e+003,6.564836e-004
2.171545e+003,6.905651e-004
2.173474e+003,7.257113e-004
2.175402e+003,7.018488e-004
2.177331e+003,7.056653e-004
2.179259e+003,7.153895e-004
2.181188e+003,7.060304e-004
2.183116e+003,7.485794e-004
2.185045e+003,7.885435e-004
2.186973e+003,8.074978e-004
2.188902e+003,8.050082e-004
2.190831e+003,7.750337e-004
2.192759e+003,7.864191e-004
2.194688e+003,8.318310e-004
2.196616e+003,8.466041e-004
2.198545e+003,8.336901e-004
2.200473e+003,8.129420e-004
2.202402e+003,7.653082e-004
2.204330e+003,7.658724e-004
2.206259e+003,7.963110e-004
2.208188e+003,8.092904e-004
2.210116e+003,8.259218e-004
2.212044e+003,8.360803e-004
2.213973e+003,8.339888e-004
2.215902e+003,8.229009e-004
2.217830e+003,7.984023e-004
2.219759e+003,8.075642e-004
2.221687e+003,8.507872e-004
2.223616e+003,8.366778e-004
2.225544e+003,8.367774e-004
2.227473e+003,8.762184e-004
2.229401e+003,8.898974e-004
2.231330e+003,8.932176e-004
2.233259e+003,9.156297e-004
2.235187e+003,9.816110e-004
2.237116e+003,1.013725e-003
2.239044e+003,9.589631e-004
2.240973e+003,9.253918e-004
2.242901e+003,9.588634e-004
2.244830e+003,9.527865e-004
2.246758e+003,9.593616e-004
2.248687e+003,1.034483e-003
2.250615e+003,1.115065e-003
2.252544e+003,1.122972e-003
2.254473e+003,1.122739e-003
2.256401e+003,1.126260e-003
2.258330e+003,1.071484e-003
2.260258e+003,1.042753e-003
2.262187e+003,1.087262e-003
2.264115e+003,1.118686e-003
2.266044e+003,1.114567e-003
2.267972e+003,1.114268e-003
2.269901e+003,1.113205e-003
2.271830e+003,1.093008e-003
2.273758e+003,1.091779e-003
2.275687e+003,1.066800e-003
2.277615e+003,1.068362e-003
2.279544e+003,1.072547e-003
2.281472e+003,1.062848e-003
2.283401e+003,1.047602e-003
2.285329e+003,1.029866e-003
2.287258e+003,1.038402e-003
2.289187e+003,1.064841e-003
2.291115e+003,1.072846e-003
2.293043e+003,1.085833e-003
2.294972e+003,1.110647e-003
2.296901e+003,1.116328e-003
2.298829e+003,1.132605e-003
2.300758e+003,1.186061e-003
2.302686e+003,1.191410e-003
2.304615e+003,1.153402e-003
2.306543e+003,1.165096e-003
2.308472e+003,1.194068e-003
2.310400e+003,1.176160e-003
2.312329e+003,1.160545e-003
2.314258e+003,1.154764e-003
2.316186e+003,1.143934e-003
2.318115e+003,1.153468e-003
2.320043e+003,1.191111e-003
2.321972e+003,1.195895e-003
2.323900e+003,1.198454e-003
2.325829e+003,1.237196e-003
2.327757e+003,1.327754e-003
2.329686e+003,1.331343e-003
2.331615e+003,1.269031e-003
2.333543e+003,1.283519e-003
2.335472e+003,1.314692e-003
2.337400e+003,1.299571e-003
2.339329e+003,1.323865e-003
2.341257e+003,1.385720e-003
2.343186e+003,1.446155e-003
2.345114e+003,1.485684e-003
2.347043e+003,1.519332e-003
2.348971e+003,1.537088e-003
2.350900e+003,1.573999e-003
2.352829e+003,1.589263e-003
2.354757e+003,1.557904e-003
2.356686e+003,1.535226e-003
2.358614e+003,1.555776e-003
2.360543e+003,1.570707e-003
2.362471e+003,1.546498e-003
2.364400e+003,1.516040e-003
2.366328e+003,1.524586e-003
2.368257e+003,1.595748e-003
2.370186e+003,1.656577e-003
2.372114e+003,1.663761e-003
2.374042e+003,1.631000e-003
2.375971e+003,1.645069e-003
2.377900e+003,1.680659e-003
2.379828e+003,1.716384e-003
2.381757e+003,1.735612e-003
2.383685e+003,1.742598e-003
2.385614e+003,1.766817e-003
2.387542e+003,1.765919e-003
2.389471e+003,1.766784e-003
2.391399e+003,1.814760e-003
2.393328e+003,1.861311e-003
2.395257e+003,1.864806e-003
2.397185e+003,1.858117e-003
2.399114e+003,1.859282e-003
2.401042e+003,1.905272e-003
2.402971e+003,1.934093e-003
2.404899e+003,1.929067e-003
2.406828e+003,1.925506e-003
2.408756e+003,1.849066e-003
2.410685e+003,1.803448e-003
2.412614e+003,1.873923e-003
2.414542e+003,1.928369e-003
2.416471e+003,1.951100e-003
2.418399e+003,1.948604e-003
2.420328e+003,1.953330e-003
2.422256e+003,1.990809e-003
2.424185e+003,2.019170e-003
2.426113e+003,2.008851e-003
2.428042e+003,2.012379e-003
2.429970e+003,2.037845e-003
2.431899e+003,2.040575e-003
2.433828e+003,2.059584e-003
2.435756e+003,2.068540e-003
2.437685e+003,2.066675e-003
2.439613e+003,2.097172e-003
2.441542e+003,2.118014e-003
2.443470e+003,2.119147e-003
2.445399e+003,2.075764e-003
2.447327e+003,2.053192e-003
2.449256e+003,2.030821e-003
2.451185e+003,2.013211e-003
2.453113e+003,2.053958e-003
2.455042e+003,2.076829e-003
2.456970e+003,2.081524e-003
2.458899e+003,2.074266e-003
2.460827e+003,2.060383e-003
2.462756e+003,2.044769e-003
2.464684e+003,2.014976e-003
2.466613e+003,2.016307e-003
2.468542e+003,2.053924e-003
2.470470e+003,2.126439e-003
2.472398e+003,2.237164e-003
2.474327e+003,2.246856e-003
2.476256e+003,2.199797e-003
2.478184e+003,2.249087e-003
2.480113e+003,2.325798e-003
2.482041e+003,2.303113e-003
2.483970e+003,2.262244e-003
2.485898e+003,2.331361e-003
2.487827e+003,2.367407e-003
2.489755e+003,2.366874e-003
2.491684e+003,2.396758e-003
2.493613e+003,2.378801e-003
2.495541e+003,2.373603e-003
2.497470e+003,2.375869e-003
2.499398e+003,2.379734e-003
2.501327e+003,2.392727e-003
2.503255e+003,2.390328e-003
2.505184e+003,2.361777e-003
2.507112e+003,2.327097e-003
2.509041e+003,2.323133e-003
2.510969e+003,2.330295e-003
2.512898e+003,2.392094e-003
2.514827e+003,2.420015e-003
2.516755e+003,2.416416e-003
2.518684e+003,2.497722e-003
2.520612e+003,2.597876e-003
2.522541e+003,2.621776e-003
2.524469e+003,2.653178e-003
2.526398e+003,2.691751e-003
2.528326e+003,2.731561e-003
2.530255e+003,2.779177e-003
2.532184e+003,2.821830e-003
2.534112e+003,2.881898e-003
2.536041e+003,2.887501e-003
2.537969e+003,2.872425e-003
2.539898e+003,2.915287e-003
2.541826e+003,2.946544e-003
2.543755e+003,2.987311e-003
2.545683e+003,3.018406e-003
2.547612e+003,3.035456e-003
2.549541e+003,3.070325e-003
2.551469e+003,3.125989e-003
2.553397e+003,3.171779e-003
2.555326e+003,3.160632e-003
2.557255e+003,3.161666e-003
2.559183e+003,3.214103e-003
2.561112e+003,3.247819e-003
2.563040e+003,3.257633e-003
2.564969e+003,3.289916e-003
2.566897e+003,3.344439e-003
2.568826e+003,3.391756e-003
2.570754e+003,3.464928e-003
2.572683e+003,3.541853e-003
2.574612e+003,3.601319e-003
2.576540e+003,3.678336e-003
2.578469e+003,3.744203e-003
2.580397e+003,3.787419e-003
2.582326e+003,3.804666e-003
2.584254e+003,3.785447e-003
2.586183e+003,3.787486e-003
2.588111e+003,3.729833e-003
2.590040e+003,3.650835e-003
2.591969e+003,3.640711e-003
2.593897e+003,3.636668e-003
2.595826e+003,3.590561e-003
2.597754e+003,3.598680e-003
2.599683e+003,3.649432e-003
2.601611e+003,3.725722e-003
2.603540e+003,3.764590e-003
2.605468e+003,3.739992e-003
2.607397e+003,3.774049e-003
2.609325e+003,3.841937e-003
2.611254e+003,3.914951e-003
2.613183e+003,3.958986e-003
2.615111e+003,3.987141e-003
2.617040e+003,4.066702e-003
2.618968e+003,4.110919e-003
2.620897e+003,4.081050e-003
2.622825e+003,4.074628e-003
2.624754e+003,4.049109e-003
2.626682e+003,3.999481e-003
2.628611e+003,4.012723e-003
2.630540e+003,4.006804e-003
2.632468e+003,3.984065e-003
2.634396e+003,3.998444e-003
2.636325e+003,4.020850e-003
2.638254e+003,4.050748e-003
2.640182e+003,4.112658e-003
2.642111e+003,4.198865e-003
2.644039e+003,4.235368e-003
2.645968e+003,4.244100e-003
2.647896e+003,4.263641e-003
2.649825e+003,4.335388e-003
2.651753e+003,4.362797e-003
2.653682e+003,4.387163e-003
2.655611e+003,4.451029e-003
2.657539e+003,4.502216e-003
2.659468e+003,4.503756e-003
2.661396e+003,4.495454e-003
2.663325e+003,4.518990e-003
2.665253e+003,4.533889e-003
2.667182e+003,4.545775e-003
2.669110e+003,4.590644e-003
2.671039e+003,4.612578e-003
2.672968e+003,4.641579e-003
2.674896e+003,4.708397e-003
2.676825e+003,4.684482e-003
2.678753e+003,4.623964e-003
2.680682e+003,4.602700e-003
2.682610e+003,4.619678e-003
2.684539e+003,4.625505e-003
2.686467e+003,4.593256e-003
2.688396e+003,4.626576e-003
2.690324e+003,4.672994e-003
2.692253e+003,4.679559e-003
2.694182e+003,4.694430e-003
2.696110e+003,4.718144e-003
2.698039e+003,4.733754e-003
2.699967e+003,4.798710e-003
2.701896e+003,4.834860e-003
2.703824e+003,4.857845e-003
2.705753e+003,4.930527e-003
2.707681e+003,5.031679e-003
2.709610e+003,5.143215e-003
2.711539e+003,5.254411e-003
2.713467e+003,5.423707e-003
2.715396e+003,5.589478e-003
2.717324e+003,5.731910e-003
2.719253e+003,5.959401e-003
2.721181e+003,6.167452e-003
2.723110e+003,6.240522e-003
2.725038e+003,6.133241e-003
2.726967e+003,5.976970e-003
2.728896e+003,5.874154e-003
2.730824e+003,5.768037e-003
2.732752e+003,5.622338e-003
2.734681e+003,5.493330e-003
2.736610e+003,5.426022e-003
2.738538e+003,5.340544e-003
2.740467e+003,5.202565e-003
2.742395e+003,5.040830e-003
2.744324e+003,4.922451e-003
2.746252e+003,4.829466e-003
2.748181e+003,4.745378e-003
2.750109e+003,4.671420e-003
2.752038e+003,4.629791e-003
2.753967e+003,4.690243e-003
2.755895e+003,4.812479e-003
2.757824e+003,4.969906e-003
2.759752e+003,5.113644e-003
2.761681e+003,5.309248e-003
2.763609e+003,5.542760e-003
2.765538e+003,5.712035e-003
2.767466e+003,5.851887e-003
2.769395e+003,6.014294e-003
2.771323e+003,6.138483e-003
2.773252e+003,6.239816e-003
2.775181e+003,6.359631e-003
2.777109e+003,6.511297e-003
2.779038e+003,6.644711e-003
2.780966e+003,6.801996e-003
2.782895e+003,6.984591e-003
2.784823e+003,7.174167e-003
2.786752e+003,7.448188e-003
2.788680e+003,7.814133e-003
2.790609e+003,8.097064e-003
2.792538e+003,8.345523e-003
2.794466e+003,8.653508e-003
2.796395e+003,8.976360e-003
2.798323e+003,9.267800e-003
2.800252e+003,9.548531e-003
2.802180e+003,9.955779e-003
2.804109e+003,1.045843e-002
2.806037e+003,1.095257e-002
2.807966e+003,1.145247e-002
2.809895e+003,1.194886e-002
2.811823e+003,1.246426e-002
2.813751e+003,1.297901e-002
2.815680e+003,1.358623e-002
2.817609e+003,1.430721e-002
2.819537e+003,1.514353e-002
2.821466e+003,1.622550e-002
2.823394e+003,1.759304e-002
2.825323e+003,1.929070e-002
2.827251e+003,2.165894e-002
2.829180e+003,2.523686e-002
2.831108e+003,3.042976e-002
2.833037e+003,3.707852e-002
2.834966e+003,4.384260e-002
2.836894e+003,4.865858e-002
2.838823e+003,5.058043e-002
2.840751e+003,5.073886e-002
2.842680e+003,5.123359e-002
2.844608e+003,5.423539e-002
2.846537e+003,6.096314e-002
2.848465e+003,6.853328e-002
2.850394e+003,7.014852e-002
2.852323e+003,6.451854e-002
2.854251e+003,5.670885e-002
2.856180e+003,5.012156e-002
2.858108e+003,4.567135e-002
2.860037e+003,4.383523e-002
2.861965e+003,4.458885e-002
2.863894e+003,4.688891e-002
2.865822e+003,4.873783e-002
2.867751e+003,4.888891e-002
2.869679e+003,4.799049e-002
2.871608e+003,4.716029e-002
2.873537e+003,4.702011e-002
2.875465e+003,4.754739e-002
2.877394e+003,4.782193e-002
2.879322e+003,4.727924e-002
2.881251e+003,4.640051e-002
2.883179e+003,4.596459e-002
2.885108e+003,4.621059e-002
2.887036e+003,4.694206e-002
2.888965e+003,4.805600e-002
2.890894e+003,4.965299e-002
2.892822e+003,5.188787e-002
2.894750e+003,5.472731e-002
2.896679e+003,5.823687e-002
2.898608e+003,6.232967e-002
2.900536e+003,6.687083e-002
2.902465e+003,7.174963e-002
2.904393e+003,7.700660e-002
2.906322e+003,8.267917e-002
2.908250e+003,8.916052e-002
2.910179e+003,9.742738e-002
2.912107e+003,1.083245e-001
2.914036e+003,1.211996e-001
2.915965e+003,1.321113e-001
2.917893e+003,1.358181e-001
2.919822e+003,1.315345e-001
2.921750e+003,1.228484e-001
2.923679e+003,1.129606e-001
2.925607e+003,1.028590e-001
2.927536e+003,9.251449e-002
2.929464e+003,8.205818e-002
2.931393e+003,7.213785e-002
2.933322e+003,6.343782e-002
2.935250e+003,5.633723e-002
2.937179e+003,5.113696e-002
2.939107e+003,4.813069e-002
2.941036e+003,4.774532e-002
2.942964e+003,5.037563e-002
2.944893e+003,5.571810e-002
2.946821e+003,6.214796e-002
2.948750e+003,6.703512e-002
2.950678e+003,6.848575e-002
2.952607e+003,6.662057e-002
2.954536e+003,6.339311e-002
2.956464e+003,6.061669e-002
2.958393e+003,5.839008e-002
2.960321e+003,5.575223e-002
2.962250e+003,5.148957e-002
2.964178e+003,4.548194e-002
2.966107e+003,3.884906e-002
2.968035e+003,3.257199e-002
2.969964e+003,2.701676e-002
2.971893e+003,2.229206e-002
2.973821e+003,1.850355e-002
2.975750e+003,1.558934e-002
2.977678e+003,1.330199e-002
2.979607e+003,1.144389e-002
2.981535e+003,9.957982e-003
2.983464e+003,8.856598e-003
2.985392e+003,7.938433e-003
2.987321e+003,7.174100e-003
2.989250e+003,6.593709e-003
2.991178e+003,6.076250e-003
2.993106e+003,5.718246e-003
2.995035e+003,5.470714e-003
2.996964e+003,5.218796e-003
2.998892e+003,5.034026e-003
3.000821e+003,4.956065e-003
3.002749e+003,4.879960e-003
3.004678e+003,4.763300e-003
3.006606e+003,4.681367e-003
3.008535e+003,4.542460e-003
3.010463e+003,4.333480e-003
3.012392e+003,4.160627e-003
3.014321e+003,4.056233e-003
3.016249e+003,3.911942e-003
3.018178e+003,3.746108e-003
3.020106e+003,3.668979e-003
3.022035e+003,3.621399e-003
3.023963e+003,3.517134e-003
3.025892e+003,3.435303e-003
3.027820e+003,3.383006e-003
3.029749e+003,3.314022e-003
3.031677e+003,3.278866e-003
3.033606e+003,3.299231e-003
3.035535e+003,3.286711e-003
3.037463e+003,3.246984e-003
3.039392e+003,3.258000e-003
3.041320e+003,3.201753e-003
3.043249e+003,3.119014e-003
3.045177e+003,3.143143e-003
3.047106e+003,3.111805e-003
3.049034e+003,3.061316e-003
3.050963e+003,3.056344e-003
3.052892e+003,3.104196e-003
3.054820e+003,3.126957e-003
3.056749e+003,3.104864e-003
3.058677e+003,3.079736e-003
3.060606e+003,3.072595e-003
3.062534e+003,3.021709e-003
3.064463e+003,3.027448e-003
3.066391e+003,3.089580e-003
3.068320e+003,3.118947e-003
3.070249e+003,3.089913e-003
3.072177e+003,3.056678e-003
3.074105e+003,3.042697e-003
3.076034e+003,3.022644e-003
3.077963e+003,2.986343e-003
3.079891e+003,3.031686e-003
3.081820e+003,3.039894e-003
3.083748e+003,2.990514e-003
3.085677e+003,2.975734e-003
3.087605e+003,3.020842e-003
3.089534e+003,3.092416e-003
3.091462e+003,3.134833e-003
3.093391e+003,3.174049e-003
3.095320e+003,3.186699e-003
3.097248e+003,3.151854e-003
3.099177e+003,3.121316e-003
3.101105e+003,3.110304e-003
3.103034e+003,3.137035e-003
3.104962e+003,3.229325e-003
3.106891e+003,3.282772e-003
3.108819e+003,3.269284e-003
3.110748e+003,3.208996e-003
3.112677e+003,3.159730e-003
3.114605e+003,3.176786e-003
3.116534e+003,3.192640e-003
3.118462e+003,3.240308e-003
3.120391e+003,3.276796e-003
3.122319e+003,3.327243e-003
3.124248e+003,3.361869e-003
3.126176e+003,3.396431e-003
3.128105e+003,3.448963e-003
3.130033e+003,3.503339e-003
3.131962e+003,3.590260e-003
3.133891e+003,3.607934e-003
3.135819e+003,3.578601e-003
3.137748e+003,3.597778e-003
3.139676e+003,3.686790e-003
3.141605e+003,3.708444e-003
3.143533e+003,3.657084e-003
3.145462e+003,3.629985e-003
3.147390e+003,3.652072e-003
3.149319e+003,3.650267e-003
3.151248e+003,3.616621e-003
3.153176e+003,3.662330e-003
3.155104e+003,3.743034e-003
3.157033e+003,3.814426e-003
3.158962e+003,3.899405e-003
3.160890e+003,3.924346e-003
3.162819e+003,3.899271e-003
3.164747e+003,3.874030e-003
3.166676e+003,3.942435e-003
3.168604e+003,3.980754e-003
3.170533e+003,3.993595e-003
3.172461e+003,4.049511e-003
3.174390e+003,4.080347e-003
3.176319e+003,4.131825e-003
3.178247e+003,4.194349e-003
3.180176e+003,4.186119e-003
3.182104e+003,4.183175e-003
3.184033e+003,4.171834e-003
3.185961e+003,4.232423e-003
3.187890e+003,4.292084e-003
3.189818e+003,4.262303e-003
3.191747e+003,4.282681e-003
3.193676e+003,4.332041e-003
3.195604e+003,4.344055e-003
3.197532e+003,4.315007e-003
3.199461e+003,4.304867e-003
3.201390e+003,4.367550e-003
3.203318e+003,4.406041e-003
3.205247e+003,4.411397e-003
3.207175e+003,4.430744e-003
3.209104e+003,4.467667e-003
3.211032e+003,4.470412e-003
3.212961e+003,4.420300e-003
3.214889e+003,4.410626e-003
3.216818e+003,4.428434e-003
3.218747e+003,4.423514e-003
3.220675e+003,4.426292e-003
3.222604e+003,4.430409e-003
3.224532e+003,4.443297e-003
3.226461e+003,4.445071e-003
3.228389e+003,4.477442e-003
3.230318e+003,4.479283e-003
3.232246e+003,4.430041e-003
3.234175e+003,4.459298e-003
3.236104e+003,4.566401e-003
3.238032e+003,4.664588e-003
3.239961e+003,4.686693e-003
3.241889e+003,4.668674e-003
3.243818e+003,4.659062e-003
3.245746e+003,4.613081e-003
3.247675e+003,4.588200e-003
3.249603e+003,4.640340e-003
3.251532e+003,4.672727e-003
3.253460e+003,4.649919e-003
3.255389e+003,4.609028e-003
3.257318e+003,4.588769e-003
3.259246e+003,4.631968e-003
3.261175e+003,4.686626e-003
3.263103e+003,4.665793e-003
3.265032e+003,4.669745e-003
3.266960e+003,4.733318e-003
3.268889e+003,4.831208e-003
3.270817e+003,4.798844e-003
3.272746e+003,4.740018e-003
3.274675e+003,4.770134e-003
3.276603e+003,4.801122e-003
3.278531e+003,4.827657e-003
3.280460e+003,4.891789e-003
3.282389e+003,4.926942e-003
3.284317e+003,4.885959e-003
3.286246e+003,4.869573e-003
3.288174e+003,4.876878e-003
3.290103e+003,4.904824e-003
3.292031e+003,4.954288e-003
3.293960e+003,5.010294e-003
3.295888e+003,5.067179e-003
3.297817e+003,5.062553e-003
3.299746e+003,5.044786e-003
3.301674e+003,5.035702e-003
3.303603e+003,5.006205e-003
3.305531e+003,4.993066e-003
3.307460e+003,5.011735e-003
3.309388e+003,5.059100e-003
3.311317e+003,5.175672e-003
3.313245e+003,5.225972e-003
3.315174e+003,5.161120e-003
3.317103e+003,5.105631e-003
3.319031e+003,5.075291e-003
3.320960e+003,5.040495e-003
3.322888e+003,5.045993e-003
3.324817e+003,5.123065e-003
3.326745e+003,5.138890e-003
3.328674e+003,5.012205e-003
3.330602e+003,4.958143e-003
3.332531e+003,4.970342e-003
3.334459e+003,5.040194e-003
3.336388e+003,5.064698e-003
3.338317e+003,5.084108e-003
3.340245e+003,5.050418e-003
3.342174e+003,4.948893e-003
3.344102e+003,4.947552e-003
3.346031e+003,5.039188e-003
3.347959e+003,5.061111e-003
3.349888e+003,4.987234e-003
3.351816e+003,4.966722e-003
3.353745e+003,5.007814e-003
3.355674e+003,4.944234e-003
3.357602e+003,4.885254e-003
3.359531e+003,4.890281e-003
3.361459e+003,5.017099e-003
3.363388e+003,5.053401e-003
3.365316e+003,4.894269e-003
3.367245e+003,4.776699e-003
3.369173e+003,4.828930e-003
3.371102e+003,4.867160e-003
3.373031e+003,4.901909e-003
3.374959e+003,4.919368e-003
3.376887e+003,4.877548e-003
3.378816e+003,4.879927e-003
3.380745e+003,4.863307e-003
3.382673e+003,4.750838e-003
3.384602e+003,4.686425e-003
3.386530e+003,4.782395e-003
3.388459e+003,4.865686e-003
3.390387e+003,4.775259e-003
3.392316e+003,4.630327e-003
3.394244e+003,4.540117e-003
3.396173e+003,4.498567e-003
3.398102e+003,4.490231e-003
3.400030e+003,4.489662e-003
3.401959e+003,4.621855e-003
3.403887e+003,4.782562e-003
3.405816e+003,4.774087e-003
3.407744e+003,4.729801e-003
3.409673e+003,4.667770e-003
3.411601e+003,4.624768e-003
3.413530e+003,4.576245e-003
3.415458e+003,4.585420e-003
3.417387e+003,4.579560e-003
3.419316e+003,4.477342e-003
3.421244e+003,4.504359e-003
3.423173e+003,4.540016e-003
3.425101e+003,4.494717e-003
3.427030e+003,4.350816e-003
3.428958e+003,4.301788e-003
3.430887e+003,4.363935e-003
3.432815e+003,4.306340e-003
3.434744e+003,4.249153e-003
3.436673e+003,4.209237e-003
3.438601e+003,4.228709e-003
3.440530e+003,4.305938e-003
3.442458e+003,4.272174e-003
3.444387e+003,4.183008e-003
3.446315e+003,4.167719e-003
3.448244e+003,4.190635e-003
3.450172e+003,4.117743e-003
3.452101e+003,4.040347e-003
3.454030e+003,4.019445e-003
3.455958e+003,4.035732e-003
3.457886e+003,4.013158e-003
3.459815e+003,3.987844e-003
3.461744e+003,4.041751e-003
3.463672e+003,4.060012e-003
3.465601e+003,3.973364e-003
3.467529e+003,3.900942e-003
3.469458e+003,3.864669e-003
3.471386e+003,3.824588e-003
3.473315e+003,3.771008e-003
3.475243e+003,3.816566e-003
3.477172e+003,3.762351e-003
3.479101e+003,3.652172e-003
3.481029e+003,3.639141e-003
3.482958e+003,3.707308e-003
3.484886e+003,3.614215e-003
3.486815e+003,3.471941e-003
3.488743e+003,3.441281e-003
3.490672e+003,3.532233e-003
3.492600e+003,3.521944e-003
3.494529e+003,3.430761e-003
3.496458e+003,3.311017e-003
3.498386e+003,3.226354e-003
3.500315e+003,3.284808e-003
3.502243e+003,3.398234e-003
3.504172e+003,3.291719e-003
3.506100e+003,3.129727e-003
3.508029e+003,3.125321e-003
3.509957e+003,3.047134e-003
3.511886e+003,2.982040e-003
3.513814e+003,2.983174e-003
3.515743e+003,3.020241e-003
3.517672e+003,3.093451e-003
3.519600e+003,3.016604e-003
3.521529e+003,2.903579e-003
3.523457e+003,2.940372e-003
3.525386e+003,2.954717e-003
3.527314e+003,2.891337e-003
3.529243e+003,2.828567e-003
3.531171e+003,2.778677e-003
3.533100e+003,2.727360e-003
3.535029e+003,2.658012e-003
3.536957e+003,2.547013e-003
3.538885e+003,2.512319e-003
3.540814e+003,2.509453e-003
3.542743e+003,2.454835e-003
3.544671e+003,2.374536e-003
3.546600e+003,2.327031e-003
3.548528e+003,2.328463e-003
3.550457e+003,2.279730e-003
3.552385e+003,2.254816e-003
3.554314e+003,2.217215e-003
3.556242e+003,2.163166e-003
3.558171e+003,2.092178e-003
3.560100e+003,2.039343e-003
3.562028e+003,2.064478e-003
3.563957e+003,1.928369e-003
3.565885e+003,1.806908e-003
3.567814e+003,1.900679e-003
3.569742e+003,1.922078e-003
3.571671e+003,1.825241e-003
3.573599e+003,1.828136e-003
3.575528e+003,1.784117e-003
3.577457e+003,1.689074e-003
3.579385e+003,1.720442e-003
3.581314e+003,1.709365e-003
3.583242e+003,1.576061e-003
3.585171e+003,1.529906e-003
3.587099e+003,1.522923e-003
3.589028e+003,1.462411e-003
3.590956e+003,1.414175e-003
3.592885e+003,1.349424e-003
3.594813e+003,1.270493e-003
3.596742e+003,1.262883e-003
3.598671e+003,1.251950e-003
3.600599e+003,1.210083e-003
3.602528e+003,1.173136e-003
3.604456e+003,1.188984e-003
3.606385e+003,1.160312e-003
3.608313e+003,1.176359e-003
3.610242e+003,1.216230e-003
3.612170e+003,1.134599e-003
3.614099e+003,1.043417e-003
3.616028e+003,8.807337e-004
3.617956e+003,7.990662e-004
3.619885e+003,8.524471e-004
3.621813e+003,8.955417e-004
3.623742e+003,8.673870e-004
3.625670e+003,8.056057e-004
3.627599e+003,7.648434e-004
3.629527e+003,8.395661e-004
3.631456e+003,7.525292e-004
3.633385e+003,5.928411e-004
3.635313e+003,5.550515e-004
3.637241e+003,5.431745e-004
3.639170e+003,5.424778e-004
3.641099e+003,5.436721e-004
3.643027e+003,5.532268e-004
3.644956e+003,5.180282e-004
3.646884e+003,3.728849e-004
3.648813e+003,3.488095e-004
3.650741e+003,4.585852e-004
3.652670e+003,4.370590e-004
3.654598e+003,3.345507e-004
3.656527e+003,3.592884e-004
3.658456e+003,4.517856e-004
3.660384e+003,4.266114e-004
3.662313e+003,3.289136e-004
3.664241e+003,3.012597e-004
3.666170e+003,2.621362e-004
3.668098e+003,1.584759e-004
3.670027e+003,2.151595e-004
3.671955e+003,3.082559e-004
3.673884e+003,9.626505e-005
3.675813e+003,8.231276e-005
3.677741e+003,1.904631e-004
3.679670e+003,2.090267e-004
3.681598e+003,1.794910e-004
3.683527e+003,8.151738e-005
3.685455e+003,4.801388e-005
3.687384e+003,1.216190e-004
3.689312e+003,2.179773e-004
3.691241e+003,1.682541e-004
3.693169e+003,9.331548e-005
3.695098e+003,5.729253e-005
3.697027e+003,1.290763e-004
3.698955e+003,1.374617e-004
3.700884e+003,1.243036e-004
3.702812e+003,1.274191e-004
3.704741e+003,4.473118e-006
3.706669e+003,-5.271306e-005
3.708598e+003,1.272366e-005
3.710526e+003,-6.275134e-005
3.712455e+003,-2.216611e-005
3.714384e+003,1.023300e-004
3.716312e+003,3.144534e-005
3.718240e+003,-6.947653e-005
3.720169e+003,-4.313838e-005
3.722098e+003,3.214121e-005
3.724026e+003,-1.838900e-005
3.725955e+003,-5.483337e-005
3.727883e+003,-1.517512e-005
3.729812e+003,-4.101800e-005
3.731740e+003,-6.348018e-005
3.733669e+003,-8.511301e-005
3.735597e+003,-1.172455e-004
3.737526e+003,-5.301443e-007
3.739455e+003,-5.735124e-005
3.741383e+003,-1.757405e-004
3.743312e+003,-2.871440e-004
3.745240e+003,-1.319528e-004
3.747169e+003,-1.504687e-004
3.749097e+003,-2.024349e-004
3.751026e+003,-1.040616e-004
3.752954e+003,1.563955e-005
3.754883e+003,-6.560490e-006
3.756812e+003,-6.881395e-005
3.758740e+003,-7.189492e-005
3.760669e+003,-1.247980e-004
3.762597e+003,-1.843849e-004
3.764526e+003,-1.836894e-004
3.766454e+003,-1.416249e-004
3.768383e+003,-2.164108e-004
3.770311e+003,-2.355523e-004
3.772240e+003,-1.820996e-004
3.774168e+003,-2.079326e-004
3.776097e+003,-2.641636e-004
3.778026e+003,-2.911837e-004
3.779954e+003,-2.321413e-004
3.781883e+003,-2.959187e-004
3.783811e+003,-4.204331e-004
3.785740e+003,-3.555814e-004
3.787668e+003,-3.133681e-004
3.789597e+003,-4.281458e-004
3.791525e+003,-4.961969e-004
3.793454e+003,-4.357921e-004
3.795383e+003,-2.958855e-004
3.797311e+003,-2.503549e-004
3.799240e+003,-4.407572e-004
3.801168e+003,-5.177751e-004
3.803097e+003,-4.649198e-004
3.805025e+003,-5.324026e-004
3.806954e+003,-4.802442e-004
3.808882e+003,-4.132168e-004
3.810811e+003,-5.010620e-004
3.812740e+003,-5.741314e-004
3.814668e+003,-6.362705e-004
3.816596e+003,-5.450772e-004
3.818525e+003,-5.350501e-004
3.820454e+003,-5.751242e-004
3.822382e+003,-5.335940e-004
3.824311e+003,-5.617886e-004
3.826239e+003,-5.950771e-004
3.828168e+003,-6.281976e-004
3.830096e+003,-6.791803e-004
3.832025e+003,-7.144446e-004
3.833953e+003,-7.628704e-004
3.835882e+003,-8.343415e-004
3.837811e+003,-7.410398e-004
3.839739e+003,-6.315723e-004
3.841668e+003,-6.819261e-004
3.843596e+003,-6.848043e-004
3.845525e+003,-6.478503e-004
3.847453e+003,-7.628704e-004
3.849382e+003,-8.824233e-004
3.851310e+003,-9.058339e-004
3.853239e+003,-8.422453e-004
3.855167e+003,-6.599591e-004
3.857096e+003,-6.739533e-004
3.859025e+003,-7.535098e-004
3.860953e+003,-8.431712e-004
3.862882e+003,-8.761736e-004
3.864810e+003,-7.750422e-004
3.866739e+003,-7.335973e-004
3.868667e+003,-8.963442e-004
3.870596e+003,-8.732968e-004
3.872524e+003,-8.111916e-004
3.874453e+003,-8.429728e-004
3.876382e+003,-9.713969e-004
3.878310e+003,-1.058832e-003
3.880239e+003,-8.915827e-004
3.882167e+003,-8.462798e-004
3.884096e+003,-1.079952e-003
3.886024e+003,-1.079556e-003
3.887953e+003,-1.006009e-003
3.889881e+003,-1.062765e-003
3.891810e+003,-1.068549e-003
3.893739e+003,-1.041379e-003
3.895667e+003,-1.087984e-003
3.897595e+003,-1.178502e-003
3.899524e+003,-1.122191e-003
3.901453e+003,-1.056419e-003
3.903381e+003,-1.092347e-003
3.905310e+003,-1.043495e-003
3.907238e+003,-9.230935e-004
3.909167e+003,-9.308965e-004
3.911095e+003,-1.067359e-003
3.913024e+003,-1.219838e-003
3.914952e+003,-1.303787e-003
3.916881e+003,-1.237746e-003
3.918810e+003,-1.173776e-003
3.920738e+003,-1.139574e-003
3.922667e+003,-1.073705e-003
3.924595e+003,-1.123975e-003
3.926524e+003,-1.128569e-003
3.928452e+003,-1.096280e-003
3.930381e+003,-1.175395e-003
3.932309e+003,-1.250961e-003
3.934238e+003,-1.170240e-003
3.936167e+003,-1.110293e-003
3.938095e+003,-1.173314e-003
3.940024e+003,-1.274683e-003
3.941952e+003,-1.340421e-003
3.943881e+003,-1.276995e-003
3.945809e+003,-1.280101e-003
3.947738e+003,-1.332526e-003
3.949666e+003,-1.350165e-003
3.951595e+003,-1.435113e-003
3.953523e+003,-1.515455e-003
3.955452e+003,-1.447464e-003
3.957380e+003,-1.378043e-003
3.959309e+003,-1.418502e-003
3.961238e+003,-1.485011e-003
3.963166e+003,-1.474609e-003
3.965095e+003,-1.385441e-003
3.967023e+003,-1.337481e-003
3.968952e+003,-1.311253e-003
3.970880e+003,-1.304811e-003
3.972809e+003,-1.366846e-003
3.974737e+003,-1.321956e-003
3.976666e+003,-1.323608e-003
3.978594e+003,-1.345178e-003
3.980523e+003,-1.389471e-003
3.982452e+003,-1.435807e-003
3.984380e+003,-1.460806e-003
3.986309e+003,-1.485176e-003
3.988237e+003,-1.429400e-003
3.990166e+003,-1.427782e-003
3.992094e+003,-1.447762e-003
3.994023e+003,-1.402087e-003
3.995951e+003,-1.443171e-003
3.997880e+003,-1.530049e-003
3.999809e+003,-1.506705e-003
4.001737e+003,0.000000e+000
