3200.54	58.9371
3199.95	88.4056
3199.35	58.9282
3198.76	88.3789
3198.16	58.9104
3197.57	79.9377
3196.98	46.2727
3196.38	29.4418
3195.79	67.2854
3195.19	58.8658
3194.6	67.2651
3194	46.2378
3193.41	92.4615
3192.81	58.8303
3192.22	67.2244
3191.62	63.0134
3191.03	63.0038
3190.43	62.9943
3189.84	37.7909
3189.24	71.3719
3188.65	71.3611
3188.05	71.3503
3187.45	41.9644
3186.86	50.3497
3186.26	58.7324
3185.67	79.6963
3185.07	83.8781
3184.47	71.2856
3183.88	67.0822
3183.28	62.88
3182.69	92.2101
3182.09	62.861
3181.49	83.802
3180.9	67.0314
3180.3	58.6436
3179.7	62.8229
3179.1	58.6259
3178.51	79.5516
3177.91	66.9807
3177.31	58.5993
3176.72	87.8856
3176.12	54.3971
3175.52	37.6538
3174.92	58.5638
3174.33	71.1024
3173.73	58.546
3173.13	71.0808
3172.53	50.1671
3171.93	66.8794
3171.34	75.2279
3170.74	62.6804
3170.14	50.1367
3169.54	108.613
3168.94	66.8287
3168.34	70.9948
3167.74	66.8085
3167.15	62.6234
3166.55	87.6595
3165.95	91.8199
3165.35	95.979
3164.75	50.0684
3164.15	75.0912
3163.55	87.5931
3162.95	70.898
3162.35	79.2269
3161.75	66.7073
3161.15	62.5286
3160.55	62.5191
3159.95	54.175
3159.35	70.8335
3158.75	70.8228
3158.15	45.8196
3157.55	87.4604
3156.95	91.6113
3156.35	79.1069
3155.75	83.2578
3155.15	91.5697
3154.55	79.0709
3153.95	62.4149
3153.35	70.7262
3152.75	87.3544
3152.15	66.5456
3151.54	70.694
3150.94	62.3676
3150.34	87.3014
3149.74	37.4092
3149.14	29.0916
3148.54	70.6404
3147.94	70.6297
3147.33	58.1568
3146.73	58.148
3146.13	66.4447
3145.53	74.739
3144.93	53.9699
3144.32	74.7163
3143.72	83.0055
3143.12	74.6936
3142.52	91.2783
3141.91	91.2645
3141.31	70.5118
3140.71	78.7954
3140.1	78.7834
3139.5	70.4797
3138.9	74.6142
3138.29	74.6029
3137.69	99.4554
3137.09	103.584
3136.48	74.5689
3135.88	82.8418
3135.28	70.4048
3134.67	78.6758
3134.07	91.0844
3133.47	86.931
3132.86	91.0568
3132.26	115.873
3131.65	99.3045
3131.05	62.0559
3130.45	111.684
3129.84	95.1234
3129.24	57.8924
3128.63	57.8836
3128.03	82.6783
3127.42	99.1989
3126.82	61.9899
3126.21	82.6406
3125.61	70.2338
3125	78.4847
3124.4	107.384
3123.79	78.4608
3123.19	119.738
3122.58	78.437
3121.97	82.5527
3121.37	86.6671
3120.76	94.9067
3120.16	70.1378
3119.55	66.002
3118.94	49.494
3118.34	98.9729
3117.73	90.7113
3117.13	70.0845
3116.52	103.05
3115.91	90.6699
3115.31	123.622
3114.7	103.003
3114.09	90.6286
3113.48	78.2582
3112.88	98.8374
3112.27	111.175
3111.66	90.5734
3111.06	127.607
3110.45	82.3144
3109.84	102.877
3109.23	74.0604
3108.63	106.96
3108.02	82.2643
3107.41	69.914
3106.8	86.3512
3106.19	106.895
3105.59	90.4356
3104.98	98.642
3104.37	53.423
3103.76	102.721
3103.15	115.03
3102.54	90.3668
3101.93	73.9252
3101.33	98.5519
3100.72	114.96
3100.11	106.732
3099.5	77.9846
3098.89	90.2842
3098.28	110.787
3097.67	86.1542
3097.06	94.3449
3096.45	90.2292
3095.84	90.2155
3095.23	98.4019
3094.62	94.2875
3094.01	98.3719
3093.4	81.9641
3092.79	122.927
3092.18	114.715
3091.57	106.505
3090.96	86.0098
3090.35	139.233
3089.74	106.456
3089.13	110.534
3088.52	110.517
3087.91	102.315
3087.3	102.299
3086.69	106.375
3086.08	139.084
3085.46	114.523
3084.85	122.684
3084.24	130.843
3083.63	85.8526
3083.02	102.19
3082.41	114.435
3081.79	138.936
3081.18	134.829
3080.57	118.468
3079.96	118.45
3079.35	134.767
3078.73	130.663
3078.12	142.891
3077.51	110.214
3076.9	134.685
3076.28	142.826
3075.67	138.724
3075.06	118.305
3074.45	85.6563
3073.83	122.348
3073.22	138.639
3072.61	134.541
3071.99	101.91
3071.38	105.97
3070.77	81.5028
3070.15	142.608
3069.54	122.217
3068.93	146.638
3068.31	114.034
3067.7	150.665
3067.08	126.214
3066.47	93.628
3065.86	109.894
3065.24	142.434
3064.63	122.068
3064.01	117.981
3063.4	81.3535
3062.78	97.6093
3062.17	146.392
3061.55	109.777
3060.94	101.63
3060.32	117.873
3059.71	150.366
3059.09	138.153
3058.48	121.881
3057.86	101.552
3057.25	109.66
3056.63	121.825
3056.02	158.349
3055.4	121.788
3054.78	105.534
3054.17	133.926
3053.55	129.848
3052.94	109.542
3052.32	101.413
3051.7	150.068
3051.09	129.768
3050.47	145.967
3049.85	105.405
3049.24	133.762
3048.62	137.795
3048	121.565
3047.39	93.1854
3046.77	125.579
3046.15	121.509
3045.53	105.292
3044.92	113.374
3044.3	97.1626
3043.68	145.722
3043.06	113.322
3042.45	133.537
3041.83	109.241
3041.21	157.768
3040.59	149.655
3039.97	117.279
3039.35	113.218
3038.74	145.543
3038.12	149.563
3037.5	157.624
3036.88	125.271
3036.26	117.171
3035.64	113.114
3035.02	153.488
3034.41	145.387
3033.79	141.327
3033.17	141.306
3032.55	129.174
3031.93	133.19
3031.31	153.347
3030.69	149.289
3030.07	153.3
3029.45	177.478
3028.83	145.187
3028.21	108.874
3027.59	149.174
3026.97	185.432
3026.35	137.037
3025.73	145.076
3025.11	149.083
3024.49	145.032
3023.87	128.897
3023.25	161.097
3022.63	153.018
3022	165.074
3021.38	132.844
3020.76	108.674
3020.14	144.876
3019.52	168.996
3018.9	181.039
3018.28	205.147
3017.66	144.787
3017.03	132.701
3016.41	132.681
3015.79	124.621
3015.17	168.815
3014.55	144.676
3013.92	160.727
3013.3	164.72
3012.68	148.627
3012.06	132.539
3011.43	160.628
3010.81	144.543
3010.19	172.622
3009.57	144.499
3008.94	144.477
3008.32	152.48
3007.7	148.444
3007.07	128.365
3006.45	152.409
3005.83	168.427
3005.2	152.363
3004.58	184.411
3003.96	144.299
3003.33	156.3
3002.71	156.276
3002.08	192.311
3001.46	148.217
3000.84	188.246
3000.21	148.171
2999.59	172.172
2998.96	136.115
2998.34	172.12
2997.71	136.074
2997.09	192.074
2996.46	140.033
2995.84	156.013
2995.21	143.989
2994.59	151.966
2993.96	191.927
2993.34	167.91
2992.71	151.896
2992.09	175.852
2991.46	167.833
2990.84	183.789
2990.21	167.781
2989.58	179.738
2988.96	135.781
2988.33	155.725
2987.71	167.678
2987.08	191.603
2986.45	187.582
2985.83	167.601
2985.2	195.504
2984.57	187.496
2983.95	183.478
2983.32	183.45
2982.69	183.422
2982.07	211.301
2981.44	159.448
2980.81	139.496
2980.18	163.384
2979.56	191.25
2978.93	163.334
2978.3	183.225
2977.67	179.214
2977.05	159.277
2976.42	179.159
2975.79	187.093
2975.16	167.163
2974.53	206.932
2973.91	167.112
2973.28	198.912
2972.65	163.083
2972.02	167.035
2971.39	155.08
2970.76	163.008
2970.13	206.71
2969.5	198.729
2968.88	226.516
2968.25	186.747
2967.62	206.582
2966.99	218.467
2966.36	206.519
2965.73	218.4
2965.1	178.663
2964.47	218.332
2963.84	178.608
2963.21	230.171
2962.58	202.36
2961.95	226.132
2961.32	174.531
2960.69	194.335
2960.06	241.89
2959.43	162.556
2958.8	241.815
2958.17	194.215
2957.53	198.148
2956.9	198.117
2956.27	198.087
2955.64	241.629
2955.01	241.592
2954.38	233.635
2953.75	221.721
2953.12	182.1
2952.48	209.778
2951.85	209.746
2951.22	185.972
2950.59	193.856
2949.96	201.738
2949.33	225.437
2948.69	197.721
2948.06	197.69
2947.43	213.473
2946.8	189.724
2946.16	173.887
2945.53	217.325
2944.9	209.39
2944.26	197.508
2943.63	225.124
2943	232.987
2942.37	177.675
2941.73	213.177
2941.1	193.408
2940.47	217.057
2939.83	232.807
2939.2	224.881
2938.56	260.348
2937.93	197.203
2937.3	240.551
2936.66	216.857
2936.03	260.188
2935.39	244.381
2934.76	208.874
2934.13	220.663
2933.49	216.689
2932.86	236.352
2932.22	252.07
2931.59	236.279
2930.95	185.057
2930.32	220.459
2929.68	216.489
2929.05	192.842
2928.41	224.292
2927.78	251.797
2927.14	243.891
2926.5	224.188
2925.87	251.681
2925.23	251.642
2924.6	224.084
2923.96	208.327
2923.32	243.665
2922.69	255.416
2922.05	263.234
2921.42	247.481
2920.78	251.37
2920.14	219.915
2919.51	251.292
2918.87	219.847
2918.23	223.738
2917.6	223.703
2916.96	231.517
2916.32	219.711
2915.68	184.372
2915.05	247.098
2914.41	227.452
2913.77	215.654
2913.13	199.939
2912.5	231.266
2911.86	242.988
2911.22	258.625
2910.58	278.175
2909.94	238.958
2909.31	235.004
2908.67	254.549
2908.03	223.185
2907.39	223.151
2906.75	207.459
2906.11	199.599
2905.47	250.439
2904.83	301.263
2904.2	258.185
2903.56	211.21
2902.92	277.659
2902.28	230.695
2901.64	254.116
2901	261.894
2900.36	293.12
2899.72	277.444
2899.08	234.423
2898.44	226.574
2897.8	195.292
2897.16	285.083
2896.52	238.183
2895.88	183.49
2895.24	261.53
2894.6	218.558
2893.96	257.547
2893.32	284.818
2892.67	269.17
2892.03	276.929
2891.39	272.986
2890.75	272.944
2890.11	269.003
2889.47	284.554
2888.83	253.33
2888.19	249.394
2887.54	300.006
2886.9	311.646
2886.26	272.648
2885.62	210.296
2884.98	280.351
2884.33	268.628
2883.69	284.157
2883.05	288.005
2882.41	272.395
2881.77	280.134
2881.12	287.871
2880.48	291.716
2879.84	311.116
2879.19	268.296
2878.55	322.682
2877.91	334.294
2877.26	279.83
2876.62	275.901
2875.98	299.17
2875.33	310.778
2874.69	299.078
2874.05	295.148
2873.4	252.39
2872.76	244.586
2872.11	279.483
2871.47	306.608
2870.83	267.755
2870.18	310.393
2869.54	275.431
2868.89	290.903
2868.25	302.492
2867.6	310.2
2866.96	290.767
2866.31	259.712
2865.67	294.553
2865.02	344.883
2864.38	325.458
2863.73	251.803
2863.09	263.384
2862.44	286.579
2861.8	251.686
2861.15	286.49
2860.5	286.446
2859.86	286.401
2859.21	321.184
2858.57	309.527
2857.92	274.662
2857.27	263.016
2856.63	290.046
2855.98	262.934
2855.33	297.688
2854.69	262.853
2854.04	309.19
2853.39	282.092
2852.75	285.912
2852.1	355.403
2851.45	293.548
2850.81	301.227
2850.16	316.625
2849.51	324.297
2848.86	304.946
2848.21	285.602
2847.57	308.71
2846.92	324.096
2846.27	304.757
2845.62	316.281
2844.97	327.801
2844.33	354.741
2843.68	346.975
2843.03	292.956
2842.38	350.722
2841.73	331.4
2841.08	304.378
2840.43	350.558
2839.78	300.432
2839.14	300.385
2838.49	338.843
2837.84	354.19
2837.19	354.135
2836.54	254.014
2835.89	315.544
2835.24	327.037
2834.59	311.599
2833.94	357.706
2833.29	319.193
2832.64	292.228
2831.99	334.472
2831.34	330.576
2830.69	303.621
2830.04	357.372
2829.39	326.58
2828.74	311.163
2828.08	265.023
2827.43	330.267
2826.78	341.735
2826.13	337.843
2825.48	356.983
2824.83	337.738
2824.18	318.498
2823.53	306.939
2822.87	360.597
2822.22	322.185
2821.57	329.805
2820.92	322.085
2820.27	337.37
2819.61	329.651
2818.96	314.269
2818.31	360.204
2817.66	287.352
2817	340.938
2816.35	314.074
2815.7	317.854
2815.05	359.923
2814.39	287.128
2813.74	298.567
2813.09	332.965
2812.43	332.913
2811.78	367.295
2811.13	351.936
2810.47	294.509
2809.82	317.409
2809.16	355.595
2808.51	294.372
2807.86	305.793
2807.2	370.716
2806.55	382.122
2805.89	389.704
2805.24	378.183
2804.58	359.027
2803.93	381.884
2803.28	370.37
2802.62	343.588
2801.97	374.071
2801.31	293.867
2800.66	347.243
2800	415.864
2799.34	373.838
2798.69	358.523
2798.03	354.654
2797.38	343.16
2796.72	365.98
2796.07	404.04
2795.41	327.755
2794.75	373.43
2794.1	354.322
2793.44	365.694
2792.79	365.637
2792.13	415.086
2791.47	361.716
2790.82	392.115
2790.16	426.311
2789.5	414.827
2788.84	369.1
2788.19	365.238
2787.53	407.025
2786.87	368.927
2786.22	387.884
2785.56	376.417
2784.9	383.961
2784.24	361.095
2783.59	353.438
2782.93	372.382
2782.27	357.127
2781.61	402.654
2780.95	368.409
2780.29	387.339
2779.64	406.262
2778.98	360.644
2778.32	360.588
2777.66	394.687
2777	383.242
2776.34	352.831
2775.68	451.401
2775.02	352.721
2774.36	375.418
2773.71	413.274
2773.05	398.046
2772.39	367.661
2771.73	409.291
2771.07	348.601
2770.41	409.163
2769.75	446.978
2769.09	412.822
2768.43	416.545
2767.77	367.259
2767.11	427.771
2766.45	427.704
2765.79	401.146
2765.12	401.084
2764.46	393.454
2763.8	397.176
2763.14	434.934
2762.48	374.363
2761.82	370.523
2761.16	412.048
2760.5	423.323
2759.83	449.71
2759.17	419.412
2758.51	449.569
2757.85	411.726
2757.19	430.545
2756.53	415.373
2755.86	434.186
2755.2	441.668
2754.54	411.404
2753.88	422.66
2753.21	411.275
2752.55	456.481
2751.89	463.954
2751.23	411.082
2750.56	414.788
2749.9	444.885
2749.24	418.428
2748.57	422.131
2747.91	440.907
2747.25	437.07
2746.58	455.838
2745.92	425.634
2745.25	470.76
2744.59	470.686
2743.93	395.314
2743.26	414.074
2742.6	436.591
2741.93	459.102
2741.27	383.779
2740.61	489.053
2739.94	470.17
2739.28	436.249
2738.61	443.701
2737.95	443.632
2737.28	477.393
2736.62	451.009
2735.95	439.665
2735.29	450.868
2734.62	435.771
2733.95	465.751
2733.29	476.944
2732.62	476.869
2731.96	439.252
2731.29	416.661
2730.62	461.633
2729.96	506.591
2729.29	521.519
2728.63	491.426
2727.96	457.592
2727.29	513.773
2726.63	487.445
2725.96	464.875
2725.29	476.047
2724.62	445.99
2723.96	483.392
2723.29	475.823
2722.62	490.733
2721.96	460.692
2721.29	441.895
2720.62	441.826
2719.95	467.962
2719.28	464.146
2718.62	479.043
2717.95	505.161
2717.28	508.823
2716.61	486.299
2715.94	493.703
2715.27	497.365
2714.61	515.982
2713.94	500.947
2713.27	527.033
2712.6	497.053
2711.93	489.501
2711.26	478.216
2710.59	489.347
2709.92	530.354
2709.25	504.131
2708.58	451.78
2707.91	470.374
2707.24	522.556
2706.57	522.474
2705.9	477.615
2705.23	455.156
2704.56	537.148
2703.89	466.201
2703.22	492.231
2702.55	466.055
2701.88	480.893
2701.21	510.636
2700.54	480.742
2699.87	462.036
2699.2	551.375
2698.53	551.289
2697.86	495.337
2697.19	513.878
2696.51	484.012
2695.84	480.213
2695.17	483.859
2694.5	513.554
2693.83	498.59
2693.15	520.833
2692.48	457.517
2691.81	498.355
2691.14	554.054
2690.47	524.224
2689.79	527.858
2689.12	501.758
2688.45	542.557
2687.77	512.747
2687.1	538.671
2686.43	512.586
2685.76	538.502
2685.08	579.262
2684.41	527.194
2683.74	534.535
2683.06	519.605
2682.39	489.836
2681.71	512.021
2681.04	504.521
2680.37	530.405
2679.69	537.739
2679.02	533.946
2678.34	567.229
2677.67	533.778
2676.99	500.338
2676.32	522.493
2675.65	518.706
2674.97	529.737
2674.3	570.396
2673.62	570.307
2672.95	514.676
2672.27	533.106
2671.59	507.111
2670.92	581.05
2670.24	540.254
2669.57	584.567
2668.89	584.475
2668.22	536.3
2667.54	595.384
2666.86	506.552
2666.19	580.409
2665.51	628.37
2664.83	569.139
2664.16	569.049
2663.48	605.905
2662.8	576.258
2662.13	572.474
2661.45	590.847
2660.77	631.368
2660.1	590.661
2659.42	557.348
2658.74	616.308
2658.06	612.521
2657.39	586.599
2656.71	630.771
2656.03	590.102
2655.35	582.634
2654.68	626.786
2654	619.314
2653.32	563.929
2652.64	589.637
2651.96	578.49
2651.28	652.08
2650.6	556.206
2649.93	607.679
2649.25	585.489
2648.57	607.487
2647.89	607.391
2647.21	570.489
2646.53	621.919
2645.85	592.386
2645.17	632.759
2644.49	592.199
2643.81	584.75
2643.13	621.428
2642.45	577.212
2641.77	606.528
2641.09	624.809
2640.41	613.686
2639.73	628.286
2639.05	635.534
2638.37	606.049
2637.69	620.643
2637.01	620.545
2636.33	609.433
2635.65	646.044
2634.96	609.241
2634.28	598.136
2633.6	667.752
2632.92	583.273
2632.24	583.181
2631.56	656.433
2630.88	626.996
2630.19	623.231
2629.51	593.809
2628.83	645.024
2628.15	681.565
2627.46	630.165
2626.78	652.044
2626.1	655.603
2625.42	626.204
2624.73	713.979
2624.05	669.936
2623.37	600.285
2622.69	633.127
2622	614.731
2621.32	647.561
2620.64	662.09
2619.95	621.754
2619.27	683.821
2618.58	661.776
2617.9	716.506
2617.22	698.117
2616.53	621.262
2615.85	668.665
2615.16	683.172
2614.48	679.411
2613.79	653.739
2613.11	635.377
2612.43	700.995
2611.74	635.176
2611.06	689.823
2610.37	591.183
2609.69	718.794
2609	656.663
2608.31	678.444
2607.63	685.63
2606.94	678.229
2606.26	678.121
2605.57	678.014
2604.89	699.775
2604.2	648.647
2603.51	695.909
2602.83	648.441
2602.14	724.828
2601.45	746.563
2600.77	699.11
2600.08	713.561
2599.39	695.248
2598.71	724.253
2598.02	738.694
2597.33	731.3
2596.65	716.634
2595.96	712.883
2595.27	727.316
2594.58	727.201
2593.9	723.45
2593.21	690.622
2592.52	755.929
2591.83	712.205
2591.14	690.293
2590.46	751.937
2589.77	650.123
2589.08	686.333
2588.39	657.178
2587.7	686.116
2587.01	718.674
2586.32	696.785
2585.64	765.616
2584.95	780.007
2584.26	761.746
2583.57	761.625
2582.88	736.121
2582.19	699.748
2581.5	717.762
2580.81	724.897
2580.12	757.397
2579.43	742.784
2578.74	757.157
2578.05	709.948
2577.36	778.646
2576.67	727.828
2575.98	695.128
2575.29	687.778
2574.6	745.578
2573.91	741.84
2573.22	777.904
2572.52	748.84
2571.83	748.721
2571.14	755.835
2570.45	712.325
2569.76	788.132
2569.07	784.393
2568.38	766.197
2567.68	708.258
2566.99	755.115
2566.3	718.871
2565.61	722.368
2564.92	780.034
2564.22	808.795
2563.53	776.176
2562.84	750.785
2562.14	808.41
2561.45	768.589
2560.76	696.31
2560.07	757.523
2559.37	804.289
2558.68	796.949
2557.99	789.611
2557.29	749.831
2556.6	782.151
2555.91	789.234
2555.21	745.87
2554.52	745.751
2553.82	770.847
2553.13	831.951
2552.44	748.997
2551.74	702.073
2551.05	766.757
2550.35	770.234
2549.66	852.881
2548.96	744.803
2548.27	813.037
2547.57	791.326
2546.88	801.989
2546.18	798.266
2545.49	776.567
2544.79	851.931
2544.1	776.32
2543.4	858.847
2542.7	779.666
2542.01	804.688
2541.31	768.642
2540.62	797.25
2539.92	800.713
2539.22	832.896
2538.53	879.427
2537.83	829.042
2537.13	818.145
2536.44	853.893
2535.74	842.995
2535.04	871.554
2534.35	778.177
2533.65	799.566
2532.95	824.533
2532.25	853.077
2531.56	906.697
2530.86	788.307
2530.16	824.008
2529.46	870.443
2528.76	852.397
2528.07	834.357
2527.37	887.929
2526.67	776.814
2525.97	798.165
2525.27	844.561
2524.57	787.177
2523.88	819.249
2523.18	833.426
2522.48	879.786
2521.78	876.07
2521.08	879.505
2520.38	843.618
2519.68	864.928
2518.98	829.055
2518.28	857.506
2517.58	825.218
2516.88	903.666
2516.18	939.234
2515.48	878.383
2514.78	903.234
2514.08	856.686
2513.38	874.394
2512.68	824.297
2511.98	881.25
2511.28	888.244
2510.58	880.969
2509.88	937.886
2509.17	916.343
2508.47	887.677
2507.77	887.536
2507.07	905.213
2506.37	944.264
2505.67	897.799
2504.97	929.714
2504.26	911.758
2503.56	858.198
2502.86	882.984
2502.16	861.483
2501.45	882.702
2500.75	943.059
2500.05	942.908
2499.35	871.606
2498.64	921.265
2497.94	942.456
2497.24	920.97
2496.53	881.715
2495.83	906.457
2495.13	913.421
2494.42	948.811
2493.72	941.553
2493.02	941.402
2492.31	934.148
2491.61	820.356
2490.9	912.545
2490.2	908.849
2489.5	919.352
2488.79	929.852
2488.09	965.189
2487.38	957.939
2486.68	950.691
2485.97	954.085
2485.27	907.832
2484.56	918.324
2483.86	939.447
2483.15	996.009
2482.45	1002.94
2481.74	931.91
2481.04	935.303
2480.33	917.443
2479.62	984.588
2478.92	956.101
2478.21	955.948
2477.51	952.255
2476.8	948.563
2476.09	969.645
2475.39	951.798
2474.68	930.419
2473.97	1004.55
2473.27	1029.15
2472.56	944.117
2471.85	996.997
2471.14	1003.91
2470.44	1000.21
2469.73	922.31
2469.02	996.359
2468.31	999.732
2467.61	999.572
2466.9	985.286
2466.19	985.128
2465.48	932.015
2464.77	991.872
2464.07	974.067
2463.36	899.809
2462.65	987.867
2461.94	1033.57
2461.23	998.132
2460.52	1012.08
2459.81	1018.97
2459.1	1025.85
2458.4	1036.26
2457.69	1004.38
2456.98	979.554
2456.27	1021.67
2455.56	1017.99
2454.85	993.171
2454.14	1066.96
2453.43	1063.27
2452.72	1049.02
2452.01	957.338
2451.3	1038.12
2450.59	995.734
2449.88	1009.65
2449.16	1093.9
2448.45	1058.56
2447.74	1009.16
2447.03	1047.67
2446.32	1086.17
2445.61	1068.42
2444.9	1061.22
2444.19	1092.67
2443.47	1039.8
2442.76	1071.25
2442.05	1088.64
2441.34	1063.88
2440.63	1095.31
2439.91	1091.62
2439.2	1049.33
2438.49	1070.22
2437.78	1143.72
2437.06	1017.26
2436.35	1062.69
2435.64	1059.01
2434.93	1083.38
2434.21	1170.85
2433.5	1104.06
2432.79	1061.83
2432.07	1096.7
2431.36	1089.52
2430.64	1036.8
2429.93	1054.15
2429.22	1110
2428.5	1165.84
2427.79	1032.64
2427.07	1119.97
2426.36	1039.3
2425.65	1144.1
2424.93	1147.41
2424.22	1084.27
2423.5	1080.6
2422.79	1108.4
2422.07	1111.72
2421.36	1146.49
2420.64	1146.31
2419.92	1111.18
2419.21	1124.98
2418.49	1065.41
2417.78	1187.48
2417.06	1183.8
2416.35	1138.22
2415.63	1120.58
2414.91	1200.68
2414.2	1102.77
2413.48	1116.55
2412.76	1154.75
2412.05	1098.75
2411.33	1084.63
2410.61	1192.55
2409.9	1140.06
2409.18	1174.74
2408.46	1122.27
2407.74	1153.45
2407.03	1087.06
2406.31	1156.56
2405.59	1131.99
2404.87	1131.81
2404.16	1222.16
2403.44	1103.6
2402.72	1173.03
2402	1158.92
2401.28	1186.58
2400.56	1123.76
2399.85	1109.67
2399.13	1213.83
2398.41	1189.29
2397.69	1237.77
2396.97	1129.81
2396.25	1174.81
2395.53	1143.35
2394.81	1195.28
2394.09	1177.72
2393.37	1187.95
2392.65	1236.38
2391.93	1191.04
2391.21	1138.77
2390.49	1149
2389.77	1183.52
2389.05	1152.1
2388.33	1169.26
2387.61	1217.64
2386.89	1151.54
2386.17	1192.97
2385.45	1210.12
2384.73	1199.52
2384	1220.12
2383.28	1237.26
2382.56	1257.85
2381.84	1236.86
2381.12	1264.37
2380.4	1264.17
2379.67	1288.2
2378.95	1236.06
2378.23	1187.4
2377.51	1291.04
2376.79	1242.38
2376.06	1259.48
2375.34	1276.58
2374.62	1269.45
2373.9	1227.75
2373.17	1217.18
2372.45	1237.72
2371.73	1258.26
2371	1289.17
2370.28	1209.48
2369.56	1247.29
2368.83	1292
2368.11	1246.89
2367.38	1308.85
2366.66	1267.2
2365.94	1332.59
2365.21	1273.7
2364.49	1297.65
2363.76	1235.33
2363.04	1304.13
2362.31	1276.32
2361.59	1358.89
2360.86	1258.67
2360.14	1258.47
2359.41	1313.42
2358.69	1268.4
2357.96	1292.32
2357.24	1316.23
2356.51	1288.46
2355.79	1305.47
2355.06	1246.71
2354.33	1308.49
2353.61	1277.29
2352.88	1373.47
2352.15	1245.91
2351.43	1348.94
2350.7	1314.32
2349.98	1290.02
2349.25	1300.13
2348.52	1238.02
2347.79	1337.53
2347.07	1357.94
2346.34	1295.85
2345.61	1381.56
2344.88	1350.41
2344.16	1374.24
2343.43	1336.24
2342.7	1325.72
2341.97	1342.67
2341.25	1356.19
2340.52	1369.7
2339.79	1376.34
2339.06	1365.83
2338.33	1372.47
2337.6	1303.63
2336.87	1327.43
2336.14	1436.96
2335.42	1447.02
2334.69	1285.65
2333.96	1419.12
2333.23	1370.91
2332.5	1384.4
2331.77	1452.7
2331.04	1459.31
2330.31	1311.8
2329.58	1393.77
2328.85	1379.85
2328.12	1465.21
2327.39	1379.41
2326.66	1416.83
2325.93	1426.86
2325.2	1361.63
2324.47	1368.25
2323.73	1453.53
2323	1443.04
2322.27	1398.36
2321.54	1428.9
2320.81	1394.49
2320.08	1384.01
2319.35	1421.37
2318.61	1424.55
2317.88	1485.8
2317.15	1417.26
2316.42	1451.18
2315.69	1437.29
2314.95	1450.71
2314.22	1481.19
2313.49	1409.29
2312.76	1460.24
2312.02	1402.01
2311.29	1360.85
2310.56	1435.66
2309.82	1534.3
2309.09	1421.55
2308.36	1506.54
2307.62	1475.62
2306.89	1492.42
2306.16	1475.14
2305.42	1461.28
2304.69	1484.88
2303.95	1518.69
2303.22	1484.4
2302.48	1525
2301.75	1521.35
2301.02	1439.44
2300.28	1527.67
2299.55	1503.6
2298.81	1438.74
2298.08	1554.13
2297.34	1451.87
2296.6	1495.83
2295.87	1492.19
2295.13	1519.13
2294.4	1478.11
2293.66	1535.63
2292.93	1538.77
2292.19	1548.71
2291.45	1538.27
2290.72	1599.14
2289.98	1547.96
2289.24	1574.86
2288.51	1493.16
2287.77	1465.77
2287.03	1519.81
2286.3	1567.05
2285.56	1427.75
2284.82	1590.28
2284.08	1488.31
2283.35	1630.44
2282.61	1538.67
2281.87	1609.58
2281.13	1568.66
2280.4	1625.99
2279.66	1591.86
2278.92	1561.12
2278.18	1547.32
2277.44	1608.01
2276.7	1560.36
2275.97	1593.95
2275.23	1600.46
2274.49	1579.9
2273.75	1606.7
2273.01	1640.26
2272.27	1545.31
2271.53	1534.92
2270.79	1615.8
2270.05	1618.91
2269.31	1679.48
2268.57	1611.63
2267.83	1584.34
2267.09	1550.31
2266.35	1580.45
2265.61	1691.62
2264.87	1596.81
2264.13	1630.31
2263.39	1552.42
2262.65	1656.77
2261.91	1653.13
2261.17	1592.14
2260.42	1679.57
2259.68	1581.51
2258.94	1658.8
2258.2	1705.72
2257.46	1594.22
2256.72	1641.14
2255.97	1674.56
2255.23	1637.23
2254.49	1616.76
2253.75	1747.83
2253	1717.24
2252.26	1673.2
2251.52	1743.61
2250.78	1672.65
2250.03	1685.84
2249.29	1611.55
2248.55	1665.11
2247.8	1627.84
2247.06	1752
2246.32	1620.59
2245.57	1721.17
2244.83	1788.11
2244.09	1703.81
2243.34	1797.61
2242.6	1686.45
2241.85	1655.95
2241.11	1712.77
2240.36	1692.34
2239.62	1682
2238.88	1685.08
2238.13	1688.16
2237.39	1640.91
2236.64	1731.23
2235.89	1700.75
2235.15	1660.23
2234.4	1720.32
2233.66	1777.04
2232.91	1796.86
2232.17	1712.77
2231.42	1762.76
2230.67	1792.63
2229.93	1732.04
2229.18	1718.35
2228.44	1764.96
2227.69	1707.75
2226.94	1720.86
2226.2	1687.11
2225.45	1703.56
2224.7	1820.41
2223.95	1779.96
2223.21	1789.71
2222.46	1852.96
2221.71	1809.19
2220.96	1802.2
2220.22	1835.34
2219.47	1774.88
2218.72	1808.01
2217.97	1894.59
2217.22	1763.98
2216.48	1873.93
2215.73	1693.27
2214.98	1913.38
2214.23	1816.25
2213.48	1825.97
2212.73	1909.11
2211.98	1825.37
2211.23	1848.43
2210.48	1804.76
2209.73	1737.76
2208.98	1907.55
2208.23	1837.22
2207.48	1853.59
2206.73	1916.61
2205.98	1846.31
2205.23	1802.69
2204.48	1892.35
2203.73	1865.39
2202.98	1845.11
2202.23	1834.81
2201.48	1887.79
2200.73	1914.11
2199.98	1883.84
2199.23	1863.56
2198.48	1849.95
2197.72	1896.22
2196.97	1739.58
2196.22	1972.09
2195.47	1931.87
2194.72	1978.09
2193.97	1871.4
2193.21	1957.51
2192.46	1973.8
2191.71	1966.83
2190.96	1853.57
2190.2	1839.98
2189.45	1856.28
2188.7	1972.18
2187.94	1935.35
2187.19	2001.41
2186.44	2027.63
2185.68	1944.35
2184.93	2023.65
2184.18	1993.47
2183.42	1969.93
2182.67	1959.65
2181.91	1992.49
2181.16	1985.53
2180.41	1925.55
2179.65	2008.08
2178.9	1885.16
2178.14	1931.23
2177.39	1993.84
2176.63	1917.35
2175.88	1913.72
2175.12	2032.59
2174.37	1939.58
2173.61	1998.83
2172.86	2015.04
2172.1	2021.33
2171.34	1981.3
2170.59	1967.75
2169.83	1881.46
2169.08	2072.9
2168.32	1966.78
2167.56	2052.39
2166.81	1995.88
2166.05	2015.37
2165.29	2048.08
2164.54	2093.98
2163.78	1961.55
2163.02	2040.47
2162.27	2083.05
2161.51	1937.48
2160.75	2049.36
2159.99	1903.84
2159.23	2058.59
2158.48	2054.95
2157.72	2041.42
2156.96	2083.95
2156.2	2027.56
2155.44	2119.53
2154.69	2089.52
2153.93	2099.06
2153.17	2082.24
2152.41	1986.37
2151.65	1976.16
2150.89	2094.39
2150.13	2110.51
2149.37	2189.17
2148.61	2086.77
2147.85	2073.27
2147.09	2118.99
2146.33	2089.03
2145.57	1980.15
2144.81	2173.86
2144.05	2078.14
2143.29	2127.11
2142.53	2110.33
2141.77	2129.7
2141.01	2221.36
2140.25	2165.14
2139.49	2148.36
2138.73	2174.28
2137.97	2170.64
2137.2	2091.49
2136.44	2137.1
2135.68	2120.34
2134.92	2185.62
2134.16	2224.64
2133.4	2263.64
2132.63	2164.86
2131.87	2154.67
2131.11	2085.46
2130.35	2212.97
2129.58	2179.83
2128.82	2084.43
2128.06	2188.94
2127.29	2208.24
2126.53	2214.43
2125.77	2273.02
2125	2213.7
2124.24	2291.92
2123.48	2232.61
2122.71	2202.79
2121.95	2153.34
2121.19	2202.06
2120.42	2168.99
2119.66	2149
2118.89	2227.14
2118.13	2331.41
2117.36	2144.67
2116.6	2402.55
2115.83	2343.33
2115.07	2199.17
2114.3	2309.89
2113.54	2348.71
2112.77	2380.98
2112.01	2312.01
2111.24	2305.1
2110.48	2347.16
2109.71	2209.69
2108.94	2320.28
2108.18	2231.8
2107.41	2420.65
2106.64	2348.49
2105.88	2308.96
2105.11	2295.54
2104.34	2331.03
2103.58	2392.57
2102.81	2287.89
2102.04	2362.46
2101.28	2212.2
2100.51	2391
2099.74	2325.46
2098.97	2341.36
2098.21	2282.37
2097.44	2412.21
2096.67	2389.03
2095.9	2437.45
2095.13	2313.4
2094.36	2286.99
2093.6	2478.52
2092.83	2432.59
2092.06	2321.63
2091.29	2402.52
2090.52	2447.63
2089.75	2434.23
2088.98	2398.08
2088.21	2358.7
2087.44	2452.52
2086.67	2448.86
2085.9	2331.56
2085.13	2314.94
2084.36	2421.68
2083.59	2366.1
2082.82	2463.07
2082.05	2436.7
2081.28	2507.67
2080.51	2432.66
2079.74	2399.82
2078.97	2415.64
2078.2	2434.69
2077.43	2476.43
2076.65	2472.78
2075.88	2427.01
2075.11	2475.2
2074.34	2380.85
2073.57	2532.68
2072.8	2441.59
2072.02	2476.8
2071.25	2392.23
2070.48	2469.51
2069.71	2430.27
2068.93	2494.58
2068.16	2439.17
2067.39	2539.04
2066.61	2522.45
2065.84	2421.8
2065.07	2657.39
2064.29	2401.6
2063.52	2566.03
2062.75	2394.35
2061.97	2545.79
2061.2	2551.83
2060.43	2580.48
2059.65	2499.32
2058.88	2521.51
2058.1	2563.06
2057.33	2565.86
2056.55	2487.99
2055.78	2503.71
2055	2477.49
2054.23	2496.43
2053.45	2544.39
2052.68	2595.56
2051.9	2659.6
2051.13	2552.79
2050.35	2629.72
2049.57	2593.84
2048.8	2535.42
2048.02	2641.3
2047.25	2634.42
2046.47	2685.5
2045.69	2611.01
2044.92	2584.82
2044.14	2655.2
2043.36	2493.87
2042.59	2548.15
2041.81	2579.89
2041.03	2627.71
2040.25	2659.43
2039.48	2617.2
2038.7	2594.26
2037.92	2645.26
2037.14	2622.32
2036.37	2538.35
2035.59	2688.92
2034.81	2576.05
2034.03	2684.81
2033.25	2539.88
2032.47	2706.4
2031.69	2616.07
2030.92	2596.38
2030.14	2672.96
2029.36	2669.31
2028.58	2579.05
2027.8	2633.15
2027.02	2716.08
2026.24	2657.92
2025.46	2747.24
2024.68	2676.27
2023.9	2730.31
2023.12	2656.16
2022.34	2764.64
2021.56	2680.9
2020.78	2734.9
2020	2724.84
2019.21	2676.37
2018.43	2720.73
2017.65	2729.88
2016.87	2710.23
2016.09	2684.19
2015.31	2805.3
2014.53	2859.2
2013.74	2705.24
2012.96	2739.96
2012.18	2844.99
2011.4	2860.5
2010.62	2655.51
2009.83	2667.85
2009.05	2680.18
2008.27	2740.42
2007.49	2813.41
2006.7	2902.35
2005.92	2758.21
2005.14	2834.36
2004.35	2687.08
2003.57	2712.16
2002.79	2880.8
2002	2730.4
2001.22	2809.68
2000.43	2828.34
1999.65	2878.88
1998.87	2811.46
1998.08	2874.74
1997.3	2957.11
1996.51	2864.22
1995.73	2882.86
1994.94	2856.9
1994.16	2821.4
1993.37	2843.22
1992.59	2817.28
1991.8	2832.72
1991.02	2825.89
1990.23	2949.51
1989.44	2974.47
1988.66	2805.39
1987.87	3014.82
1987.09	2801.28
1986.3	2931.16
1985.51	2914.78
1984.73	2927.01
1983.94	2983.71
1983.15	2872.02
1982.37	2833.43
1981.58	2953.64
1980.79	3016.66
1980	2924.08
1979.22	3009.3
1978.43	2951.67
1977.64	2998.78
1976.85	2947.52
1976.06	2924.82
1975.28	2952.88
1974.49	2895.31
1973.7	2993.12
1972.91	2970.43
1972.12	3068.19
1971.33	2896.55
1970.54	2965.77
1969.76	3047.65
1968.97	2993.29
1968.18	2992.8
1967.39	3055.63
1966.6	3102.61
1965.81	3117.92
1965.02	3092.08
1964.23	2971.32
1963.44	3002.46
1962.65	3119
1961.86	3112.16
1961.07	3143.26
1960.28	3085.82
1959.48	3053.7
1958.69	3106.92
1957.9	3109.56
1957.11	2944.74
1956.32	3111.68
1955.53	3041.68
1954.74	3060.12
1953.94	2996.46
1953.15	3122.24
1952.36	3045.96
1951.57	2998.11
1950.78	3095.43
1949.98	3170.63
1949.19	3204.8
1948.4	3068.65
1947.61	3128.05
1946.81	3036.1
1946.02	3142.77
1945.23	3148.55
1944.43	3151.17
1943.64	3103.39
1942.85	3159.57
1942.05	3140.15
1941.26	3158.52
1940.46	3072.98
1939.67	3132.28
1938.88	3197.85
1938.08	3191.02
1937.29	3231.4
1936.49	3337.82
1935.7	3173.7
1934.9	3132.29
1934.11	3251.25
1933.31	3197.26
1932.52	3149.58
1931.72	3199.33
1930.93	3167.38
1930.13	3204.55
1929.33	3207.15
1928.54	3212.9
1927.74	3315.99
1926.95	3268.34
1926.15	3248.96
1925.35	3251.55
1924.56	3163.14
1923.76	3278.7
1922.96	3259.33
1922.17	3268.2
1921.37	3204.93
1920.57	3351.76
1919.77	3247.75
1918.98	3162.58
1918.18	3252.93
1917.38	3239.85
1916.58	3223.65
1915.78	3345.27
1914.99	3335.31
1914.19	3441.22
1913.39	3374.89
1912.59	3308.6
1911.79	3348.73
1910.99	3226.13
1910.19	3275.65
1909.39	3534.73
1908.59	3321.47
1907.8	3336.55
1907	3407.9
1906.2	3404.2
1905.4	3334.87
1904.6	3459.31
1903.8	3324.38
1903	3339.44
1902.2	3348.25
1901.39	3422.64
1900.59	3397.09
1899.79	3502.66
1898.99	3424.04
1898.19	3364.18
1897.39	3422.9
1896.59	3384.89
1895.79	3337.53
1894.99	3477.31
1894.18	3461.14
1893.38	3547.85
1892.58	3469.33
1891.78	3481.21
1890.98	3412.08
1890.17	3573.51
1889.37	3417.16
1888.57	3491.34
1887.76	3462.73
1886.96	3508.85
1886.16	3430.44
1885.36	3451.65
1884.55	3507.08
1883.75	3459.83
1882.94	3565.01
1882.14	3461.78
1881.34	3560.71
1880.53	3584.98
1879.73	3450.71
1878.92	3555.81
1878.12	3530.35
1877.32	3532.86
1876.51	3600.62
1875.71	3531.68
1874.9	3537.3
1874.1	3530.49
1873.29	3582.68
1872.49	3473.44
1871.68	3559.75
1870.87	3559.15
1870.07	3499.61
1869.26	3582.77
1868.46	3613.19
1867.65	3525.76
1866.84	3658.48
1866.04	3555.57
1865.23	3604.56
1864.42	3616.35
1863.62	3538.29
1862.81	3615.14
1862	3757.01
1861.2	3521.02
1860.39	3579.26
1859.58	3671.53
1858.77	3664.72
1857.96	3599.12
1857.16	3691.34
1856.35	3616.47
1855.54	3625.14
1854.73	3723.49
1853.92	3716.68
1853.12	3728.42
1852.31	3811.26
1851.5	3776.62
1850.69	3587.49
1849.88	3614.7
1849.07	3586.29
1848.26	3801.88
1847.45	3711.69
1846.64	3772.81
1845.83	3654.87
1845.02	3731.42
1844.21	3733.88
1843.4	3730.16
1842.59	3704.86
1841.78	3731.99
1840.97	3719.03
1840.16	3659.82
1839.35	3720.86
1838.54	3788.04
1837.72	3753.51
1836.91	3759.04
1836.1	3755.32
1835.29	3696.17
1834.48	3775.62
1833.67	3787.3
1832.85	3718.93
1832.04	3850.66
1831.23	3859.25
1830.42	3864.75
1829.6	3916.4
1828.79	3940.35
1827.98	3875.1
1827.17	3745.3
1826.35	3738.52
1825.54	3894.66
1824.73	3887.86
1823.91	3853.4
1823.1	3818.95
1822.29	3830.6
1821.47	3885.24
1820.66	3810.88
1819.84	3908.49
1819.03	3950.81
1818.21	3934.8
1817.4	3931.06
1816.58	3841.42
1815.77	3862.25
1814.95	3932.14
1814.14	3894.68
1813.32	3982.94
1812.51	3838.18
1811.69	3960.14
1810.88	3913.5
1810.06	3943.49
1809.25	3899.93
1808.43	4046.3
1807.61	3929.24
1806.8	3946.95
1805.98	3906.48
1805.16	3896.64
1804.35	4027.58
1803.53	3968.77
1802.71	3983.39
1801.89	3887.89
1801.08	3868.89
1800.26	3935.51
1799.44	3968.47
1798.62	4090.08
1797.81	4043.54
1796.99	3981.74
1796.17	4133.84
1795.35	4087.32
1794.53	4019.43
1793.71	4088.99
1792.9	4131.05
1792.08	4029.61
1791.26	4105.23
1790.44	3955.01
1789.62	4189.28
1788.8	3914.01
1787.98	4166.51
1787.16	4196.3
1786.34	4091.92
1785.52	4042.46
1784.7	4166.74
1783.88	4001.47
1783.06	4092.21
1782.24	4091.51
1781.42	4173.07
1780.6	4059.68
1779.78	4156.43
1778.95	4161.82
1778.13	4036.31
1777.31	4038.67
1776.49	4083.63
1775.67	3985.58
1774.85	4234.35
1774.02	4224.51
1773.2	3986.6
1772.38	4098.42
1771.56	4115.97
1770.74	4169.98
1769.91	4144.96
1769.09	4110.84
1768.27	4110.14
1767.44	4066.93
1766.62	4199.86
1765.8	4183.96
1764.97	4146.83
1764.15	4167.37
1763.33	4160.6
1762.5	4159.89
1761.68	4180.42
1760.85	4200.95
1760.03	4200.24
1759.21	4275.33
1758.38	4201.85
1757.56	4258.73
1756.73	4288.31
1755.91	4278.49
1755.08	4380.77
1754.26	4264.93
1753.43	4294.49
1752.6	4317.99
1751.78	4359.64
1750.95	4398.25
1750.13	4421.72
1749.3	4266.65
1748.47	4362.74
1747.65	4310.57
1746.82	4470.14
1745.99	4396.81
1745.17	4399.08
1744.34	4443.68
1743.51	4358.3
1742.69	4387.78
1741.86	4429.34
1741.03	4416.5
1740.2	4612.08
1739.38	4656.59
1738.55	4583.34
1737.72	4558.41
1736.89	4699.5
1736.06	4565.92
1735.23	4556.09
1734.4	4672.97
1733.58	4599.79
1732.75	4689.48
1731.92	4670.59
1731.09	4790.39
1730.26	4861.92
1729.43	4604.93
1728.6	4827.12
1727.77	4817.26
1726.94	4900.79
1726.11	4963.2
1725.28	5010.53
1724.45	5009.68
1723.62	4969.7
1722.79	5010.99
1721.96	4934.91
1721.13	4991.24
1720.3	4797.87
1719.46	4926.38
1718.63	4757.15
1717.8	4876.61
1716.97	4761.55
1716.14	4751.72
1715.31	4534.55
1714.47	4705.04
1713.64	4830.41
1712.81	4685.42
1711.98	4540.48
1711.14	4686.83
1710.31	4716.05
1709.48	4625.21
1708.65	4636.43
1707.81	4539.62
1706.98	4583.85
1706.15	4592.07
1705.31	4636.27
1704.48	4452.58
1703.64	4469.81
1702.81	4558.97
1701.98	4597.16
1701.14	4611.36
1700.31	4628.55
1699.47	4486.98
1698.64	4597.02
1697.8	4710.02
1696.97	4583.48
1696.13	4570.73
1695.3	4659.74
1694.46	4646.97
1693.63	4759.87
1692.79	4747.09
1691.95	4698.43
1691.12	4658.76
1690.28	4637.04
1689.45	4663.15
1688.61	4665.35
1687.77	4601.8
1686.94	4624.92
1686.1	4701.8
1685.26	4817.48
1684.42	4852.49
1683.59	4702.38
1682.75	4818
1681.91	4715.7
1681.07	4717.88
1680.24	4773.77
1679.4	4829.63
1678.56	4775.12
1677.72	4783.26
1676.88	4627.4
1676.04	4599.78
1675.21	4724.18
1674.37	4756.16
1673.53	4695.75
1672.69	4721.77
1671.85	4723.94
1671.01	4842.25
1670.17	4633
1669.33	4685.8
1668.49	4792.15
1667.65	4708.01
1666.81	4805.4
1665.97	4754
1665.13	4815.65
1664.29	4895.13
1663.45	4816.98
1662.61	4729.95
1661.77	4717.25
1660.92	4873.96
1660.08	4899.87
1659.24	4806.93
1658.4	4797.2
1657.56	4867.66
1656.72	4783.69
1655.87	4845.22
1655.03	4805.8
1654.19	4911.82
1653.35	4958.46
1652.5	4904.21
1651.66	4823.28
1650.82	4872.88
1649.98	4783.09
1649.13	4918.65
1648.29	4855.56
1647.45	4848.81
1646.6	4836.12
1645.76	4811.6
1644.91	4944.08
1644.07	4940.27
1643.23	4791.36
1642.38	4944.5
1641.54	4979.18
1640.69	4957.61
1639.85	4891.66
1639	4914.49
1638.16	4916.61
1637.31	4912.81
1636.47	4852.83
1635.62	4878.61
1634.78	4925.08
1633.93	4838.52
1633.08	4994.32
1632.24	5011.19
1631.39	5096.01
1630.55	4956.31
1629.7	4940.7
1628.85	5090.44
1628.01	4980.34
1627.16	5029.66
1626.31	5017
1625.46	5072.2
1624.62	5077.24
1623.77	5206.15
1622.92	5155.12
1622.07	5195.52
1621.23	5238.86
1620.38	5243.85
1619.53	5184.01
1618.68	5354.03
1617.83	5571.13
1616.98	5502.43
1616.13	5772.43
1615.29	5686.05
1614.44	6097.25
1613.59	6105.04
1612.74	6059.85
1611.89	5967.59
1611.04	6125.44
1610.19	5897.89
1609.34	5823.35
1608.49	5695.91
1607.64	5518.53
1606.79	5529.34
1605.94	5578.36
1605.09	5512.75
1604.24	5514.75
1603.38	5355.17
1602.53	5254.39
1601.68	5297.54
1600.83	5264.34
1599.98	5278.11
1599.13	5297.75
1598.27	5323.25
1597.42	5213.78
1596.57	5297.96
1595.72	5238.39
1594.87	5228.7
1594.01	5198.48
1593.16	5247.42
1592.31	5281.69
1591.45	5359.91
1590.6	5332.62
1589.75	5252.61
1588.89	5219.49
1588.04	5365.02
1587.19	5214.77
1586.33	5278.28
1585.48	5154.44
1584.62	5381.82
1583.77	5155.6
1582.92	5339.02
1582.06	5291.3
1581.21	5319.64
1580.35	5453.23
1579.5	5370.43
1578.64	5302.28
1577.78	5304.3
1576.93	5271.24
1576.07	5352.14
1575.22	5257.75
1574.36	5344.46
1573.51	5393.18
1572.65	5266.72
1571.79	5295
1570.94	5267.83
1570.08	5296.1
1569.22	5233.92
1568.37	5440.13
1567.51	5372.11
1566.65	5324.54
1565.79	5402.34
1564.94	5459.71
1564.08	5374.25
1563.22	5282.99
1562.36	5515.16
1561.5	5455.95
1560.65	5457.93
1559.79	5401.66
1558.93	5432.76
1558.07	5393.98
1557.21	5340.67
1556.35	5459.06
1555.49	5472.66
1554.63	5352.45
1553.77	5406.79
1552.91	5455.3
1552.05	5410.75
1551.19	5459.24
1550.33	5443.76
1549.47	5361.46
1548.61	5450.61
1547.75	5432.24
1546.89	5428.4
1546.03	5502.97
1545.17	5412.01
1544.31	5611.38
1543.45	5563.98
1542.58	5525.29
1541.72	5646.2
1540.86	5584.31
1540	5699.37
1539.14	5553.39
1538.28	5674.21
1537.41	5568.87
1536.55	5585.3
1535.69	5526.38
1534.82	5490.66
1533.96	5579.52
1533.1	5514.83
1532.24	5574.7
1531.37	5440.55
1530.51	5540.93
1529.64	5641.28
1528.78	5518.76
1527.92	5485.98
1527.05	5574.72
1526.19	5513.02
1525.32	5503.39
1524.46	5652.8
1523.59	5550.64
1522.73	5705.77
1521.86	5508.26
1521	5640.23
1520.13	5535.25
1519.27	5615.18
1518.4	5573.78
1517.54	5529.5
1516.67	5606.5
1515.8	5530.48
1514.94	5636.31
1514.07	5669.96
1513.21	5553.58
1512.34	5679.54
1511.47	5583.39
1510.6	5666.05
1509.74	5552.63
1508.87	5445.02
1508	5576.65
1507.14	5552.64
1506.27	5736.06
1505.4	5709.15
1504.53	5742.72
1503.66	5692.78
1502.8	5680.28
1501.93	5682.18
1501.06	5721.49
1500.19	5855.74
1499.32	5644.71
1498.45	5597.71
1497.58	5783.68
1496.71	5814.31
1495.84	5833.43
1494.97	5780.68
1494.1	5748.07
1493.23	5856.27
1492.36	5774.81
1491.49	5612.95
1490.62	5597.62
1489.75	5731.62
1488.88	5704.78
1488.01	5741.12
1487.14	5800.39
1486.27	5819.48
1485.4	5870.11
1484.52	5691.25
1483.65	5710.34
1482.78	5755.23
1481.91	5828.78
1481.04	5690.18
1480.17	5735.05
1479.29	5834.35
1478.42	5801.83
1477.55	5649
1476.67	5842.78
1475.8	5873.27
1474.93	5774.91
1474.06	5876.96
1473.18	5707.08
1472.31	5940.74
1471.43	5976.91
1470.56	5827.12
1469.69	5746.03
1468.81	5813.66
1467.94	5912.73
1467.06	5974.59
1466.19	5862.09
1465.31	5866.79
1464.44	5742.92
1463.56	6010.45
1462.69	5918.01
1461.81	5968.39
1460.94	5987.34
1460.06	5994.86
1459.19	5785.47
1458.31	5967.1
1457.43	6068.78
1456.56	5942.21
1455.68	5904.1
1454.8	5997.19
1453.93	6044.62
1453.05	5932.39
1452.17	6045.37
1451.3	5967.38
1450.42	5926.46
1449.54	5899.79
1448.66	5938.64
1447.78	5812.31
1446.91	5999.22
1446.03	5898.54
1445.15	6128.07
1444.27	5916.42
1443.39	5952.38
1442.51	6045.23
1441.64	5998.67
1440.76	6074.41
1439.88	6053.45
1439	6140.53
1438.12	6113.88
1437.24	6286.17
1436.36	5952.64
1435.48	5999.9
1434.6	5996.02
1433.72	6085.86
1432.84	5962.71
1431.96	5978.7
1431.08	6057.14
1430.2	6064.6
1429.31	5898.98
1428.43	5968.88
1427.55	5811.84
1426.67	5995.16
1425.79	5971.44
1424.91	6046.94
1424.02	5977.87
1423.14	6104.35
1422.26	6072.13
1421.38	5901.09
1420.49	6061.52
1419.61	6074.62
1418.73	6087.72
1417.85	6041.37
1416.96	6029
1416.08	6087.38
1415.2	6137.25
1414.31	6116.38
1413.43	5965.41
1412.54	6216.06
1411.66	6220.64
1410.78	6146.05
1409.89	6096.93
1409.01	6030.87
1408.12	6193.71
1407.24	6014.65
1406.35	6010.77
1405.47	6085.98
1404.58	6051.04
1403.7	6117.74
1402.81	6116.67
1401.92	6118.43
1401.04	6086.33
1400.15	6175.55
1399.27	6208.32
1398.38	6125.45
1397.49	6158.22
1396.61	6134.6
1395.72	6043.33
1394.83	6005.64
1393.94	6077.85
1393.06	6121.87
1392.17	6123.62
1391.28	6085.94
1390.39	6127.12
1389.51	6106.34
1388.62	6223.5
1387.73	5983.2
1386.84	6294.49
1385.95	6223.06
1385.06	6255.73
1384.17	6116.84
1383.29	6132.64
1382.4	6213.1
1381.51	6178.29
1380.62	6210.93
1379.73	6229.52
1378.84	6172.25
1377.95	6221.73
1377.06	6262.77
1376.17	6185.86
1375.28	6353.23
1374.39	6194.93
1373.5	6261.21
1372.6	6268.53
1371.71	6256.22
1370.82	6229.88
1369.93	6259.64
1369.04	6280.98
1368.15	6164.94
1367.26	6270.38
1366.36	6378.59
1365.47	6248.58
1364.58	6272.7
1363.69	6285.61
1362.79	6234.1
1361.9	6213.42
1361.01	6259.92
1360.11	6211.25
1359.22	6330.5
1358.33	6270.64
1357.43	6157.63
1356.54	6316
1355.65	6219.81
1354.75	6386.49
1353.86	6240
1352.96	6213.75
1352.07	6374.76
1351.17	6382.03
1350.28	6255.19
1349.39	6270.86
1348.49	6286.52
1347.59	6374.77
1346.7	6284.32
1345.8	6311.14
1344.91	6354.69
1344.01	6437.29
1343.12	6274.35
1342.22	6340.2
1341.32	6461.8
1340.43	6293.36
1339.53	6345.23
1338.63	6447.26
1337.74	6376.46
1336.84	6213.73
1335.94	6240.5
1335.04	6509.6
1334.15	6112.99
1333.25	6331.9
1332.35	6442.15
1331.45	6535.66
1330.55	6323.01
1329.66	6405.38
1328.76	6418.17
1327.86	6408.7
1326.96	6357.52
1326.06	6403.67
1325.16	6349.73
1324.26	6315.26
1323.36	6275.25
1322.46	6476.99
1321.56	6356.4
1320.66	6402.5
1319.76	6390.27
1318.86	6450.24
1317.96	6449.11
1317.06	6431.33
1316.16	6416.32
1315.26	6442.94
1314.36	6383.56
1313.46	6504.48
1312.55	6525.53
1311.65	6443.97
1310.75	6539.88
1309.85	6361.33
1308.95	6496.01
1308.04	6508.73
1307.14	6562.99
1306.24	6473.21
1305.34	6585.62
1304.43	6432.17
1303.53	6428.28
1302.63	6651.35
1301.72	6553.32
1300.82	6535.57
1299.92	6598.05
1299.01	6713.07
1298.11	6485.12
1297.21	6622.23
1296.3	6820.12
1295.4	6744.29
1294.49	6748.63
1293.59	6960.21
1292.68	6572.22
1291.78	6648.41
1290.87	6705.23
1289.97	6850.4
1289.06	6595.21
1288.16	6679.62
1287.25	6846.79
1286.34	6666.24
1285.44	6739.55
1284.53	6705.27
1283.62	6775.79
1282.72	6755.3
1281.81	6704.49
1280.9	6752.93
1280	6636
1279.09	6791.89
1278.18	6606.12
1277.27	6709.62
1276.37	6661.63
1275.46	6627.42
1274.55	6609.73
1273.64	6845.28
1272.73	6742.25
1271.82	6710.8
1270.92	6558.32
1270.01	6515.91
1269.1	6696.26
1268.19	6640.09
1267.28	6548.21
1266.37	6662.5
1265.46	6540.41
1264.55	6737.08
1263.64	6700.19
1262.73	6866.55
1261.82	6513.84
1260.91	6619.77
1260	6736.65
1259.09	6482.95
1258.18	6484.56
1257.27	6579.45
1256.35	6613.95
1255.44	6648.44
1254.53	6639.04
1253.62	6558.36
1252.71	6612.03
1251.79	6509.46
1250.88	6601.48
1249.97	6545.52
1249.06	6722.43
1248.14	6502.14
1247.23	6610.53
1246.32	6579.25
1245.41	6575.35
1244.49	6576.93
1243.58	6745.43
1242.66	6593.76
1241.75	6598.07
1240.84	6547.68
1239.92	6500.04
1239.01	6619.19
1238.09	6522.35
1237.18	6707.05
1236.26	6574.7
1235.35	6592.67
1234.43	6678.92
1233.52	6620.38
1232.6	6616.49
1231.69	6615.32
1230.77	6660.56
1229.86	6607.53
1228.94	6475.38
1228.02	6610.65
1227.11	6677.68
1226.19	6567.41
1225.27	6661.69
1224.36	6625.07
1223.44	6433.09
1222.52	6579.13
1221.6	6648.82
1220.69	6658.54
1219.77	6681.88
1218.85	6549.97
1217.93	6502.53
1217.01	6615.72
1216.1	6560.12
1215.18	6542.63
1214.26	6821.74
1213.34	6708.99
1212.42	6797.57
1211.5	6644.07
1210.58	6732.63
1209.66	6791.25
1208.74	6651.42
1207.82	6574.15
1206.9	6559.41
1205.98	6715.82
1205.06	6540.79
1204.14	6675.42
1203.22	6742.13
1202.3	6626.91
1201.38	6568.74
1200.46	6730.41
1199.54	6767.21
1198.61	6649.36
1197.69	6783.8
1196.77	6679.55
1195.85	6672.94
1194.93	6696.16
1194	6610.95
1193.08	6720.9
1192.16	6695.32
1191.24	6710.39
1190.31	6779.63
1189.39	6748.64
1188.47	6755.57
1187.54	6727.3
1186.62	6793.78
1185.7	6646.44
1184.77	6829.25
1183.85	6773.94
1182.92	6721.35
1182	6736.38
1181.07	6832.53
1180.15	6912.42
1179.23	6616.58
1178.3	6807.28
1177.37	6652.07
1176.45	6812.98
1175.52	6733.44
1174.6	6986.09
1173.67	6809.36
1172.75	6735.26
1171.82	6785.35
1170.89	6786.85
1169.97	6772.15
1169.04	6851.88
1168.11	6669.96
1167.19	6841.36
1166.26	6732.31
1165.33	6687.98
1164.4	6756.87
1163.48	6610.16
1162.55	6835.3
1161.62	6861.03
1160.69	6749.39
1159.76	6880.14
1158.83	6806.23
1157.91	6724.26
1156.98	6741.91
1156.05	6789.15
1155.12	6731.45
1154.19	6862.06
1153.26	6850.08
1152.33	6832.74
1151.4	6828.83
1150.47	6838.37
1149.54	6718.91
1148.61	6798.33
1147.68	6767.57
1146.75	6777.11
1145.82	6800.08
1144.89	6694.15
1143.96	6727.86
1143.02	6885.04
1142.09	7074.36
1141.16	6845.03
1140.23	6873.32
1139.3	6823.82
1138.36	6744.84
1137.43	6826.76
1136.5	6989.08
1135.57	6757.32
1134.63	6965.16
1133.7	6829.95
1132.77	6901.07
1131.83	6953.41
1130.9	6839.7
1129.97	6969.68
1129.03	6909.55
1128.1	6884.23
1127.17	6837.51
1126.23	7015.57
1125.3	6944.76
1124.36	6823.17
1123.43	6995.78
1122.49	6941.06
1121.56	6921.11
1120.62	6973.34
1119.69	6953.39
1118.75	6882.69
1117.81	6953.59
1116.88	6997.76
1115.94	6951.12
1115.01	6936.53
1114.07	7002.03
1113.13	6960.75
1112.2	6978.19
1111.26	7083.67
1110.32	6863.67
1109.38	6971.8
1108.45	6935.89
1107.51	7022.64
1106.57	6962.74
1105.63	7020.14
1104.69	7112.16
1103.76	6932.38
1102.82	7053.68
1101.88	7127
1100.94	7008.57
1100	6927.45
1099.06	7077.94
1098.12	6948.93
1097.18	6971.64
1096.24	7177.91
1095.3	7075.56
1094.36	7164.72
1093.42	7003.9
1092.48	7257.87
1091.54	7038.62
1090.6	6885.88
1089.66	7150.36
1088.72	7056.11
1087.78	6916.73
1086.84	7029.69
1085.9	6972.68
1084.95	7077.62
1084.01	6887.91
1083.07	7141.44
1082.13	7097.72
1081.19	6916.06
1080.24	7020.92
1079.3	6924.2
1078.36	7121.82
1077.41	6892.56
1076.47	6968.2
1075.53	6988.16
1074.58	7024
1073.64	6924.73
1072.7	7090.36
1071.75	7036.13
1070.81	6984.57
1069.86	6964.79
1068.92	7167.35
1067.98	7009.94
1067.03	7035.14
1066.09	7129.12
1065.14	7059.08
1064.19	7216.48
1063.25	7135.87
1062.3	7126.67
1061.36	7109.54
1060.41	6999.93
1059.46	6977.54
1058.52	7044.97
1057.57	7033.15
1056.63	7063.58
1055.68	6927.67
1054.73	7116.49
1053.78	7065.07
1052.84	7230.05
1051.89	7086.29
1050.94	6971.6
1049.99	7086.39
1049.05	7082.49
1048.1	7123.4
1047.15	7180.12
1046.2	7199.92
1045.25	7206.54
1044.3	7039.28
1043.35	7198.69
1042.4	7255.34
1041.45	7198.75
1040.5	7136.91
1039.55	6948.75
1038.6	7102.78
1037.65	7219.91
1036.7	7055.51
1035.75	7196.28
1034.8	7173.96
1033.85	7062.24
1032.9	7166.13
1031.95	7196.39
1031	7184.59
1030.05	7209.57
1029.1	7097.95
1028.14	7280.53
1027.19	7108.54
1026.24	7259.55
1025.29	7190
1024.33	7154.59
1023.38	7329.12
1022.43	7173.01
1021.48	7119.26
1020.52	7343.54
1019.57	7208.49
1018.62	7390.72
1017.66	7219.01
1016.71	7280.62
1015.75	7245.25
1014.8	7333.03
1013.85	7384.1
1012.89	7254.45
1011.94	7284.57
1010.98	7333
1010.03	7266.25
1009.07	7236.16
1008.12	7271.5
1007.16	7301.58
1006.2	7211.34
1005.25	7220.51
1004.29	7399.63
1003.34	7364.32
1002.38	7464.93
1001.42	7481.89
1000.47	7360.35
999.508	7280.66
998.551	7302.86
997.594	7322.44
996.636	7313.29
995.679	7275.43
994.721	7242.81
993.763	7275.43
992.805	7276.73
991.846	7285.86
990.888	7347.15
989.929	7291.07
988.97	7440.98
988.011	7194.61
987.052	7248.04
986.093	7337.95
985.133	7352.26
984.173	7192.04
983.213	7409.52
982.253	7358.71
981.293	7414.67
980.333	7397.72
979.372	7271.46
978.411	7199.9
977.45	7445.76
976.489	7363.78
975.528	7240.23
974.566	7589.95
973.605	7393.61
972.643	7426.07
971.681	7120.68
970.719	7348.05
969.756	7414.27
968.794	7433.72
967.831	7305.13
966.868	7376.52
965.905	7479.03
964.942	7303.78
963.979	7489.31
963.015	7319.32
962.052	7364.69
961.088	7446.36
960.124	7481.33
959.159	7454.05
958.195	7556.4
957.23	7290.68
956.266	7475.94
955.301	7440.91
954.336	7449.94
953.37	7451.18
952.405	7496.45
951.439	7461.44
950.473	7353.97
949.507	7538.99
948.541	7416.01
947.575	7562.14
946.608	7524.57
945.642	7613.73
944.675	7415.84
943.708	7499.82
942.741	7573.42
941.773	7417
940.806	7428.58
939.838	7484.08
938.87	7431.07
937.902	7600.17
936.934	7472.28
935.965	7514.82
934.997	7523.79
934.028	7414.05
933.059	7443.67
932.09	7628.07
931.121	7585.42
930.151	7504.11
929.182	7629.09
928.212	7735.98
927.242	7683.04
926.272	7506.43
925.301	7564.33
924.331	7472.81
923.36	7695.53
922.389	7670.96
921.418	7633.53
920.447	7683.64
919.475	7713.13
918.504	7549.63
917.532	7656.32
916.56	7492.89
915.588	7558.4
914.616	7680.46
913.643	7817.89
912.671	7605.71
911.698	7622.33
910.725	7875.32
909.752	7652.97
908.779	7782.58
907.805	7773.47
906.831	7612.88
905.858	7752.69
904.883	7810.32
903.909	7785.81
902.935	7771.58
901.96	7626.52
900.986	7745.69
900.011	7695.56
899.036	7658.28
898.06	7815.82
897.085	7704.2
896.109	7743.81
895.133	7632.24
894.157	7607.81
893.181	7749.85
892.205	7776.62
891.229	7795.69
890.252	7827.56
889.275	7856.85
888.298	7801.69
887.321	7687.72
886.343	7855.14
885.366	7769.33
884.388	7755.14
883.41	7717.94
882.432	7944.03
881.454	7779.04
880.475	7953.93
879.497	7855.41
878.518	7961.26
877.539	7893.42
876.56	7963.48
875.58	7880.35
874.601	7817.67
873.621	8020.4
872.641	7973.02
871.661	7657.82
870.681	8028.79
869.701	8019.69
868.72	7883.11
867.739	7889.33
866.758	8017.88
865.777	7886.47
864.796	8073.57
863.815	8143.43
862.833	8073.19
861.851	8018.25
860.869	8077.9
859.887	8216.43
858.905	8321.82
857.922	8185.46
856.939	8362.05
855.956	8271.51
854.973	8262.38
853.99	8276.14
853.007	8086.52
852.023	7983.38
851.039	8157.28
850.055	8351.44
849.071	8159.4
848.087	8117.28
847.102	8044.7
846.118	8078.79
845.133	8003.71
844.148	8078.39
843.163	7906.91
842.177	7928.31
841.192	8145.02
840.206	8130.86
839.22	8017.81
838.234	8046.78
837.248	7981.95
836.261	8254.2
835.274	7994.25
834.288	8187.87
833.301	8196.51
832.313	8121.58
831.326	8059.33
830.339	7989.52
829.351	8036.16
828.363	8103.02
827.375	8111.67
826.387	8049.48
825.398	8121.37
824.409	8140.12
823.421	8171.51
822.432	8164.97
821.443	8262.05
820.453	8141.78
819.464	8208.51
818.474	8239.86
817.484	8286.34
816.494	8257.06
815.504	8159.62
814.513	8190.95
813.523	8219.75
812.532	8185.45
811.541	8057.82
810.55	8386.78
809.559	8382.73
808.567	8272.78
807.575	8299.01
806.583	8408.4
805.591	8411.91
804.599	8145.82
803.607	8323.19
802.614	8193.22
801.621	8488.88
800.628	8270.81
799.635	8344.82
798.642	8298
797.649	8261.25
796.655	8385.55
795.661	8386.53
794.667	8352.31
793.673	8398.56
792.678	8326.64
791.684	8491.02
790.689	8328.63
789.694	8193.94
788.699	8338.15
787.704	8253.74
786.708	8259.77
785.713	8235.67
784.717	8349.65
783.721	8287.88
782.724	8492.15
781.728	8420.35
780.731	8273.31
779.735	8379.65
778.738	8385.65
777.741	8592.22
776.743	8430.22
775.746	8293.34
774.748	8437.16
773.75	8500.76
772.752	8499.21
771.754	8264.74
770.756	8476.08
769.757	8487.05
768.758	8315.29
767.759	8206.15
766.76	8459.88
765.761	8598.43
764.761	8536.83
763.762	8630.3
762.762	8346.18
761.762	8529.65
760.762	8410.62
759.761	8424.08
758.761	8485
757.76	8643.33
756.759	8446.93
755.758	8482.85
754.756	8421.37
753.755	8594.57
752.753	8625.45
751.751	8544.02
750.749	8517.51
749.747	8473.55
748.745	8584.22
747.742	8460.47
746.739	8655.88
745.736	8542.13
744.733	8625.3
743.73	8653.62
742.726	8520
741.723	8760.05
740.719	8875.49
739.715	8642.31
738.71	8795.07
737.706	8452.47
736.701	8729.64
735.697	8529
734.692	8773.71
733.686	8600.49
732.681	8588.97
731.675	8781.32
730.67	8782.2
729.664	8696.09
728.658	8647.28
727.651	8630.79
726.645	8755.89
725.638	8741.87
724.631	8541.63
723.624	8731.22
722.617	8682.46
721.61	8680.87
720.602	8527.93
719.595	8722.34
718.587	8971.25
717.578	8622.43
716.57	8844
715.562	8926.66
714.553	8744.09
713.544	8623.54
712.535	8666.56
711.526	8873.05
710.516	8566.79
709.507	8926.75
708.497	8855.79
707.487	8779.91
706.477	8817.89
705.467	9029.07
704.456	8960.62
703.445	9025.76
702.434	9031.52
701.423	8968.05
700.412	8825.49
699.401	8915.33
698.389	9059.49
697.377	8909.58
696.365	9110.51
695.353	9074.26
694.34	8872.57
693.328	8866.01
692.315	8980.4
691.302	9025.64
690.289	9023.98
689.276	8950.78
688.262	8889.94
687.249	9100.4
686.235	8753.52
685.221	8998.44
684.206	8932.7
683.192	8807.84
682.177	8838.25
681.162	9001.68
680.147	9169.98
679.132	9109.19
678.117	9041.04
677.101	8992.6
676.086	9150.93
675.07	9112.34
674.054	9036.85
673.037	8865.46
672.021	9131.91
671.004	9172.03
669.987	9013
668.97	9281.73
667.953	8967.9
666.936	9116.14
665.918	9102.18
664.9	9073.48
663.882	9226.53
662.864	9048.05
661.846	8997.28
660.827	9204.26
659.808	9074.95
658.789	9088
657.77	9199.17
656.751	9185.22
655.731	9271.81
654.712	9022.47
653.692	9229.17
652.672	9153.94
651.652	9174.31
650.631	9101.57
649.611	9210.12
648.59	9193.73
647.569	9145.52
646.548	9229.52
645.526	9098.09
644.505	9086.62
643.483	9236.65
642.461	9173.79
641.439	9225.91
640.417	9231.54
639.394	9295.86
638.371	9321.03
637.348	9211.77
636.325	9366.47
635.302	9274.34
634.279	9287.29
633.255	9507.82
632.231	9557.35
631.207	9631.27
630.183	9375.63
629.159	9388.55
628.134	9464.9
627.109	9446.07
626.084	9297.98
625.059	9415.76
624.034	9457.91
623.008	9273.33
621.983	9456.86
620.957	9416.12
619.931	9460.68
618.904	9417.52
617.878	9406.04
616.851	9299.59
615.824	9526.73
614.797	9242.6
613.77	9472.1
612.743	9346.25
611.715	9351.83
610.687	9398.75
609.659	9443.22
608.631	9293.15
607.603	9490.78
606.574	9581.39
605.546	9494.56
604.517	9412.63
603.487	9367.16
602.458	9450.44
601.429	9579.82
600.399	9519.78
599.369	9498.6
598.339	9610.91
597.309	9626.12
596.278	9619.49
595.248	9384.85
594.217	9819.65
593.186	9599.6
592.155	9401.46
591.123	9431.23
590.091	9378.59
589.06	9372.01
588.028	9365.43
586.996	9479.96
585.963	9550.85
584.931	9512.77
583.898	9348.82
582.865	9690.77
581.832	9548.62
580.798	9532.34
579.765	9607.98
578.731	9683.59
577.697	9572.99
576.663	9578.47
575.629	9581.53
574.594	9545.92
573.56	9437.84
572.525	9631.77
571.49	9526.12
570.455	9575.07
569.419	9636.07
568.384	9390.47
567.348	9434.59
566.312	9565.56
565.276	9595.15
564.239	9726.05
563.203	9601.24
562.166	9553.65
561.129	9836.36
560.092	9870.69
559.054	9726.67
558.017	9862.21
556.979	9609.84
555.941	9733.3
554.903	9611.09
553.865	9700.8
552.826	9703.81
551.787	9632.22
550.749	9620.8
549.709	9570.9
548.67	9453.66
547.631	9408.61
546.591	9596.83
545.551	9635.92
544.511	9699.03
543.471	9658.78
542.43	9606.53
541.39	9746.48
540.349	9862.37
539.308	9937.38
538.267	9685.83
537.225	9842.47
536.184	9799.84
535.142	9637.24
534.1	9693.03
533.058	9429.76
532.015	9636.66
530.973	9495.79
529.93	9187.15
528.887	9439.53
527.844	9533.64
526.801	9297.04
525.757	9474.99
524.713	9451.67
523.669	9349.34
522.625	9584.64
521.581	9769.58
520.537	9552.35
519.492	9710.91
518.447	9584.69
517.402	9587.69
516.357	9827.47
515.311	9658.25
514.265	9689.93
513.22	9594.9
512.174	9373.24
511.127	9318.93
510.081	9221.63
509.034	9174.53
507.987	9062.97
506.94	8996.82
505.893	9093.02
504.846	9103.26
503.798	9254.29
502.75	9257.34
501.702	9568.11
500.654	9571.1
499.606	9521.63
