3200.54	25.2587
3199.95	58.9371
3199.35	33.6732
3198.76	58.9193
3198.16	21.0394
3197.57	42.0725
3196.98	50.4793
3196.38	25.2358
3195.79	25.232
3195.19	33.6376
3194.6	37.8366
3194	29.424
3193.41	42.028
3192.81	42.0216
3192.22	33.6122
3191.62	12.6027
3191.03	37.8023
3190.43	41.9962
3189.84	29.3929
3189.24	41.9835
3188.65	54.5703
3188.05	33.5766
3187.45	37.768
3186.86	37.7623
3186.26	41.9517
3185.67	20.9727
3185.07	46.133
3184.47	16.7731
3183.88	50.3116
3183.28	12.576
3182.69	41.9137
3182.09	41.9073
3181.49	50.2812
3180.9	33.5157
3180.3	33.5106
3179.7	62.8229
3179.1	46.0632
3178.51	41.8693
3177.91	62.7944
3177.31	37.6709
3176.72	50.2203
3176.12	50.2127
3175.52	25.1026
3174.92	37.6481
3174.33	41.8249
3173.73	41.8186
3173.13	58.5372
3172.53	37.6253
3171.93	37.6196
3171.34	41.7933
3170.74	29.2509
3170.14	50.1367
3169.54	16.7097
3168.94	41.7679
3168.34	45.9378
3167.74	12.5266
3167.15	54.2737
3166.55	33.3941
3165.95	25.0418
3165.35	45.903
3164.75	20.8618
3164.15	25.0304
3163.55	45.8821
3162.95	62.557
3162.35	54.2079
3161.75	37.5229
3161.15	29.18
3160.55	37.5115
3159.95	75.0116
3159.35	37.5001
3158.75	12.4981
3158.15	16.6617
3157.55	45.8126
3156.95	45.8057
3156.35	45.7987
3155.75	41.6289
3155.15	8.32451
3154.55	45.7779
3153.95	24.966
3153.35	41.6036
3152.75	16.6389
3152.15	49.9092
3151.54	33.2678
3150.94	41.5784
3150.34	37.4149
3149.74	45.7224
3149.14	33.2476
3148.54	41.5532
3147.94	54.0109
3147.33	24.9243
3146.73	33.2274
3146.13	33.2224
3145.53	29.0652
3144.93	41.5153
3144.32	4.1509
3143.72	45.653
3143.12	33.1972
3142.52	45.6392
3141.91	41.4838
3141.31	70.5118
3140.71	45.6184
3140.1	58.0509
3139.5	37.3128
3138.9	49.7428
3138.29	16.5784
3137.69	16.5759
3137.09	62.1502
3136.48	49.7126
3135.88	57.9892
3135.28	41.4146
3134.67	57.9716
3134.07	41.402
3133.47	45.5353
3132.86	57.9452
3132.26	37.2448
3131.65	37.2392
3131.05	33.0965
3130.45	45.5007
3129.84	49.6296
3129.24	41.3517
3128.63	33.0763
3128.03	24.8035
3127.42	33.0663
3126.82	74.3879
3126.21	41.3203
3125.61	74.3652
3125	41.3077
3124.4	45.4316
3123.79	49.5542
3123.19	61.9334
3122.58	49.5391
3121.97	74.2974
3121.37	66.0321
3120.76	45.3902
3120.16	82.515
3119.55	37.1261
3118.94	61.8675
3118.34	41.2387
3117.73	49.4789
3117.13	57.7166
3116.52	57.7078
3115.91	41.2136
3115.31	37.0866
3114.7	65.9217
3114.09	45.3143
3113.48	45.3074
3112.88	61.7734
3112.27	61.764
3111.66	32.9358
3111.06	74.0942
3110.45	61.7358
3109.84	57.6113
3109.23	90.5183
3108.63	65.8215
3108.02	86.3775
3107.41	57.5762
3106.8	53.4555
3106.19	45.2247
3105.59	57.5499
3104.98	61.6513
3104.37	49.3135
3103.76	49.306
3103.15	82.1641
3102.54	73.9365
3101.93	49.2835
3101.33	65.7013
3100.72	53.3742
3100.11	57.4711
3099.5	57.4624
3098.89	41.0383
3098.28	77.9609
3097.67	61.5387
3097.06	69.7332
3096.45	77.9253
3095.84	53.3092
3095.23	86.1017
3094.62	53.2929
3094.01	65.5813
3093.4	90.1605
3092.79	65.5613
3092.18	81.9391
3091.57	69.6376
3090.96	98.297
3090.35	90.0918
3089.74	77.7947
3089.13	90.0644
3088.52	106.423
3087.91	77.7591
3087.3	94.1151
3086.69	98.1921
3086.08	118.631
3085.46	118.613
3084.85	89.9683
3084.24	106.31
3083.63	102.205
3083.02	126.715
3082.41	110.348
3081.79	143.022
3081.18	171.6
3080.57	196.085
3079.96	171.548
3079.35	151.103
3078.73	151.08
3078.12	159.222
3077.51	138.788
3076.9	159.173
3076.28	155.068
3075.67	150.964
3075.06	150.941
3074.45	126.445
3073.83	134.582
3073.22	106.018
3072.61	142.695
3071.99	110.062
3071.38	114.121
3070.77	122.254
3070.15	97.7884
3069.54	130.365
3068.93	122.198
3068.31	85.5256
3067.7	97.7287
3067.08	93.6423
3066.47	146.548
3065.86	73.2629
3065.24	93.5994
3064.63	65.1027
3064.01	93.5708
3063.4	89.4889
3062.78	61.0058
3062.17	77.2622
3061.55	93.5137
3060.94	73.1734
3060.32	89.4205
3059.71	69.0871
3059.09	81.2666
3058.48	85.3168
3057.86	85.3038
3057.25	81.2293
3056.63	56.8518
3056.02	77.1442
3055.4	56.8344
3054.78	64.9437
3054.17	73.0505
3053.55	60.8661
3052.94	77.0853
3052.32	81.13
3051.7	52.7264
3051.09	81.1052
3050.47	72.9835
3049.85	60.8103
3049.24	56.7476
3048.62	60.7917
3048	81.0432
3047.39	72.9277
3046.77	68.8657
3046.15	64.8048
3045.53	56.6955
3044.92	68.8341
3044.3	48.5813
3043.68	48.5739
3043.06	56.6609
3042.45	68.7919
3041.83	44.5056
3041.21	72.8162
3040.59	97.0734
3039.97	105.147
3039.35	72.7828
3038.74	88.9431
3038.12	101.056
3037.5	56.5829
3036.88	68.6972
3036.26	68.6867
3035.64	60.5966
3035.02	96.9398
3034.41	113.079
3033.79	64.6067
3033.17	72.6715
3032.55	92.8437
3031.93	92.8295
3031.31	84.7444
3030.69	56.4876
3030.07	76.65
3029.45	100.84
3028.83	80.6595
3028.21	64.5177
3027.59	64.5079
3026.97	64.498
3026.35	116.885
3025.73	68.5081
3025.11	72.5269
3024.49	84.6017
3023.87	92.6448
3023.25	56.3839
3022.63	56.3752
3022	72.4713
3021.38	88.5625
3020.76	100.624
3020.14	88.5353
3019.52	68.4032
3018.9	92.5313
3018.28	52.2923
3017.66	84.4592
3017.03	68.3612
3016.41	100.516
3015.79	80.4003
3015.17	92.4462
3014.55	84.3945
3013.92	96.436
3013.3	68.2984
3012.68	96.4064
3012.06	108.441
3011.43	92.3612
3010.81	100.377
3010.19	72.2605
3009.57	76.2632
3008.94	96.3177
3008.32	112.353
3007.7	84.2522
3007.07	108.308
3006.45	80.2155
3005.83	76.1931
3005.2	96.2291
3004.58	80.1786
3003.96	88.1829
3003.33	76.1463
3002.71	140.248
3002.08	96.1553
3001.46	76.1112
3000.84	76.0995
3000.21	100.116
2999.59	88.0882
2998.96	68.0577
2998.34	88.0612
2997.71	128.069
2997.09	116.045
2996.46	84.0197
2995.84	120.01
2995.21	119.991
2994.59	83.981
2993.96	119.954
2993.34	107.942
2992.71	103.929
2992.09	119.899
2991.46	151.849
2990.84	131.848
2990.21	135.823
2989.58	75.8894
2988.96	103.833
2988.33	95.8309
2987.71	95.8161
2987.08	91.8097
2986.45	115.742
2985.83	103.753
2985.2	123.686
2984.57	83.7747
2983.95	83.7618
2983.32	107.677
2982.69	123.61
2982.07	111.631
2981.44	143.503
2980.81	91.6687
2980.18	115.564
2979.56	99.6092
2978.93	127.48
2978.3	139.41
2977.67	131.423
2977.05	143.349
2976.42	131.383
2975.79	123.401
2975.16	139.303
2974.53	139.281
2973.91	103.45
2973.28	147.195
2972.65	171.038
2972.02	111.357
2971.39	123.269
2970.76	119.274
2970.13	194.784
2969.5	135.135
2968.88	154.984
2968.25	154.961
2967.62	170.828
2966.99	146.969
2966.36	146.946
2965.73	162.807
2965.1	170.723
2964.47	158.787
2963.84	138.917
2963.21	134.928
2962.58	146.81
2961.95	194.395
2961.32	150.732
2960.69	130.878
2960.06	162.582
2959.43	182.38
2958.8	182.352
2958.17	138.725
2957.53	150.592
2956.9	178.306
2956.27	154.508
2955.64	102.989
2955.01	138.618
2954.38	166.316
2953.75	166.291
2953.12	134.595
2952.48	182.072
2951.85	130.596
2951.22	150.361
2950.59	110.775
2949.96	146.359
2949.33	130.516
2948.69	134.45
2948.06	142.337
2947.43	110.69
2946.8	134.388
2946.16	118.559
2945.53	138.298
2944.9	118.523
2944.26	130.355
2943.63	154.032
2943	122.417
2942.37	126.346
2941.73	134.222
2941.1	102.625
2940.47	153.913
2939.83	122.323
2939.2	118.358
2938.56	114.395
2937.93	114.378
2937.3	94.6429
2936.66	110.4
2936.03	122.209
2935.39	130.074
2934.76	122.172
2934.13	106.391
2933.49	118.194
2932.86	141.811
2932.22	137.851
2931.59	106.325
2930.95	149.62
2930.32	125.976
2929.68	114.149
2929.05	110.195
2928.41	129.853
2927.78	110.161
2927.14	106.211
2926.5	82.5955
2925.87	129.773
2925.23	117.957
2924.6	121.87
2923.96	113.99
2923.32	86.4618
2922.69	102.166
2922.05	102.151
2921.42	102.135
2920.78	106.047
2920.14	90.3221
2919.51	129.573
2918.87	121.701
2918.23	117.757
2917.6	121.663
2916.96	133.417
2916.32	133.396
2915.68	121.607
2915.05	94.1327
2914.41	109.805
2913.77	101.946
2913.13	145.054
2912.5	145.032
2911.86	145.009
2911.22	141.068
2910.58	148.882
2909.94	144.942
2909.31	113.586
2908.67	140.981
2908.03	144.875
2907.39	164.427
2906.75	148.744
2906.11	156.549
2905.47	133.046
2904.83	133.025
2904.2	152.564
2903.56	136.895
2902.92	125.142
2902.28	129.033
2901.64	125.103
2901	152.446
2900.36	121.156
2899.72	132.861
2899.08	140.654
2898.44	140.632
2897.8	121.081
2897.16	148.399
2896.52	121.044
2895.88	144.449
2895.24	101.489
2894.6	167.822
2893.96	128.773
2893.32	117.049
2892.67	128.733
2892.03	132.614
2891.39	144.293
2890.75	144.27
2890.11	132.552
2889.47	159.818
2888.83	124.716
2888.19	120.8
2887.54	136.366
2886.9	132.45
2886.26	132.429
2885.62	116.831
2884.98	144.069
2884.33	136.261
2883.69	108.992
2883.05	147.894
2882.41	132.306
2881.77	120.613
2881.12	136.155
2880.48	124.466
2879.84	140.002
2879.19	120.539
2878.55	120.52
2877.91	104.953
2877.26	128.256
2876.62	143.779
2875.98	139.872
2875.33	135.965
2874.69	112.64
2874.05	120.389
2873.4	120.37
2872.76	147.528
2872.11	143.623
2871.47	151.363
2870.83	159.101
2870.18	112.517
2869.54	143.534
2868.89	116.361
2868.25	143.49
2867.6	131.835
2866.96	127.938
2866.31	135.67
2865.67	151.152
2865.02	155.004
2864.38	116.235
2863.73	127.838
2863.09	123.945
2862.44	123.926
2861.8	143.267
2861.15	135.502
2860.5	119.998
2859.86	123.849
2859.21	123.83
2858.57	139.287
2857.92	112.186
2857.27	116.036
2856.63	181.762
2855.98	116
2855.33	166.241
2854.69	104.368
2854.04	154.595
2853.39	123.657
2852.75	139.092
2852.1	112.029
2851.45	115.874
2850.81	139.028
2850.16	104.255
2849.51	142.845
2848.86	135.103
2848.21	131.222
2847.57	162.073
2846.92	123.465
2846.27	123.446
2845.62	131.141
2844.97	161.972
2844.33	111.821
2843.68	161.922
2843.03	134.914
2842.38	127.185
2841.73	146.432
2841.08	123.292
2840.43	142.535
2839.78	119.402
2839.14	146.341
2838.49	157.87
2837.84	165.545
2837.19	165.52
2836.54	153.948
2835.89	134.683
2835.24	146.205
2834.59	134.641
2833.94	146.159
2833.29	119.217
2832.64	119.198
2831.99	165.314
2831.34	146.068
2830.69	161.419
2830.04	165.237
2829.39	157.527
2828.74	134.453
2828.08	145.955
2827.43	153.613
2826.78	134.39
2826.13	153.565
2825.48	168.895
2824.83	134.327
2824.18	153.493
2823.53	172.653
2822.87	138.101
2822.22	176.435
2821.57	141.893
2820.92	145.705
2820.27	153.35
2819.61	137.993
2818.96	118.809
2818.31	145.614
2817.66	153.254
2817	122.584
2816.35	137.886
2815.7	164.671
2815.05	168.475
2814.39	145.478
2813.74	156.939
2813.09	137.779
2812.43	122.451
2811.78	137.736
2811.13	137.714
2810.47	149.167
2809.82	164.441
2809.16	118.532
2808.51	175.858
2807.86	149.074
2807.2	175.804
2806.55	191.061
2805.89	175.749
2805.24	160.441
2804.58	137.5
2803.93	194.761
2803.28	160.366
2802.62	156.524
2801.97	148.865
2801.31	190.823
2800.66	175.53
2800	179.318
2799.34	167.846
2798.69	171.633
2798.03	148.726
2797.38	160.141
2796.72	152.492
2796.07	175.338
2795.41	175.311
2794.75	171.473
2794.1	198.115
2793.44	156.182
2792.79	171.393
2792.13	171.366
2791.47	182.762
2790.82	144.664
2790.16	182.705
2789.5	129.396
2788.84	175.037
2788.19	190.228
2787.53	163.571
2786.87	148.332
2786.22	167.322
2785.56	182.505
2784.9	174.873
2784.24	174.846
2783.59	190.02
2782.93	189.991
2782.27	201.359
2781.61	159.542
2780.95	189.902
2780.29	136.708
2779.64	224.014
2778.98	144.258
2778.32	185.987
2777.66	204.934
2777	163.162
2776.34	189.694
2775.68	178.284
2775.02	182.049
2774.36	170.645
2773.71	147.869
2773.05	163.009
2772.39	147.823
2771.73	181.907
2771.07	189.457
2770.41	181.85
2769.75	178.034
2769.09	178.006
2768.43	174.191
2767.77	177.95
2767.11	185.494
2766.45	193.035
2765.79	158.945
2765.12	147.569
2764.46	166.462
2763.8	177.783
2763.14	173.974
2762.48	192.853
2761.82	189.042
2761.16	162.551
2760.5	204.102
2759.83	139.826
2759.17	219.152
2758.51	207.784
2757.85	181.31
2757.19	181.282
2756.53	200.134
2755.86	177.45
2755.2	177.422
2754.54	150.974
2753.88	162.271
2753.21	192.431
2752.55	181.083
2751.89	184.827
2751.23	196.112
2750.56	165.915
2749.9	192.281
2749.24	184.711
2748.57	173.375
2747.91	203.496
2747.25	177.089
2746.58	199.665
2745.92	169.5
2745.25	195.836
2744.59	192.04
2743.93	184.48
2743.26	222.094
2742.6	180.658
2741.93	176.867
2741.27	191.889
2740.61	188.097
2739.94	176.784
2739.28	203.082
2738.61	210.57
2737.95	214.297
2737.28	172.914
2736.62	184.162
2735.95	187.891
2735.29	169.076
2734.62	195.346
2733.95	191.559
2733.29	214.062
2732.62	202.763
2731.96	153.926
2731.29	202.7
2730.62	183.902
2729.96	183.874
2729.29	191.349
2728.63	172.562
2727.96	187.538
2727.29	198.759
2726.63	168.731
2725.96	198.697
2725.29	179.923
2724.62	232.365
2723.96	187.361
2723.29	164.852
2722.62	191.049
2721.96	213.491
2721.29	205.968
2720.62	239.634
2719.95	198.416
2719.28	228.33
2718.62	168.414
2717.95	235.742
2717.28	209.516
2716.61	194.52
2715.94	201.969
2715.27	194.459
2714.61	209.384
2713.94	231.782
2713.27	205.58
2712.6	235.446
2711.93	209.252
2711.26	201.747
2710.59	224.129
2709.92	201.684
2709.25	201.652
2708.58	216.556
2707.91	216.522
2707.24	212.755
2706.57	190.33
2705.9	197.763
2705.23	212.655
2704.56	205.161
2703.89	249.884
2703.22	193.909
2702.55	205.064
2701.88	216.215
2701.21	205
2700.54	201.241
2699.87	197.483
2699.2	208.628
2698.53	219.77
2697.86	212.287
2697.19	219.701
2696.51	208.497
2695.84	234.523
2695.17	204.71
2694.5	171.185
2693.83	234.412
2693.15	197.173
2692.48	230.618
2691.81	197.111
2691.14	219.39
2690.47	249.099
2689.79	226.756
2689.12	204.42
2688.45	241.549
2687.77	237.796
2687.1	237.758
2686.43	170.862
2685.76	215.401
2685.08	222.793
2684.41	222.758
2683.74	207.875
2683.06	274.648
2682.39	244.918
2681.71	259.721
2681.04	222.583
2680.37	244.802
2679.69	207.678
2679.02	192.814
2678.34	196.491
2677.67	189.046
2676.99	229.785
2676.32	240.866
2675.65	226.007
2674.97	225.972
2674.3	259.271
2673.62	218.494
2672.95	240.676
2672.27	174
2671.59	255.406
2670.92	229.459
2670.24	240.524
2669.57	281.184
2668.89	236.749
2668.22	255.205
2667.54	251.467
2666.86	195.965
2666.19	232.903
2665.51	206.992
2664.83	232.83
2664.16	210.622
2663.48	221.673
2662.8	262.271
2662.13	228.989
2661.45	228.953
2660.77	203.072
2660.1	203.04
2659.42	232.536
2658.74	232.499
2658.06	232.463
2657.39	247.183
2656.71	210.257
2656.03	236.041
2655.35	228.628
2654.68	269.149
2654	243.302
2653.32	265.378
2652.64	213.743
2651.96	217.394
2651.28	232.096
2650.6	232.059
2649.93	239.389
2649.25	231.986
2648.57	239.313
2647.89	279.768
2647.21	261.321
2646.53	268.64
2645.85	253.88
2645.17	257.518
2644.49	242.765
2643.81	275.825
2643.13	250.042
2642.45	268.385
2641.77	264.667
2641.09	242.573
2640.41	249.884
2639.73	238.822
2639.05	231.437
2638.37	279.15
2637.69	282.778
2637.01	257.031
2636.33	297.374
2635.65	256.949
2634.96	253.239
2634.28	271.546
2633.6	275.172
2632.92	286.134
2632.24	264.082
2631.56	256.706
2630.88	293.332
2630.19	260.291
2629.51	289.573
2628.83	285.863
2628.15	249.174
2627.46	315.082
2626.78	249.095
2626.1	241.731
2625.42	256.341
2624.73	219.686
2624.05	296.529
2623.37	311.123
2622.69	289.116
2622	263.456
2621.32	256.097
2620.64	248.741
2619.95	281.618
2619.27	277.917
2618.58	277.873
2617.9	241.272
2617.22	270.475
2616.53	263.123
2615.85	292.312
2615.16	295.92
2614.48	248.387
2613.79	270.261
2613.11	310.385
2612.43	273.826
2611.74	292.035
2611.06	226.291
2610.37	306.54
2609.69	251.76
2609	324.683
2608.31	328.279
2607.63	313.639
2606.94	313.59
2606.26	313.54
2605.57	302.555
2604.89	302.507
2604.2	276.95
2603.51	306.054
2602.83	291.434
2602.14	284.103
2601.45	294.984
2600.77	243.96
2600.08	313.093
2599.39	269.363
2598.71	265.681
2598.02	276.555
2597.33	294.703
2596.65	236.453
2595.96	283.698
2595.27	309.109
2594.58	250.884
2593.9	323.553
2593.21	352.581
2592.52	298.011
2591.83	287.062
2591.14	305.182
2590.46	297.869
2589.77	286.926
2589.08	305.037
2588.39	330.404
2587.7	254.117
2587.01	308.522
2586.32	297.585
2585.64	293.91
2584.95	304.747
2584.26	304.698
2583.57	301.023
2582.88	333.611
2582.19	282.8
2581.5	322.63
2580.81	286.334
2580.12	337.024
2579.43	275.373
2578.74	297.066
2578.05	322.374
2577.36	336.81
2576.67	264.335
2575.98	307.739
2575.29	325.79
2574.6	282.306
2573.91	293.117
2573.22	282.216
2572.52	293.024
2571.83	307.446
2571.14	296.548
2570.45	310.964
2569.76	339.837
2569.07	281.948
2568.38	325.272
2567.68	285.472
2566.99	317.943
2566.3	310.668
2565.61	346.737
2564.92	299.735
2564.22	259.97
2563.53	274.369
2562.84	335.688
2562.14	339.243
2561.45	346.406
2560.76	285.018
2560.07	353.511
2559.37	313.781
2558.68	310.125
2557.99	310.076
2557.29	328.051
2556.6	309.977
2555.91	317.135
2555.21	309.878
2554.52	313.432
2553.82	327.79
2553.13	331.34
2552.44	306.08
2551.74	388.84
2551.05	323.982
2550.35	305.934
2549.66	295.09
2548.96	352.612
2548.27	323.776
2547.57	316.53
2546.88	334.462
2546.18	294.855
2545.49	266.046
2544.79	334.302
2544.1	337.843
2543.4	301.854
2542.7	312.585
2542.01	319.72
2541.31	341.22
2540.62	294.48
2539.92	351.883
2539.22	341.057
2538.53	269.212
2537.83	351.715
2537.13	337.305
2536.44	344.427
2535.74	290.564
2535.04	294.105
2534.35	308.402
2533.65	362.135
2532.95	351.323
2532.25	329.761
2531.56	340.46
2530.86	322.489
2530.16	383.343
2529.46	358.207
2528.76	340.243
2528.07	354.512
2527.37	329.393
2526.67	408.096
2525.97	275.6
2525.27	347.129
2524.57	382.854
2523.88	357.751
2523.18	357.693
2522.48	346.907
2521.78	354.004
2521.08	339.646
2520.38	378.913
2519.68	364.557
2518.98	335.91
2518.28	378.732
2517.58	310.796
2516.88	364.324
2516.18	353.552
2515.48	346.354
2514.78	349.869
2514.08	342.674
2513.38	353.327
2512.68	349.702
2511.98	338.942
2511.28	324.619
2510.58	345.968
2509.88	360.177
2509.17	324.464
2508.47	388.582
2507.77	313.667
2507.07	345.692
2506.37	334.947
2505.67	356.269
2504.97	409.644
2504.26	334.786
2503.56	331.172
2502.86	348.921
2502.16	416.502
2501.45	338.132
2500.75	345.195
2500.05	391.396
2499.35	373.545
2498.64	373.486
2497.94	352.087
2497.24	355.587
2496.53	359.085
2495.83	405.24
2495.13	398.067
2494.42	426.432
2493.72	351.75
2493.02	355.246
2492.31	330.326
2491.61	379.992
2490.9	351.525
2490.2	394.071
2489.5	390.459
2488.79	333.611
2488.09	340.655
2487.38	386.723
2486.68	411.493
2485.97	326.304
2485.27	375.899
2484.56	382.93
2483.86	428.955
2483.15	372.174
2482.45	389.835
2481.74	347.252
2481.04	389.71
2480.33	329.429
2479.62	364.793
2478.92	403.687
2478.21	361.136
2477.51	371.698
2476.8	364.56
2476.09	353.885
2475.39	364.443
2474.68	329.008
2473.97	385.549
2473.27	367.805
2472.56	360.674
2471.85	328.797
2471.14	402.977
2470.44	409.981
2469.73	378.112
2469.02	409.85
2468.31	423.915
2467.61	434.443
2466.9	416.716
2466.19	363.685
2465.48	381.279
2464.77	377.688
2464.07	395.274
2463.36	402.268
2462.65	395.147
2461.94	430.359
2461.23	373.858
2460.52	370.272
2459.81	366.687
2459.1	408.931
2458.4	391.242
2457.69	405.276
2456.98	454.541
2456.27	384.008
2455.56	412.126
2454.85	457.845
2454.14	404.951
2453.43	408.407
2452.72	376.66
2452.01	401.237
2451.3	436.363
2450.59	408.145
2449.88	397.526
2449.16	429.119
2448.45	425.533
2447.74	450.078
2447.03	379.693
2446.32	379.632
2445.61	411.202
2444.9	446.276
2444.19	397.016
2443.47	421.543
2442.76	400.401
2442.05	414.384
2441.34	435.384
2440.63	477.442
2439.91	480.875
2439.2	368.495
2438.49	438.614
2437.78	424.51
2437.06	466.535
2436.35	441.91
2435.64	441.839
2434.93	424.237
2434.21	403.136
2433.5	403.071
2432.79	427.537
2432.07	441.484
2431.36	437.91
2430.64	448.348
2429.93	360.722
2429.22	413.188
2428.5	399.117
2427.79	455.061
2427.07	454.987
2426.36	458.414
2425.65	444.345
2424.93	454.768
2424.22	447.7
2423.5	433.639
2422.79	433.57
2422.07	409.028
2421.36	443.917
2420.64	422.876
2419.92	405.337
2419.21	454.184
2418.49	433.152
2417.78	454.038
2417.06	436.504
2416.35	457.383
2415.63	460.8
2414.91	450.255
2414.2	453.673
2413.48	432.664
2412.76	467.481
2412.05	484.847
2411.33	442.918
2410.61	442.847
2409.9	449.748
2409.18	453.162
2408.46	404.295
2407.74	453.016
2407.03	505.206
2406.31	494.674
2405.59	438.865
2404.87	421.382
2404.16	452.652
2403.44	442.135
2402.72	428.14
2402	452.433
2401.28	452.36
2400.56	469.683
2399.85	493.957
2399.13	462.576
2398.41	486.844
2397.69	438.089
2396.97	458.876
2396.25	448.375
2395.53	493.48
2394.81	462.129
2394.09	465.529
2393.37	524.504
2392.65	475.798
2391.93	451.414
2391.21	482.588
2390.49	475.568
2389.77	468.549
2389.05	465.004
2388.33	478.807
2387.61	471.792
2386.89	475.184
2386.17	454.3
2385.45	495.836
2384.73	513.09
2384	513.007
2383.28	460.939
2382.56	509.376
2381.84	467.719
2381.12	460.716
2380.4	498.74
2379.67	429.401
2378.95	429.332
2378.23	474.266
2377.51	491.495
2376.79	463.731
2376.06	484.417
2375.34	477.419
2374.62	494.637
2373.9	511.85
2373.17	484.104
2372.45	449.453
2371.73	459.75
2371	511.519
2370.28	476.88
2369.56	528.63
2368.83	490.545
2368.11	525.005
2367.38	493.84
2366.66	528.289
2365.94	535.108
2365.21	548.829
2364.49	503.874
2363.76	472.737
2363.04	472.661
2362.31	500.181
2361.59	531.141
2360.86	458.638
2360.14	506.834
2359.41	492.963
2358.69	510.117
2357.96	537.604
2357.24	540.963
2356.51	516.76
2355.79	492.565
2355.06	495.929
2354.33	495.849
2353.61	512.983
2352.88	492.247
2352.15	523.143
2351.43	498.97
2350.7	461.042
2349.98	522.889
2349.25	454.014
2348.52	557.109
2347.79	577.65
2347.07	574.118
2346.34	536.215
2345.61	484.578
2344.88	494.808
2344.16	487.857
2343.43	539.304
2342.7	532.348
2341.97	515.092
2341.25	504.708
2340.52	518.358
2339.79	525.139
2339.06	559.371
2338.33	573.005
2337.6	542.037
2336.87	514.509
2336.14	576.156
2335.42	569.205
2334.69	599.969
2333.96	493.609
2333.23	517.52
2332.5	534.569
2331.77	527.631
2331.04	541.248
2330.31	541.16
2329.58	599.289
2328.85	564.952
2328.12	496.393
2327.39	547.655
2326.66	509.921
2325.93	520.104
2325.2	513.177
2324.47	588.348
2323.73	492.491
2323	574.479
2322.27	529.94
2321.54	574.293
2320.81	536.604
2320.08	574.107
2319.35	546.68
2318.61	563.672
2317.88	529.425
2317.15	597.641
2316.42	525.838
2315.69	529.167
2314.95	542.735
2314.22	593.84
2313.49	597.156
2312.76	559.53
2312.02	535.561
2311.29	579.813
2310.56	562.668
2309.82	589.853
2309.09	518.168
2308.36	535.127
2307.62	579.343
2306.89	592.878
2306.16	524.646
2305.42	606.311
2304.69	606.212
2303.95	582.278
2303.22	592.397
2302.48	578.685
2301.75	558.17
2301.02	551.274
2300.28	520.563
2299.55	608.926
2298.81	588.419
2298.08	612.129
2297.34	540.626
2296.6	557.536
2295.87	618.629
2295.13	584.543
2294.4	618.428
2293.66	614.93
2292.93	601.243
2292.19	604.541
2291.45	577.277
2290.72	583.974
2289.98	614.431
2289.24	539.661
2288.51	590.477
2287.77	597.167
2287.03	580.107
2286.3	607.148
2285.56	647.746
2284.82	573.043
2284.08	630.584
2283.35	650.82
2282.61	593.098
2281.87	576.059
2281.13	548.861
2280.4	633.459
2279.66	589.326
2278.92	609.548
2278.18	578.977
2277.44	568.727
2276.7	595.712
2275.97	609.152
2275.23	649.657
2274.49	642.785
2273.75	639.298
2273.01	629.048
2272.27	612.038
2271.53	584.892
2270.79	608.459
2270.05	635.398
2269.31	604.882
2268.57	587.89
2267.83	618.197
2267.09	614.719
2266.35	648.39
2265.61	705.684
2264.87	604.291
2264.13	587.316
2263.39	617.594
2262.65	627.616
2261.91	590.403
2261.17	590.307
2260.42	607.074
2259.68	654.184
2258.94	674.307
2258.2	650.6
2257.46	657.235
2256.72	633.539
2255.97	653.652
2255.23	579.432
2254.49	653.439
2253.75	596.082
2253	643.125
2252.26	562.222
2251.52	615.987
2250.78	639.445
2250.03	652.8
2249.29	588.77
2248.55	645.86
2247.8	652.481
2247.06	615.385
2246.32	669.08
2245.57	662.247
2244.83	699.112
2244.09	672.113
2243.34	621.603
2242.6	631.58
2241.85	607.965
2241.11	661.6
2240.36	671.565
2239.62	668.099
2238.88	681.417
2238.13	644.387
2237.39	674.483
2236.64	674.373
2235.89	727.936
2235.15	670.799
2234.4	704.224
2233.66	717.521
2232.91	663.766
2232.17	643.547
2231.42	626.686
2230.67	693.598
2229.93	696.835
2229.18	659.875
2228.44	676.513
2227.69	686.448
2226.94	662.9
2226.2	649.402
2225.45	686.112
2224.7	675.961
2223.95	705.962
2223.21	702.502
2222.46	692.353
2221.71	708.961
2220.96	685.44
2220.22	695.357
2219.47	678.531
2218.72	741.917
2217.97	628.188
2217.22	704.925
2216.48	631.323
2215.73	694.676
2214.98	721.276
2214.23	731.174
2213.48	644.263
2212.73	707.572
2211.98	707.456
2211.23	670.639
2210.48	673.865
2209.73	647.072
2208.98	676.98
2208.23	733.553
2207.48	720.098
2206.73	749.979
2205.98	726.528
2205.23	723.077
2204.48	766.27
2203.73	719.509
2202.98	712.731
2202.23	732.594
2201.48	679.203
2200.73	669.106
2199.98	742.219
2199.23	728.787
2198.48	758.613
2197.72	755.162
2196.97	715.125
2196.22	764.892
2195.47	734.841
2194.72	728.072
2193.97	724.629
2193.21	687.952
2192.46	797.495
2191.71	730.917
2190.96	717.511
2190.2	724.036
2189.45	737.2
2188.7	783.562
2187.94	736.959
2187.19	793.262
2186.44	736.717
2185.68	736.597
2184.93	759.698
2184.18	696.552
2183.42	742.867
2182.67	779.22
2181.91	775.777
2181.16	755.761
2180.41	785.465
2179.65	772.082
2178.9	775.269
2178.14	761.891
2177.39	784.951
2176.63	731.838
2175.88	801.248
2175.12	820.979
2174.37	754.647
2173.61	751.214
2172.86	737.856
2172.1	774.126
2171.34	684.691
2170.59	787.1
2169.83	714.226
2169.08	813.291
2168.32	786.713
2167.56	776.669
2166.81	753.411
2166.05	730.16
2165.29	776.287
2164.54	713.406
2163.78	736.405
2163.02	756.095
2162.27	775.778
2161.51	775.651
2160.75	831.625
2159.99	811.691
2159.23	775.269
2158.48	798.231
2157.72	837.675
2156.96	807.861
2156.2	837.4
2155.44	771.336
2154.69	823.942
2153.93	810.626
2153.17	807.198
2152.41	760.947
2151.65	826.695
2150.89	777.163
2150.13	790.205
2149.37	819.703
2148.61	832.734
2147.85	770.071
2147.09	809.428
2146.33	875.092
2145.57	812.452
2144.81	743.255
2144.05	828.626
2143.29	779.175
2142.53	769.185
2141.77	818.358
2141.01	857.655
2140.25	781.948
2139.49	794.959
2138.73	811.251
2137.97	847.24
2137.2	768.301
2136.44	853.527
2135.68	758.201
2134.92	853.246
2134.16	879.356
2133.4	820.159
2132.63	885.627
2131.87	813.331
2131.11	901.73
2130.35	803.228
2129.58	852.265
2128.82	888.176
2128.06	871.645
2127.29	884.607
2126.53	848.428
2125.77	822.086
2125	861.248
2124.24	857.832
2123.48	867.511
2122.71	841.184
2121.95	863.953
2121.19	916.163
2120.42	958.542
2119.66	879.881
2118.89	856.844
2118.13	902.481
2117.36	840.215
2116.6	869.496
2115.83	853.011
2115.07	829.997
2114.3	882.135
2113.54	911.389
2112.77	872.046
2112.01	871.902
2111.24	878.289
2110.48	897.731
2109.71	884.527
2108.94	877.855
2108.18	884.236
2107.41	864.516
2106.64	880.683
2105.88	867.492
2105.11	899.957
2104.34	919.369
2103.58	899.66
2102.81	974.471
2102.04	892.846
2101.28	905.731
2100.51	876.264
2099.74	911.946
2098.97	918.309
2098.21	866.063
2097.44	885.453
2096.67	927.619
2095.9	940.483
2095.13	904.537
2094.36	888.122
2093.6	910.744
2092.83	933.358
2092.06	907.192
2091.29	929.799
2090.52	958.9
2089.75	932.742
2088.98	893.595
2088.21	974.67
2087.44	899.797
2086.67	886.657
2085.9	974.188
2085.13	918.832
2084.36	999.836
2083.59	928.266
2082.82	918.377
2082.05	973.384
2081.28	908.342
2080.51	930.896
2079.74	927.5
2078.97	872.224
2078.2	940.161
2077.43	959.454
2076.65	933.369
2075.88	959.137
2075.11	900.662
2074.34	965.299
2073.57	987.81
2072.8	1094.51
2072.02	932.444
2071.25	938.764
2070.48	977.448
2069.71	951.398
2068.93	1012.72
2068.16	902.559
2067.39	976.802
2066.61	934.599
2065.84	953.845
2065.07	943.989
2064.29	950.297
2063.52	937.213
2062.75	953.214
2061.97	988.594
2061.2	1030.42
2060.43	975.349
2059.65	904.147
2058.88	997.626
2058.1	897.392
2057.33	968.249
2056.55	1010.04
2055.78	993.74
2055	912.928
2054.23	983.735
2053.45	990.022
2052.68	954.391
2051.9	928.443
2051.13	941.182
2050.35	960.362
2049.57	950.537
2048.8	998.704
2048.02	1004.98
2047.25	956.506
2046.47	956.347
2045.69	969.067
2044.92	1013.97
2044.14	959.091
2043.36	1016.85
2042.59	978.077
2041.81	1077.64
2041.03	1067.81
2040.25	1012.96
2039.48	993.505
2038.7	1067.28
2037.92	1006.03
2037.14	1054.07
2036.37	996.06
2035.59	1024.81
2034.81	989.306
2034.03	1011.62
2033.25	1024.3
2032.47	1091.55
2031.69	1027.17
2030.92	1055.88
2030.14	1017.2
2029.36	1052.32
2028.58	1052.15
2027.8	1074.43
2027.02	1003.7
2026.24	1070.86
2025.46	1038.63
2024.68	1080.12
2023.9	1047.9
2023.12	1066.95
2022.34	1047.55
2021.56	992.927
2020.78	1044
2020	1011.81
2019.21	1021.25
2018.43	1091.49
2017.65	1052.91
2016.87	969.54
2016.09	1036.56
2015.31	1084.37
2014.53	1071.4
2013.74	1128.78
2012.96	1080.64
2012.18	1080.46
2011.4	1054.71
2010.62	1048.14
2009.83	1070.33
2009.05	1025.43
2008.27	1063.59
2007.49	1012.32
2006.7	1117.52
2005.92	1101.37
2005.14	1046.92
2004.35	1059.52
2003.57	1021.05
2002.79	1145.3
2002	1087.69
2001.22	1170.43
2000.43	1068.2
1999.65	1071.21
1998.87	1042.35
1998.08	1134.6
1997.3	1064.3
1996.51	1121.48
1995.73	1054.39
1994.94	1121.1
1994.16	1041.31
1993.37	1158.94
1992.59	1060.06
1991.8	1063.07
1991.02	1177.45
1990.23	1113.62
1989.44	1113.44
1988.66	1084.62
1987.87	1106.71
1987.09	1100.16
1986.3	1125.41
1985.51	1226.94
1984.73	1099.61
1983.94	1197.93
1983.15	1143.73
1982.37	1105.42
1981.58	1089.35
1980.79	1130.45
1980	1152.49
1979.22	1193.56
1978.43	1123.54
1977.64	1101.14
1976.85	1164.41
1976.06	1180.08
1975.28	1119.62
1974.49	1138.46
1973.7	1128.76
1972.91	1141.25
1972.12	1153.74
1971.33	1096.51
1970.54	1175.54
1969.76	1115.15
1968.97	1232.16
1968.18	1155.95
1967.39	1073.43
1966.6	1114.41
1965.81	1174.36
1965.02	1082.39
1964.23	1189.79
1963.44	1192.76
1962.65	1255.82
1961.86	1176.55
1961.07	1189
1960.28	1245.71
1959.48	1188.6
1958.69	1204.21
1957.9	1191.37
1957.11	1188.01
1956.32	1228.88
1955.53	1127.6
1954.74	1263.21
1953.94	1177.74
1953.15	1136.51
1952.36	1167.88
1951.57	1233.96
1950.78	1230.6
1949.98	1208.31
1949.19	1268.04
1948.4	1185.83
1947.61	1113.11
1946.81	1207.5
1946.02	1229.37
1945.23	1178.74
1944.43	1225.81
1943.64	1285.46
1942.85	1181.3
1942.05	1187.4
1941.26	1193.5
1940.46	1249.97
1939.67	1221.43
1938.88	1303.06
1938.08	1233.61
1937.29	1189.35
1936.49	1245.78
1935.7	1305.34
1934.9	1323.99
1934.11	1254.59
1933.31	1219.8
1932.52	1285.61
1931.72	1235.11
1930.93	1231.76
1930.13	1240.98
1929.33	1234.49
1928.54	1184.03
1927.74	1284.32
1926.95	1230.73
1926.15	1202.27
1925.35	1264.84
1924.56	1289.73
1923.76	1248.73
1922.96	1220.29
1922.17	1254.59
1921.37	1254.38
1920.57	1263.57
1919.77	1235.15
1918.98	1241.21
1918.18	1197.13
1917.38	1294.06
1916.58	1318.91
1915.78	1281.1
1914.99	1215.12
1914.19	1318.25
1913.39	1177.14
1912.59	1270.85
1911.79	1289.42
1910.99	1311.1
1910.19	1320.27
1909.39	1288.77
1908.59	1310.45
1907.8	1294.59
1907	1231.85
1906.2	1297.28
1905.4	1337.7
1904.6	1265.6
1903.8	1306.01
1903	1252.68
1902.2	1289.95
1901.39	1280.37
1900.59	1286.4
1899.79	1308.04
1898.99	1214.18
1898.19	1279.51
1897.39	1351.06
1896.59	1319.64
1895.79	1269.51
1894.99	1253.7
1894.18	1390.69
1893.38	1331.22
1892.58	1337.23
1891.78	1349.48
1890.98	1352.37
1890.17	1324.1
1889.37	1311.42
1888.57	1329.89
1887.76	1326.55
1886.96	1310.76
1886.16	1294.97
1885.36	1307.21
1884.55	1363
1883.75	1337.88
1882.94	1309.66
1882.14	1324.99
1881.34	1362.09
1880.53	1374.3
1879.73	1364.74
1878.92	1411.13
1878.12	1336.31
1877.32	1367.16
1876.51	1370.04
1875.71	1394.66
1874.9	1332.31
1874.1	1347.61
1873.29	1325.65
1872.49	1387.51
1871.68	1374.86
1870.87	1396.36
1870.07	1352.69
1869.26	1312.13
1868.46	1414.26
1867.65	1289.99
1866.84	1339.38
1866.04	1447.65
1865.23	1410.21
1864.42	1400.68
1863.62	1415.93
1862.81	1406.4
1862	1427.85
1861.2	1294.45
1860.39	1402.6
1859.58	1473.56
1858.77	1327.84
1857.96	1395.7
1857.16	1420.22
1856.35	1392.14
1855.54	1444.49
1854.73	1456.62
1853.92	1379.07
1853.12	1480.86
1852.31	1415.7
1851.5	1369.1
1850.69	1427.58
1849.88	1408.8
1849.07	1448.72
1848.26	1457.75
1847.45	1432.8
1846.64	1469.61
1845.83	1441.58
1845.02	1404.3
1844.21	1450.35
1843.4	1385.31
1842.59	1443.69
1841.78	1461.95
1840.97	1418.54
1840.16	1504.63
1839.35	1476.63
1838.54	1383.91
1837.72	1442.23
1836.91	1469.72
1836.1	1426.35
1835.29	1419.95
1834.48	1462.82
1833.67	1477.97
1832.85	1459.25
1832.04	1545.19
1831.23	1492.61
1830.42	1436.97
1829.6	1455.19
1828.79	1485.71
1827.98	1525.44
1827.17	1528.25
1826.35	1497.25
1825.54	1444.74
1824.73	1505.97
1823.91	1462.69
1823.1	1450.16
1822.29	1548.21
1821.47	1532.6
1820.66	1473.99
1819.84	1519.8
1819.03	1455.08
1818.21	1457.9
1817.4	1503.69
1816.58	1460.48
1815.77	1509.31
1814.95	1447.72
1814.14	1539.47
1813.32	1530.01
1812.51	1591.07
1811.69	1495.78
1810.88	1477.14
1810.06	1501.4
1809.25	1547.11
1808.43	1503.96
1807.61	1580.27
1806.8	1500.39
1805.98	1595.05
1805.16	1506.01
1804.35	1527.18
1803.53	1505.5
1802.71	1633.74
1801.89	1446.87
1801.08	1553.67
1800.26	1525.89
1799.44	1556.2
1798.62	1485.63
1797.81	1491.5
1796.99	1543.19
1796.17	1628.48
1795.35	1564.06
1794.53	1576.01
1793.71	1569.63
1792.9	1575.48
1792.08	1559.95
1791.26	1611.57
1790.44	1623.51
1789.62	1562.21
1788.8	1604.65
1787.98	1552.53
1787.16	1543.12
1786.34	1469.68
1785.52	1597.47
1784.7	1563.67
1783.88	1569.5
1783.06	1526.58
1782.24	1614.67
1781.42	1526.06
1780.6	1650.67
1779.78	1531.64
1778.95	1723.18
1778.13	1601.13
1777.31	1582.6
1776.49	1606.67
1775.67	1518.17
1774.85	1639.59
1774.02	1700.14
1773.2	1614.71
1772.38	1653.96
1771.56	1769.2
1770.74	1626.05
1769.91	1710.86
1769.09	1573.85
1768.27	1679.9
1767.44	1673.54
1766.62	1597.34
1765.8	1651.72
1764.97	1660.55
1764.15	1730.08
1763.33	1714.61
1762.5	1711.29
1761.68	1613.92
1760.85	1747.11
1760.03	1722.55
1759.21	1661.62
1758.38	1788.66
1757.56	1673.18
1756.73	1678.96
1755.91	1775.64
1755.08	1760.19
1754.26	1881.05
1753.43	1792.9
1752.6	1750.21
1751.78	1880.1
1750.95	1867.67
1750.13	2015.65
1749.3	1891.24
1748.47	1993.79
1747.65	2002.53
1746.82	1993.11
1745.99	2074.42
1745.17	2052.91
1744.34	2140.22
1743.51	2218.44
1742.69	2239.22
1741.86	2293.22
1741.03	2458.98
1740.2	2431.38
1739.38	2536.66
1738.55	2647.95
1737.72	2683.73
1736.89	2834.19
1736.06	3038.91
1735.23	2893.57
1734.4	2974.53
1733.58	3142.94
1732.75	3238.91
1731.92	3283.59
1731.09	3340.31
1730.26	3366.87
1729.43	3438.63
1728.6	3495.29
1727.77	3699.56
1726.94	3668.81
1726.11	3803.71
1725.28	3788.01
1724.45	3781.35
1723.62	3741.57
1722.79	3698.8
1721.96	3737.29
1721.13	3508.01
1720.3	3417.17
1719.46	3371.48
1718.63	3256.63
1717.8	3174.9
1716.97	2951.92
1716.14	3047.59
1715.31	2782.64
1714.47	2719.07
1713.64	2739.63
1712.81	2579.98
1711.98	2597.56
1711.14	2278.86
1710.31	2293.48
1709.48	2194.05
1708.65	2214.68
1707.81	2076.29
1706.98	2033.93
1706.15	2018.59
1705.31	2045.24
1704.48	1972.93
1703.64	1822.7
1702.81	1909.31
1701.98	1852.05
1701.14	1797.8
1700.31	1872.39
1699.47	1943.96
1698.64	1805.87
1697.8	1844.49
1696.97	1832.2
1696.13	1837.87
1695.3	1816.61
1694.46	1855.2
1693.63	1878.82
1692.79	1827.65
1691.95	1803.41
1691.12	1850.95
1690.28	1838.67
1689.45	1835.37
1688.61	1915.75
1687.77	1909.45
1686.94	1924.06
1686.1	1816.2
1685.26	1890.55
1684.42	1914.12
1683.59	1827.21
1682.75	1767.2
1681.91	1784.8
1681.07	1885.96
1680.24	1939.34
1679.4	1843.55
1678.56	1864.12
1677.72	1804.16
1676.88	1791.92
1676.04	1737.96
1675.21	1943.32
1674.37	1925.11
1673.53	1814.54
1672.69	1847
1671.85	1888.38
1671.01	1831.48
1670.17	1863.92
1669.33	1842.76
1668.49	1815.66
1667.65	1779.64
1666.81	1892.4
1665.97	1838.53
1665.13	1820.37
1664.29	1843.85
1663.45	1852.46
1662.61	1899.71
1661.77	1851.83
1660.92	1910.95
1660.08	1880.91
1659.24	1850.88
1658.4	1933.73
1657.56	1868.07
1656.72	1950.89
1655.87	1864.46
1655.03	1959.13
1654.19	1905.37
1653.35	1842.73
1652.5	1875.05
1651.66	1848.04
1650.82	1865.52
1649.98	1924.5
1649.13	2019.05
1648.29	1903.1
1647.45	1920.55
1646.6	1955.79
1645.76	1884.34
1644.91	1966.97
1644.07	1901.47
1643.23	1871.53
1642.38	1874.17
1641.54	1897.54
1640.69	1962.33
1639.85	1849.54
1639	1961.66
1638.16	2008.65
1637.31	1966.9
1636.47	1957.69
1635.62	2028.32
1634.78	2098.92
1633.93	2003.98
1633.08	2003.64
1632.24	1997.39
1631.39	2011.81
1630.55	2005.56
1629.7	2070.19
1628.85	2102.32
1628.01	2099
1627.16	2166.53
1626.31	2198.63
1625.46	2092.03
1624.62	2277.53
1623.77	2265.34
1622.92	2276.75
1622.07	2403.15
1621.23	2617.95
1620.38	2753.1
1619.53	2964.82
1618.68	3332.64
1617.83	3676.77
1616.98	4106.2
1616.13	4653.29
1615.29	5203.13
1614.44	5629.14
1613.59	5904.87
1612.74	6086.34
1611.89	5952.88
1611.04	5628.23
1610.19	5286.04
1609.34	4770.44
1608.49	4469.69
1607.64	4160.21
1606.79	3859.66
1605.94	3609.18
1605.09	3229.49
1604.24	3155.48
1603.38	2946.37
1602.53	2831.32
1601.68	2807.34
1600.83	2618.96
1599.98	2483.47
1599.13	2409.67
1598.27	2388.72
1597.42	2320.82
1596.57	2352.69
1595.72	2185.11
1594.87	2175.93
1594.01	2272.32
1593.16	2142.94
1592.31	2054.64
1591.45	2092.39
1590.6	2165.28
1589.75	2085.81
1588.89	2079.59
1588.04	2079.24
1587.19	2114.02
1586.33	2137.07
1585.48	1969.87
1584.62	1984.16
1583.77	2115.49
1582.92	2041.99
1582.06	2117.69
1581.21	2047.14
1580.35	2046.79
1579.5	2139.99
1578.64	2142.54
1577.78	2039.89
1576.93	2062.91
1576.07	2138.52
1575.22	2106.02
1574.36	2108.58
1573.51	2213.34
1572.65	2043.63
1571.79	2019.92
1570.94	2080.86
1570.08	1949.2
1569.22	2129.75
1568.37	2106.04
1567.51	2094.02
1566.65	2049.92
1565.79	2058.31
1564.94	2043.38
1564.08	2075.09
1563.22	1996.06
1562.36	2048.16
1561.5	2120.63
1560.65	2102.79
1559.79	2067.48
1558.93	2017.63
1558.07	2043.48
1557.21	2066.42
1556.35	1946.75
1555.49	2007.52
1554.63	2071.17
1553.77	1974.83
1552.91	2035.56
1552.05	2055.56
1551.19	2046.49
1550.33	2034.51
1549.47	1958.6
1548.61	2042.52
1547.75	2004.41
1546.89	2067.96
1546.03	2163.44
1545.17	2009.18
1544.31	2029.16
1543.45	2017.2
1542.58	2086.5
1541.72	2051.32
1540.86	2010.35
1540	2053.51
1539.14	2015.46
1538.28	2073.1
1537.41	2093.04
1536.55	2069.49
1535.69	2072.03
1534.82	2068.78
1533.96	2074.21
1533.1	2134.68
1532.24	2079.29
1531.37	1983.38
1530.51	2078.57
1529.64	2078.21
1528.78	2141.52
1527.92	2115.11
1527.05	2054
1526.19	2128.85
1525.32	2128.48
1524.46	2044.26
1523.59	2023.67
1522.73	2049.34
1521.86	2034.53
1521	2063.08
1520.13	2192.72
1519.27	1990.15
1518.4	1992.7
1517.54	2006.79
1516.67	2003.56
1515.8	2046.51
1514.94	2014.41
1514.07	2100.63
1513.21	2028.14
1512.34	2042.21
1511.47	2070.7
1510.6	2038.62
1509.74	2078.63
1508.87	1986.03
1508	2069.27
1507.14	2100.61
1506.27	2114.65
1505.4	2099.88
1504.53	2085.12
1503.66	2136.59
1502.8	2113.19
1501.93	2153.12
1501.06	2132.61
1500.19	2094.83
1499.32	2071.45
1498.45	2033.7
1497.58	2085.12
1496.71	2093.38
1495.84	2078.65
1494.97	2124.28
1494.1	2057.81
1493.23	2034.46
1492.36	2177.76
1491.49	2082.59
1490.62	2085.11
1489.75	2076.13
1488.88	2090.13
1488.01	2213.2
1487.14	2072.18
1486.27	2066.09
1485.4	2054.25
1484.52	2119.87
1483.65	2199.81
1482.78	2087.6
1481.91	2121.64
1481.04	2152.81
1480.17	2109.44
1479.29	2192.18
1478.42	2097.25
1477.55	2159.91
1476.67	2159.54
1475.8	2147.71
1474.93	2092.94
1474.06	2124.06
1473.18	2198.11
1472.31	2183.42
1471.43	2131.54
1470.56	2228.44
1469.69	2279.53
1468.81	2156.17
1467.94	2215.84
1467.06	2132.56
1466.19	2206.5
1465.31	2386.15
1464.44	2277.17
1463.56	2285.34
1462.69	2319.22
1461.81	2338.81
1460.94	2235.62
1460.06	2303.74
1459.19	2417.51
1458.31	2288.67
1457.43	2351.05
1456.56	2279.32
1455.68	2338.82
1454.8	2272.83
1453.93	2292.39
1453.05	2297.7
1452.17	2288.75
1451.3	2325.4
1450.42	2245.22
1449.54	2353.08
1448.66	2344.13
1447.78	2312.39
1446.91	2360.4
1446.03	2394.15
1445.15	2222.96
1444.27	2188.42
1443.39	2270.55
1442.51	2241.71
1441.64	2204.35
1440.76	2272.22
1439.88	2317.31
1439	2265.74
1438.12	2228.4
1437.24	2253.59
1436.36	2131.02
1435.48	2215.87
1434.6	2204.13
1433.72	2226.46
1432.84	2214.72
1431.96	2208.66
1431.08	2230.98
1430.2	2267.49
1429.31	2153.6
1428.43	2141.87
1427.55	2195.39
1426.67	2115.61
1425.79	2248.5
1424.91	2163.06
1424.02	2230.72
1423.14	2238.83
1422.26	2190.27
1421.38	2212.56
1420.49	2209.34
1419.61	2237.27
1418.73	2285.02
1417.85	2312.93
1416.96	2156.85
1416.08	2264.02
1415.2	2357
1414.31	2401.85
1413.43	2443.86
1412.54	2338.8
1411.66	2377.98
1410.78	2431.28
1409.89	2422.38
1409.01	2320.22
1408.12	2333.94
1407.24	2316.59
1406.35	2350.08
1405.47	2327.08
1404.58	2315.38
1403.7	2258.51
1402.81	2314.57
1401.92	2274.66
1401.04	2198.08
1400.15	2296.43
1399.27	2262.19
1398.38	2306.92
1397.49	2298.05
1396.61	2182.07
1395.72	2252.15
1394.83	2257.4
1393.94	2231.65
1393.06	2135.47
1392.17	2171.72
1391.28	2295.25
1390.39	2261.06
1389.51	2229.7
1388.62	2099.83
1387.73	2130.43
1386.84	2239.79
1385.95	2225.34
1385.06	2210.88
1384.17	2314.55
1383.29	2246.67
1382.4	2212.54
1381.51	2296.48
1380.62	2147.13
1379.73	2231.05
1378.84	2281.23
1377.95	2207.8
1377.06	2229.88
1376.17	2254.77
1375.28	2189.8
1374.39	2273.63
1373.5	2228.33
1372.6	2278.45
1371.71	2216.33
1370.82	2243.99
1369.93	2181.9
1369.04	2355.37
1368.15	2231.6
1367.26	2273.26
1366.36	2222.42
1365.47	2132.36
1364.58	2300.08
1363.69	2145.62
1362.79	2234.87
1361.9	2181.28
1361.01	2239.69
1360.11	2191.71
1359.22	2194.13
1358.33	2098.61
1357.43	2221.34
1356.54	2195.77
1355.65	2189.8
1354.75	2217.38
1353.86	2295.27
1352.96	2211.01
1352.07	2249.75
1351.17	2249.36
1350.28	2248.96
1349.39	2175.95
1348.49	2331.96
1347.59	2189.15
1346.7	2219.47
1345.8	2205.13
1344.91	2327.54
1344.01	2162.5
1343.12	2251.4
1342.22	2301.22
1341.32	2351.01
1340.43	2250.22
1339.53	2235.89
1338.63	2268.94
1337.74	2254.61
1336.84	2234.71
1335.94	2281.68
1335.04	2289.64
1334.15	2250.25
1333.25	2288.84
1332.35	2216.05
1331.45	2274.12
1330.55	2237.54
1329.66	2354.02
1328.76	2286.84
1327.86	2283.65
1326.96	2297.16
1326.06	2285.64
1325.16	2338.06
1324.26	2323.75
1323.36	2242.75
1322.46	2350.72
1321.56	2419.76
1320.66	2319.34
1319.76	2405.03
1318.86	2432.38
1317.96	2418.07
1317.06	2317.72
1316.16	2420
1315.26	2538.89
1314.36	2480.18
1313.46	2538
1312.55	2446.03
1311.65	2512.15
1310.75	2719.63
1309.85	2683.12
1308.95	2613.37
1308.04	2701.58
1307.14	2770.36
1306.24	2797.58
1305.34	2777.7
1304.43	2799.37
1303.53	2668.76
1302.63	2720.88
1301.72	2828.33
1300.82	2869.34
1299.92	2794.14
1299.01	2920.89
1298.11	2989.52
1297.21	2941.99
1296.3	3187.51
1295.4	3087.45
1294.49	3266.54
1293.59	3301.88
1292.68	3276.44
1291.78	3433.31
1290.87	3413.37
1289.97	3426.58
1289.06	3522.6
1288.16	3494.38
1287.25	3493.77
1286.34	3446.25
1285.44	3365.64
1284.53	3307.12
1283.62	3179.69
1282.72	3363.86
1281.81	3299.87
1280.9	3279.99
1280	3152.65
1279.09	3030.86
1278.18	3002.78
1277.27	3035.31
1276.37	2987.96
1275.46	2935.12
1274.55	2879.54
1273.64	2840.5
1272.73	2740.93
1271.82	2834
1270.92	2704.21
1270.01	2687.23
1269.1	2587.76
1268.19	2587.3
1267.28	2644.57
1266.37	2545.16
1265.46	2566.7
1264.55	2588.23
1263.64	2521.84
1262.73	2504.92
1261.82	2482.51
1260.91	2517.77
1260	2289.47
1259.09	2472.96
1258.18	2412.16
1257.27	2269.06
1256.35	2433.25
1255.44	2358.77
1254.53	2374.81
1253.62	2396.32
1252.71	2297.22
1251.79	2351.63
1250.88	2348.47
1249.97	2243.95
1249.06	2353.13
1248.14	2322.58
1247.23	2289.31
1246.32	2321.76
1245.41	2326.83
1244.49	2299.05
1243.58	2293.17
1242.66	2342.02
1241.75	2366.22
1240.84	2343.93
1239.92	2321.64
1239.01	2258.34
1238.09	2312.62
1237.18	2227.48
1236.26	2306.34
1235.35	2316.86
1234.43	2201.72
1233.52	2220.45
1232.6	2282.87
1231.69	2279.73
1230.77	2232.92
1229.86	2205.24
1228.94	2327.64
1228.02	2259.03
1227.11	2198.62
1226.19	2149.14
1225.27	2230.56
1224.36	2230.17
1223.44	2284.29
1222.52	2297.52
1221.6	2288.94
1220.69	2234.04
1219.77	2214.58
1218.85	2255.04
1217.93	2224.69
1217.01	2197.07
1216.1	2308.29
1215.18	2302.44
1214.26	2182.3
1213.34	2195.52
1212.42	2257.7
1211.5	2341.61
1210.58	2267.78
1209.66	2261.94
1208.74	2286
1207.82	2201.35
1206.9	2203.68
1205.98	2260.34
1205.06	2154.01
1204.14	2202.51
1203.22	2196.69
1202.3	2163.72
1201.38	2385.92
1200.46	2287.8
1199.54	2279.25
1198.61	2240.87
1197.69	2267.6
1196.77	2229.23
1195.85	2375.25
1194.93	2247.42
1194	2271.41
1193.08	2417.35
1192.16	2362.74
1191.24	2367.74
1190.31	2323.98
1189.39	2334.4
1188.47	2301.5
1187.54	2463.52
1186.62	2441.43
1185.7	2568.19
1184.77	2527.15
1183.85	2472.6
1182.92	2504.62
1182	2563.67
1181.07	2444.24
1180.15	2622.23
1179.23	2451.49
1178.3	2553.74
1177.37	2615.44
1176.45	2485.3
1175.52	2611.81
1174.6	2457.42
1173.67	2513.68
1172.75	2486.24
1171.82	2526.29
1170.89	2531.24
1169.97	2393.19
1169.04	2381.97
1168.11	2319.52
1167.19	2367.65
1166.26	2356.44
1165.33	2194.28
1164.4	2339.44
1163.48	2287.82
1162.55	2292.8
1161.62	2300.48
1160.69	2313.54
1159.76	2307.74
1158.83	2345.02
1157.91	2293.46
1156.98	2338.81
1156.05	2322.25
1155.12	2300.31
1154.19	2324.12
1153.26	2350.6
1152.33	2296.4
1151.4	2320.19
1150.47	2303.65
1149.54	2354.31
1148.61	2152.36
1147.68	2267.5
1146.75	2261.72
1145.82	2344.58
1144.89	2354.9
1143.96	2378.65
1143.02	2343.33
1142.09	2383.17
1141.16	2350.55
1140.23	2435.98
1139.3	2373.85
1138.36	2370.75
1137.43	2432
1136.5	2412.8
1135.57	2449.9
1134.63	2414.62
1133.7	2430.27
1132.77	2470.02
1131.83	2493.69
1130.9	2597.69
1129.97	2391.06
1129.03	2535.2
1128.1	2510.66
1127.17	2665.43
1126.23	2523.14
1125.3	2552.12
1124.36	2696.1
1123.43	2687.6
1122.49	2711.18
1121.56	2774.86
1120.62	2752.99
1119.69	2715.08
1118.75	2754.68
1117.81	2847.69
1116.88	2879.23
1115.94	2814.63
1115.01	2816.8
1114.07	2877.69
1113.13	2781.1
1112.2	2756.59
1111.26	2710.74
1110.32	2784.95
1109.38	2685.77
1108.45	2714.62
1107.51	2650.15
1106.57	2668.34
1105.63	2667.87
1104.69	2720.69
1103.76	2701.55
1102.82	2868.89
1101.88	2724.56
1100.94	2806.62
1100	2851.38
1099.06	2837.56
1098.12	2890.29
1097.18	2876.47
1096.24	2977.05
1095.3	2920.66
1094.36	2949.4
1093.42	2943.55
1092.48	2908.47
1091.54	2865.42
1090.6	2904.77
1089.66	2795.31
1088.72	2866.54
1087.78	2640.26
1086.84	2653.06
1085.9	2742.87
1084.95	2683.97
1084.01	2670.22
1083.07	2614.02
1082.13	2571.1
1081.19	2575.95
1080.24	2474.69
1079.3	2532.6
1078.36	2540.1
1077.41	2539.64
1076.47	2483.53
1075.53	2541.39
1074.58	2408.46
1073.64	2431.87
1072.7	2412.89
1071.75	2420.41
1070.81	2462.34
1069.86	2432.78
1068.92	2382.06
1067.98	2439.85
1067.03	2407.66
1066.09	2346.39
1065.14	2345.97
1064.19	2342.91
1063.25	2413.88
1062.3	2405.52
1061.36	2402.44
1060.41	2444.29
1059.46	2454.42
1058.52	2417
1057.57	2387.52
1056.63	2387.09
1055.68	2376.11
1054.73	2375.68
1053.78	2377.9
1052.84	2340.53
1051.89	2313.73
1050.94	2408.27
1049.99	2352.46
1049.05	2420.6
1048.1	2383.26
1047.15	2390.74
1046.2	2458.83
1045.25	2471.57
1044.3	2442.14
1043.35	2444.34
1042.4	2422.84
1041.45	2480.33
1040.5	2403.54
1039.55	2334.68
1038.6	2352.68
1037.65	2446.98
1036.7	2491.26
1035.75	2430.32
1034.8	2358.89
1033.85	2403.16
1032.9	2368.56
1031.95	2475.89
1031	2443.92
1030.05	2453.99
1029.1	2492.95
1028.14	2503.01
1027.19	2431.66
1026.24	2452.23
1025.29	2464.92
1024.33	2456.6
1023.38	2416.8
1022.43	2398
1021.48	2486.76
1020.52	2389.27
1019.57	2417.69
1018.62	2461.83
1017.66	2401.1
1016.71	2529.08
1015.75	2353.07
1014.8	2444.34
1013.85	2496.29
1012.89	2456.56
1011.94	2458.74
1010.98	2479.24
1010.03	2452.62
1009.07	2664.16
1008.12	2496.22
1007.16	2537.63
1006.2	2495.33
1005.25	2502.73
1004.29	2593.79
1003.34	2635.15
1002.38	2666.05
1001.42	2655.12
1000.47	2722.57
999.508	2630.65
998.551	2679.8
997.594	2585.31
996.636	2642.29
995.679	2584.38
994.721	2549.99
993.763	2499.95
992.805	2606.47
991.846	2527.75
990.888	2462.09
989.929	2558.13
988.97	2484.67
988.011	2479.01
987.052	2494.2
986.093	2418.19
985.133	2540.2
984.173	2479.83
983.213	2489.81
982.253	2478.94
981.293	2481.1
980.333	2493.67
979.372	2490.62
978.411	2544.82
977.45	2403.87
976.489	2447.66
975.528	2436.82
974.566	2402.58
973.605	2500.93
972.643	2464.09
971.681	2492.24
970.719	2515.17
969.756	2377.03
968.794	2431.15
967.831	2469.67
966.868	2362.77
965.905	2414.26
964.942	2491.7
963.979	2405.61
963.015	2418.15
962.052	2467
961.088	2528.81
960.124	2484.27
959.159	2398.26
958.195	2441.9
957.23	2423.32
956.266	2422.88
955.301	2342.13
954.336	2445.32
953.37	2548.48
952.405	2426.31
951.439	2428.46
950.473	2430.62
949.507	2450.88
948.541	2478.9
947.575	2468.11
946.608	2403
945.642	2443.94
944.675	2593.48
943.708	2383.6
942.741	2429.7
941.773	2437.01
940.806	2454.66
939.838	2412.88
938.87	2487.35
937.902	2443
936.934	2496.79
935.965	2413.73
934.997	2475.24
934.028	2397.37
933.059	2394.36
932.09	2453.26
931.121	2514.72
930.151	2408.54
929.182	2441.62
928.212	2479.85
927.242	2404.66
926.272	2362.99
925.301	2473.35
924.331	2483.21
923.36	2467.31
922.389	2358.71
921.418	2430.37
920.447	2432.51
919.475	2478.39
918.504	2529.41
917.532	2477.5
916.56	2549.07
915.588	2432.88
914.616	2545.58
913.643	2503.99
912.671	2490.68
911.698	2557.05
910.725	2572.01
909.752	2535.58
908.779	2504.3
907.805	2526.96
906.831	2685.69
905.858	2590.22
904.883	2564.09
903.909	2522.56
902.935	2611.91
901.96	2603.74
900.986	2554.54
900.011	2731.01
899.036	2561.31
898.06	2548.02
897.085	2644.96
896.109	2598.35
895.133	2708.05
894.157	2671.7
893.181	2645.6
892.205	2711.7
891.229	2685.61
890.252	2598.09
889.275	2651.37
888.298	2684.15
887.321	2747.62
886.343	2718.99
885.366	2764.53
884.388	2789.6
883.41	2773.76
882.432	2717.02
881.454	2752.31
880.475	2772.25
879.497	2751.31
878.518	2758.47
877.539	2760.53
876.56	2757.47
875.58	2746.76
874.601	2850.91
873.621	2829.98
872.641	2913.66
871.661	2772.83
870.681	2902.4
869.701	2797.33
868.72	2911.55
867.739	2913.57
866.758	3116.93
865.777	3149.49
864.796	3322.16
863.815	3395.43
862.833	3697.88
861.851	3656.47
860.869	3996.94
859.887	4036.94
858.905	4158.37
857.922	4137.26
856.939	4126.33
855.956	3939.9
854.973	3773.89
853.99	3717.27
853.007	3637.79
852.023	3512.59
851.039	3275.62
850.055	3295.35
849.071	3358.26
848.087	3085.89
847.102	3039.62
846.118	3097.46
845.133	2969.98
844.148	2989.74
843.163	3037.41
842.177	2849.12
841.192	2873.97
840.206	3000.25
839.22	2804.46
838.234	2859.72
837.248	2831.32
836.261	2764.92
835.274	2731.47
834.288	2799.38
833.301	2814.07
832.313	2808.49
831.326	2780.13
830.339	2860.63
829.351	2847.46
828.363	2839.35
827.375	2767.99
826.387	2810.49
825.398	2898.5
824.409	2956.14
823.421	2879.75
822.432	2843.83
821.443	2802.88
820.453	2873.12
819.464	2842.28
818.474	2831.66
817.484	2831.15
816.494	2858.41
815.504	2772.05
814.513	2791.74
813.523	2778.61
812.532	2836.14
811.541	2825.53
810.55	2759.44
809.559	2819.46
808.567	2700.44
807.575	2820.96
806.583	2800.28
805.591	2855.21
804.599	2789.18
803.607	2758.44
802.614	2853.65
801.621	2782.62
800.628	2855.13
799.635	2816.85
798.642	2788.65
797.649	2906.41
796.655	2842.98
795.661	2953.15
794.667	2987.82
793.673	3012.42
792.678	2941.48
791.684	2898.21
790.689	2880.09
789.694	2929.82
788.699	2836.33
787.704	2735.34
786.708	2822.74
785.713	2764.47
784.717	2801.62
783.721	2763.46
782.724	2717.79
781.728	2707.26
780.731	2729.34
779.735	2693.73
778.738	2801.07
777.741	2710.3
776.743	2659.67
775.746	2754.42
774.748	2671.23
773.75	2688.28
772.752	2720.35
771.754	2774.95
770.756	2714.35
769.757	2736.38
768.758	2788.45
767.759	2705.35
766.76	2812.45
765.761	2734.39
764.761	2631.33
763.762	2788.4
762.762	2845.4
761.762	2714.89
760.762	2709.39
759.761	2783.87
758.761	2675.92
757.76	2705.41
756.759	2732.39
755.758	2691.94
754.756	2773.84
753.755	2785.81
752.753	2817.75
751.751	2754.85
750.749	2794.26
749.747	2781.28
748.745	2793.24
747.742	2832.63
746.739	2852.05
745.736	2677.05
744.733	2828.58
743.73	2823.08
742.726	2790.18
741.723	2717.43
740.719	2826.51
739.715	2736.36
738.71	2740.84
737.706	2785.13
736.701	2874.21
735.697	2826.41
734.692	2743.8
733.686	2788.07
732.681	2849.73
731.675	2744.78
730.67	2808.91
729.664	2825.79
728.658	2832.73
727.651	2775.07
726.645	2839.14
725.638	2793.92
724.631	2793.41
723.624	2785.45
722.617	2854.44
721.61	2762.1
720.602	2826.1
719.595	2897.52
718.587	2854.83
717.578	2792.31
716.57	2824.03
715.562	2885.48
714.553	2800.69
713.544	2810.09
712.535	2844.26
711.526	2935.39
710.516	2897.7
709.507	2993.74
708.497	2896.64
707.487	2982.74
706.477	3091.09
705.467	3130.11
704.456	3136.96
703.445	3227.9
702.434	3279.24
701.423	3226.72
700.412	3075.33
699.401	3064.88
698.389	2967.93
697.377	2950.09
696.365	2949.55
695.353	2939.13
694.34	2857.1
693.328	2930.65
692.315	2838.77
691.302	2840.72
690.289	2909.29
689.276	2807.6
688.262	2920.56
687.249	3013.74
686.235	2934.28
685.221	2936.2
684.206	2918.41
683.192	2873.51
682.177	2912.41
681.162	2909.41
680.147	2945.82
679.132	2937.89
678.117	2905.34
677.101	2924.5
676.086	2815.67
675.07	2940.65
674.054	2945.03
673.037	2907.59
672.021	2875.09
671.004	2916.36
669.987	2920.74
668.97	2939.87
667.953	2836.11
666.936	2879.82
665.918	2933.33
664.9	2797.7
663.882	3020.66
662.864	2971
661.846	2928.72
660.827	2866.82
659.808	2883.47
658.789	2828.96
657.77	2875.05
656.751	2979.98
655.731	2967.17
654.712	2917.59
653.692	3002.85
652.672	2926.32
651.652	2884.13
650.631	2861.54
649.611	2983.49
648.59	2953.55
647.569	3055.85
646.548	2984.29
645.526	2915.21
644.505	2992.98
643.483	3036.47
642.461	3089.73
641.439	3032.91
640.417	2971.21
639.394	2929.1
638.371	3028.79
637.348	3103.99
636.325	3152.29
635.302	3298.3
634.279	3571.28
633.255	3998.02
632.231	4253.68
631.207	4165
630.183	3898.17
629.159	3489.89
628.134	3237.93
627.109	3132.43
626.084	3039.16
625.059	3119.08
624.034	3045.35
623.008	3027.73
621.983	3085.67
620.957	2977.87
619.931	2960.27
618.904	3083.96
617.878	3044.42
616.851	3087.69
615.824	3077.38
614.797	2994.05
613.77	3054.34
612.743	3061.07
611.715	2926.7
610.687	3111.02
609.659	2998.58
608.631	2968.85
607.603	3036.37
606.574	3055.25
605.546	3035.25
604.517	3075.99
603.487	3046.27
602.458	3035.99
601.429	3067
600.399	3112.56
599.369	3102.28
598.339	3070.15
597.309	3008.92
596.278	3064.17
595.248	3000.53
594.217	2985.43
593.186	3055.19
592.155	3088.57
591.123	3104.96
590.091	3097.12
589.06	2982.66
588.028	3088.7
586.996	3046.96
585.963	2918.05
584.931	2965.93
583.898	3059.79
582.865	3051.96
581.832	3165.13
580.798	3043.57
579.765	3069.62
578.731	3105.33
577.697	3041.88
576.663	3138.02
575.629	3164.03
574.594	3194.86
573.56	3025.13
572.525	3048.73
571.49	3045.75
570.455	3062.09
569.419	3015.65
568.384	3106.82
567.348	3108.66
566.312	3216.67
565.276	3042.37
564.239	3164.82
563.203	3130.47
562.166	3125.07
561.129	3182.35
560.092	3176.94
559.054	3060.67
558.017	3149.26
556.979	3194.45
555.941	3092.69
554.903	3089.71
553.865	3055.43
552.826	3095.78
551.787	3027.82
550.749	3075.38
549.709	3045.94
548.67	3052.59
547.631	2938.99
546.591	3034.63
545.551	3043.68
544.511	3014.27
543.471	3090.62
542.43	3094.85
541.39	3159.14
540.349	3134.53
539.308	3126.75
538.267	3207.8
537.225	3113.58
536.184	3072.2
535.142	3057.23
534.1	3104.65
533.058	3123.26
532.015	3163.45
530.973	3030.98
529.93	3018.43
528.887	2991.5
527.844	2978.96
526.801	2954.45
525.757	2941.92
524.713	3032.39
523.669	3101.28
522.625	3014.5
521.581	3112.09
520.537	3078.01
519.492	3268.88
518.447	3275.45
517.402	3164.8
516.357	3157.04
515.311	3170.8
514.265	3065.01
513.22	3083.56
512.174	3080.6
511.127	2994
510.081	2967.17
509.034	2871.07
507.987	2851.43
506.94	2948.8
505.893	2933.93
504.846	2907.12
503.798	2973.4
502.75	2982.39
501.702	3091.57
500.654	3014.67
499.606	3111.88
