3200.54	33.6783
3199.95	21.049
3199.35	33.6732
3198.76	0
3198.16	8.41577
3197.57	29.4507
3196.98	8.41322
3196.38	37.8538
3195.79	37.8481
3195.19	37.8423
3194.6	42.0407
3194	21.0172
3193.41	4.2028
3192.81	4.20216
3192.22	16.8061
3191.62	21.0045
3191.03	33.602
3190.43	37.7966
3189.84	25.1939
3189.24	16.7934
3188.65	46.1749
3188.05	41.9708
3187.45	25.1787
3186.86	20.979
3186.26	4.19517
3185.67	16.7782
3185.07	29.3573
3184.47	29.3529
3183.88	33.5411
3183.28	29.344
3182.69	50.2964
3182.09	25.1444
3181.49	75.4218
3180.9	20.9473
3180.3	12.5665
3179.7	58.6347
3179.1	29.3129
3178.51	8.37386
3177.91	16.7452
3177.31	41.8566
3176.72	16.7401
3176.12	29.2908
3175.52	41.8376
3174.92	20.9156
3174.33	8.36499
3173.73	37.6367
3173.13	25.0874
3172.53	50.1671
3171.93	16.7198
3171.34	25.076
3170.74	33.4295
3170.14	41.7806
3169.54	33.4194
3168.94	45.9447
3168.34	25.057
3167.74	16.7021
3167.15	29.2243
3166.55	-4.17426
3165.95	33.3891
3165.35	16.692
3164.75	12.5171
3164.15	33.3739
3163.55	-4.1711
3162.95	33.3638
3162.35	25.019
3161.75	20.846
3161.15	16.6743
3160.55	37.5115
3159.95	29.1712
3159.35	45.8335
3158.75	24.9963
3158.15	24.9925
3157.55	16.6591
3156.95	24.9849
3156.35	41.6352
3155.75	29.1402
3155.15	41.6226
3154.55	29.1314
3153.95	24.966
3153.35	58.2451
3152.75	29.1181
3152.15	24.9546
3151.54	54.0601
3150.94	-4.15784
3150.34	24.9433
3149.74	54.0355
3149.14	49.8714
3148.54	54.0191
3147.94	58.1656
3147.33	20.7703
3146.73	29.074
3146.13	49.8335
3145.53	41.5216
3144.93	37.3638
3144.32	20.7545
3143.72	29.0519
3143.12	12.4489
3142.52	37.3411
3141.91	49.7806
3141.31	24.8865
3140.71	49.7655
3140.1	20.7325
3139.5	29.0211
3138.9	20.7262
3138.29	16.5784
3137.69	37.2958
3137.09	24.8601
3136.48	20.7136
3135.88	20.7104
3135.28	37.2731
3134.67	24.845
3134.07	41.402
3133.47	33.1166
3132.86	24.8337
3132.26	8.27663
3131.65	12.4131
3131.05	41.3706
3130.45	24.8186
3129.84	28.9506
3129.24	16.5407
3128.63	41.3454
3128.03	20.6696
3127.42	24.7997
3126.82	16.5306
3126.21	41.3203
3125.61	20.657
3125	12.3923
3124.4	33.0412
3123.79	20.6476
3123.19	37.16
3122.58	24.7696
3121.97	24.7658
3121.37	33.0161
3120.76	24.7583
3120.16	4.12575
3119.55	33.001
3118.94	32.996
3118.34	32.991
3117.73	41.2324
3117.13	24.7357
3116.52	8.24398
3115.91	41.2136
3115.31	32.9659
3114.7	4.12011
3114.09	20.5974
3113.48	16.4754
3112.88	16.4729
3112.27	45.2936
3111.66	37.0528
3111.06	24.6981
3110.45	37.0415
3109.84	41.1509
3109.23	41.1447
3108.63	32.9107
3108.02	24.6793
3107.41	24.6755
3106.8	24.6718
3106.19	53.4474
3105.59	20.5536
3104.98	12.3303
3104.37	32.8757
3103.76	53.4148
3103.15	24.6492
3102.54	41.0758
3101.93	45.1765
3101.33	32.8506
3100.72	20.5285
3100.11	49.261
3099.5	16.4178
3098.89	24.623
3098.28	32.8256
3097.67	20.5129
3097.06	36.9176
3096.45	36.912
3095.84	32.8056
3095.23	12.3002
3094.62	20.4973
3094.01	49.186
3093.4	40.9821
3092.79	40.9758
3092.18	45.0665
3091.57	45.0596
3090.96	57.3399
3090.35	45.0459
3089.74	81.8892
3089.13	16.3753
3088.52	32.7457
3087.91	32.7407
3087.3	36.8277
3086.69	40.9134
3086.08	53.1793
3085.46	28.6306
3084.85	49.0736
3084.24	36.7996
3083.63	32.7058
3083.02	36.7884
3082.41	16.3479
3081.79	28.6044
3081.18	28.6001
3080.57	36.7659
3079.96	44.9293
3079.35	61.2578
3078.73	53.082
3078.12	24.4957
3077.51	77.5577
3076.9	44.895
3076.28	32.6459
3075.67	28.5608
3075.06	53.0334
3074.45	48.9465
3073.83	28.5478
3073.22	36.6986
3072.61	53.0011
3071.99	69.2985
3071.38	40.7576
3070.77	61.1271
3070.15	44.8197
3069.54	32.5912
3068.93	36.6594
3068.31	20.3632
3067.7	44.7923
3067.08	56.9997
3066.47	52.9202
3065.86	24.421
3065.24	61.0431
3064.63	40.6892
3064.01	32.5464
3063.4	28.4737
3062.78	28.4694
3062.17	40.6643
3061.55	32.5265
3060.94	40.6519
3060.32	65.0331
3059.71	52.8313
3059.09	16.2533
3058.48	32.5017
3057.86	48.745
3057.25	52.799
3056.63	8.12169
3056.02	16.2409
3055.4	28.4172
3054.78	20.2949
3054.17	44.642
3053.55	28.4042
3052.94	32.457
3052.32	73.017
3051.7	20.2794
3051.09	56.7736
3050.47	12.1639
3049.85	12.1621
3049.24	24.3204
3048.62	64.8445
3048	28.3651
3047.39	16.2062
3046.77	32.4074
3046.15	56.7042
3045.53	36.4471
3044.92	28.3434
3044.3	32.3875
3043.68	20.2391
3043.06	40.472
3042.45	52.6056
3041.83	12.1379
3041.21	36.4081
3040.59	48.5367
3039.97	36.397
3039.35	32.3479
3038.74	48.5144
3038.12	12.1268
3037.5	32.3331
3036.88	52.5332
3036.26	20.202
3035.64	32.3182
3035.02	32.3133
3034.41	20.1927
3033.79	32.3034
3033.17	56.5222
3032.55	32.2935
3031.93	40.3607
3031.31	24.2127
3030.69	44.3831
3030.07	44.3763
3029.45	48.4031
3028.83	36.2968
3028.21	12.0971
3027.59	24.1904
3026.97	36.2801
3026.35	0
3025.73	16.1196
3025.11	40.2927
3024.49	32.2292
3023.87	68.4766
3023.25	40.2742
3022.63	32.2144
3022	44.288
3021.38	36.2301
3020.76	40.2495
3020.14	64.3893
3019.52	32.1897
3018.9	16.0924
3018.28	36.2023
3017.66	36.1968
3017.03	40.2125
3016.41	24.1238
3015.79	48.2402
3015.17	48.2328
3014.55	12.0564
3013.92	32.1453
3013.3	16.0702
3012.68	64.271
3012.06	24.0979
3011.43	32.1256
3010.81	44.166
3010.19	32.1158
3009.57	44.1524
3008.94	32.1059
3008.32	24.0757
3007.7	20.06
3007.07	32.0911
3006.45	56.1509
3005.83	16.0406
3005.2	44.105
3004.58	52.1161
3003.96	16.0333
3003.33	36.0693
3002.71	32.0567
3002.08	52.0841
3001.46	36.0527
3000.84	32.0419
3000.21	44.0509
2999.59	32.0321
2998.96	28.0238
2998.34	44.0306
2997.71	52.0281
2997.09	60.0233
2996.46	36.0084
2995.84	40.0032
2995.21	35.9974
2994.59	51.9882
2993.96	47.9817
2993.34	59.968
2992.71	27.9808
2992.09	55.9529
2991.46	19.9801
2990.84	31.9633
2990.21	55.9271
2989.58	55.9185
2988.96	43.9292
2988.33	47.9154
2987.71	39.9234
2987.08	15.9669
2986.45	67.8489
2985.83	43.8955
2985.2	59.8483
2984.57	31.9142
2983.95	51.8526
2983.32	47.8565
2982.69	55.8241
2982.07	31.8946
2981.44	39.8621
2980.81	43.8415
2980.18	51.8048
2979.56	55.7812
2978.93	47.8051
2978.3	51.7809
2977.67	47.7904
2977.05	43.8011
2976.42	31.8504
2975.79	51.749
2975.16	27.8606
2974.53	47.7536
2973.91	51.7251
2973.28	35.8042
2972.65	39.7763
2972.02	63.6323
2971.39	27.8349
2970.76	63.6127
2970.13	71.5533
2969.5	71.5423
2968.88	51.6615
2968.25	43.7068
2967.62	67.5365
2966.99	47.6655
2966.36	55.6012
2965.73	79.418
2965.1	47.6435
2964.47	67.4846
2963.84	71.4432
2963.21	51.5899
2962.58	51.582
2961.95	63.4758
2961.32	71.3992
2960.69	63.4562
2960.06	47.5848
2959.43	63.4367
2958.8	79.2836
2958.17	63.4171
2957.53	75.2962
2956.9	47.5482
2956.27	59.4261
2955.64	63.3781
2955.01	63.3683
2954.38	35.6392
2953.75	27.7151
2953.12	47.5043
2952.48	59.3712
2951.85	63.3195
2951.22	39.5686
2950.59	39.5625
2949.96	31.6451
2949.33	55.3704
2948.69	59.3163
2948.06	43.4919
2947.43	55.3448
2946.8	35.5733
2946.16	67.1837
2945.53	43.4651
2944.9	63.2122
2944.26	59.2523
2943.63	59.2432
2943	55.2851
2942.37	59.2249
2941.73	55.268
2941.1	39.4711
2940.47	51.3045
2939.83	63.1342
2939.2	71.0151
2938.56	43.3914
2937.93	55.2169
2937.3	51.2649
2936.66	31.5428
2936.03	43.3646
2935.39	39.4163
2934.76	23.6461
2934.13	35.4637
2933.49	31.5184
2932.86	55.1488
2932.22	51.2017
2931.59	51.1938
2930.95	51.1859
2930.32	55.1147
2929.68	59.0424
2929.05	62.9688
2928.41	62.9591
2927.78	47.212
2927.14	35.4035
2926.5	39.3312
2925.87	43.2576
2925.23	55.0467
2924.6	47.1756
2923.96	43.2376
2923.32	43.2309
2922.69	35.3653
2922.05	51.0753
2921.42	58.9239
2920.78	54.9872
2920.14	66.7598
2919.51	58.8966
2918.87	58.8875
2918.23	58.8784
2917.6	51.0201
2916.96	58.8602
2916.32	35.3107
2915.68	58.842
2915.05	43.1442
2914.41	62.7454
2913.77	47.0518
2913.13	50.9649
2912.5	58.7966
2911.86	70.545
2911.22	43.1042
2910.58	74.4411
2909.94	58.7602
2909.31	31.3339
2908.67	54.8259
2908.03	58.733
2907.39	27.4045
2906.75	50.8861
2906.11	54.792
2905.47	86.0884
2904.83	43.0375
2904.2	66.5023
2903.56	35.2016
2902.92	82.1244
2902.28	46.921
2901.64	58.6422
2901	62.542
2900.36	62.5323
2899.72	50.7996
2899.08	50.7918
2898.44	58.5968
2897.8	42.9643
2897.16	74.1996
2896.52	62.4742
2895.88	50.7525
2895.24	81.972
2894.6	62.4452
2893.96	46.8267
2893.32	42.9178
2892.67	66.3172
2892.03	58.5061
2891.39	50.6975
2890.75	31.1936
2890.11	54.5804
2889.47	77.9599
2888.83	62.3582
2888.19	54.555
2887.54	58.4427
2886.9	58.4337
2886.26	89.5844
2885.62	46.7325
2884.98	54.5128
2884.33	66.1838
2883.69	66.1736
2883.05	62.2713
2882.41	77.8271
2881.77	77.8151
2881.12	93.3636
2880.48	70.0118
2879.84	66.1121
2879.19	31.1067
2878.55	85.5303
2877.91	69.9684
2877.26	46.6384
2876.62	69.9468
2875.98	54.3946
2875.33	50.5014
2874.69	58.2619
2874.05	58.2528
2873.4	38.8292
2872.76	73.764
2872.11	85.3977
2871.47	50.4545
2870.83	54.3271
2870.18	27.1594
2869.54	42.6724
2868.89	62.0593
2868.25	54.2934
2867.6	42.6525
2866.96	42.6459
2866.31	54.2682
2865.67	38.757
2865.02	62.0015
2864.38	50.3684
2863.73	46.4867
2863.09	50.3528
2862.44	61.963
2861.8	46.4651
2861.15	50.3293
2860.5	46.4506
2859.86	34.8326
2859.21	69.6543
2858.57	65.7744
2857.92	50.2903
2857.27	77.3577
2856.63	61.8765
2855.98	54.1335
2855.33	54.1251
2854.69	57.9822
2854.04	46.3786
2853.39	54.0999
2852.75	54.0915
2852.1	54.0831
2851.45	57.9372
2850.81	34.7569
2850.16	57.9192
2849.51	77.2136
2848.86	61.7613
2848.21	84.9086
2847.57	42.4477
2846.92	69.4491
2846.27	88.7267
2845.62	53.9991
2844.97	69.4167
2844.33	73.2618
2843.68	65.5398
2843.03	46.2562
2842.38	57.8113
2841.73	34.6814
2841.08	46.2346
2840.43	53.932
2839.78	73.1821
2839.14	57.7663
2838.49	84.7108
2837.84	84.6976
2837.19	61.5887
2836.54	80.8226
2835.89	73.1138
2835.24	61.5599
2834.59	42.3159
2833.94	57.6945
2833.29	65.3769
2832.64	53.8314
2831.99	76.8901
2831.34	65.3464
2830.69	53.8063
2830.04	61.4834
2829.39	57.6317
2828.74	49.9397
2828.08	69.1365
2827.43	65.2854
2826.78	84.4739
2826.13	49.9086
2825.48	61.4164
2824.83	57.5689
2824.18	61.3973
2823.53	65.2245
2822.87	65.2143
2822.22	80.5463
2821.57	65.194
2820.92	99.6929
2820.27	84.3424
2819.61	53.6641
2818.96	68.986
2818.31	80.4711
2817.66	72.7958
2817	42.1384
2816.35	103.414
2815.7	88.0801
2815.05	65.0925
2814.39	80.3959
2813.74	53.5889
2813.09	65.0621
2812.43	95.6647
2811.78	87.9978
2811.13	53.5555
2810.47	84.1455
2809.82	53.5388
2809.16	53.5305
2808.51	61.1681
2807.86	49.6914
2807.2	68.7927
2806.55	64.9608
2805.89	76.4125
2805.24	99.3208
2804.58	68.7498
2803.93	72.5579
2803.28	42.0007
2802.62	76.353
2801.97	83.9751
2801.31	76.3291
2800.66	83.949
2800	76.3053
2799.34	87.7374
2798.69	38.1408
2798.03	53.3887
2797.38	80.0706
2796.72	60.9967
2796.07	64.7988
2795.41	60.9776
2794.75	87.6417
2794.1	68.5784
2793.44	68.5677
2792.79	64.7483
2792.13	22.8488
2791.47	41.8829
2790.82	68.5249
2790.16	79.9333
2789.5	45.669
2788.84	53.2722
2788.19	57.0684
2787.53	60.8635
2786.87	45.6405
2786.22	60.8445
2785.56	76.0437
2784.9	83.6351
2784.24	34.209
2783.59	57.0061
2782.93	72.1964
2782.27	56.9883
2781.61	79.7711
2780.95	79.7587
2780.29	64.5565
2779.64	49.359
2778.98	79.7213
2778.32	83.5045
2777.66	68.3112
2777	75.8895
2776.34	60.7021
2775.68	53.106
2775.02	49.305
2774.36	79.6341
2773.71	79.6217
2773.05	83.4001
2772.39	72.0161
2771.73	90.9535
2771.07	87.1502
2770.41	64.4053
2769.75	83.335
2769.09	79.5346
2768.43	53.0148
2767.77	68.1512
2767.11	75.7117
2766.45	79.4848
2765.79	83.2568
2765.12	90.8114
2764.46	56.7482
2763.8	83.2177
2763.14	64.2946
2762.48	79.4103
2761.82	79.3978
2761.16	75.6052
2760.5	75.5933
2759.83	90.6978
2759.17	102.019
2758.51	71.7799
2757.85	67.9914
2757.19	79.3109
2756.53	75.5224
2755.86	67.9595
2755.2	94.3734
2754.54	90.5843
2753.88	56.6063
2753.21	67.9169
2752.55	67.9063
2751.89	49.0358
2751.23	71.6564
2750.56	105.582
2749.9	60.3234
2749.24	94.2405
2748.57	109.302
2747.91	86.6741
2747.25	75.357
2746.58	71.5779
2745.92	75.3334
2745.25	71.5555
2744.59	109.199
2743.93	82.8278
2743.26	82.8148
2742.6	75.2744
2741.93	90.3151
2741.27	90.3009
2740.61	86.5248
2739.94	78.9886
2739.28	90.2585
2738.61	94.0045
2737.95	75.1918
2737.28	78.939
2736.62	75.1682
2735.95	93.9456
2735.29	82.6591
2734.62	101.429
2733.95	86.3893
2733.29	67.5984
2732.62	75.0976
2731.96	75.0858
2731.29	67.5666
2730.62	90.0747
2729.96	86.308
2729.29	101.302
2728.63	86.2809
2727.96	105.021
2727.29	90.004
2726.63	78.7412
2725.96	74.9798
2725.29	104.955
2724.62	59.965
2723.96	89.9335
2723.29	97.4126
2722.62	97.3973
2721.96	82.4002
2721.29	89.877
2720.62	93.6072
2719.95	74.874
2719.28	74.8622
2718.62	56.1379
2717.95	93.5484
2717.28	97.2751
2716.61	97.2598
2715.94	82.2838
2715.27	108.448
2714.61	100.953
2713.94	85.9835
2713.27	93.4456
2712.6	93.4309
2711.93	74.733
2711.26	78.4573
2710.59	63.5031
2709.92	104.577
2709.25	104.56
2708.58	93.3429
2707.91	93.3282
2707.24	70.9183
2706.57	97.0309
2705.9	67.1647
2705.23	97.0004
2704.56	82.0643
2703.89	104.429
2703.22	78.3095
2702.55	70.8403
2701.88	74.5571
2701.21	55.909
2700.54	81.987
2699.87	96.8785
2699.2	74.5102
2698.53	52.1489
2697.86	59.5894
2697.19	107.989
2696.51	89.356
2695.84	81.8968
2695.17	96.7719
2694.5	89.3138
2693.83	78.1373
2693.15	70.6845
2692.48	70.6734
2691.81	74.3814
2691.14	52.0588
2690.47	96.6653
2689.79	78.0636
2689.12	92.9182
2688.45	63.1744
2687.77	78.0267
2687.1	63.1545
2686.43	96.5741
2685.76	96.5589
2685.08	92.8305
2684.41	74.2527
2683.74	81.6651
2683.06	66.8064
2682.39	74.2176
2681.71	107.599
2681.04	111.291
2680.37	92.7282
2679.69	100.131
2679.02	92.699
2678.34	107.514
2677.67	103.79
2676.99	114.892
2676.32	100.052
2675.65	107.446
2674.97	96.3159
2674.3	96.3007
2673.62	85.1757
2672.95	88.865
2672.27	74.0425
2671.59	114.748
2670.92	77.7201
2670.24	81.4082
2669.57	77.6956
2668.89	103.578
2668.22	66.5752
2667.54	96.149
2666.86	73.9491
2666.19	88.725
2665.51	96.1036
2664.83	88.697
2664.16	114.549
2663.48	125.614
2662.8	92.349
2662.13	84.9477
2661.45	103.398
2660.77	81.2287
2660.1	107.057
2659.42	47.9836
2658.74	114.404
2658.06	114.386
2657.39	121.747
2656.71	73.7744
2656.03	103.268
2655.35	81.1262
2654.68	110.609
2654	95.8462
2653.32	99.5169
2652.64	136.353
2651.96	99.4855
2651.28	84.7335
2650.6	95.7706
2649.93	55.2435
2649.25	92.058
2648.57	95.7252
2647.89	77.3043
2647.21	77.2921
2646.53	88.3199
2645.85	84.6265
2645.17	125.08
2644.49	95.6346
2643.81	62.5204
2643.13	106.636
2642.45	77.2067
2641.77	95.5742
2641.09	84.533
2640.41	77.1701
2639.73	106.551
2639.05	106.535
2638.37	102.845
2637.69	121.191
2637.01	121.172
2636.33	88.1109
2635.65	95.4383
2634.96	84.4129
2634.28	99.0777
2633.6	117.407
2632.92	121.057
2632.24	106.366
2631.56	102.682
2630.88	117.333
2630.19	98.9838
2629.51	98.9681
2628.83	146.596
2628.15	113.594
2627.46	91.5937
2626.78	84.2529
2626.1	98.8899
2625.42	102.536
2624.73	106.181
2624.05	120.808
2623.37	106.148
2622.69	106.131
2622	131.728
2621.32	117.073
2620.64	106.081
2619.95	102.407
2619.27	117.018
2618.58	84.0931
2617.9	95.0467
2617.22	116.962
2616.53	95.0166
2615.85	95.0016
2615.16	120.56
2614.48	120.541
2613.79	113.217
2613.11	120.503
2612.43	142.39
2611.74	102.212
2611.06	87.5966
2610.37	91.232
2609.69	80.2715
2609	127.684
2608.31	145.902
2607.63	134.938
2606.94	83.867
2606.26	123.958
2605.57	131.229
2604.89	98.4058
2604.2	112.967
2603.51	83.8006
2602.83	112.931
2602.14	91.0587
2601.45	116.537
2600.77	105.595
2600.08	123.781
2599.39	98.2811
2598.71	109.184
2598.02	127.361
2597.33	109.149
2596.65	116.407
2595.96	105.478
2595.27	112.734
2594.58	87.2641
2593.9	105.427
2593.21	105.411
2592.52	127.2
2591.83	116.278
2591.14	127.159
2590.46	108.976
2589.77	101.695
2589.08	98.0476
2588.39	116.186
2587.7	108.907
2587.01	127.038
2586.32	112.502
2585.64	108.855
2584.95	137.862
2584.26	123.33
2583.57	105.177
2582.88	119.665
2582.19	112.395
2581.5	105.127
2580.81	112.359
2580.12	115.965
2579.43	90.5834
2578.74	105.06
2578.05	112.288
2577.36	144.864
2576.67	123.115
2575.98	108.614
2575.29	115.836
2574.6	90.4827
2573.91	86.8496
2573.22	104.927
2572.52	112.145
2571.83	137.446
2571.14	130.192
2570.45	137.403
2569.76	122.92
2569.07	93.9825
2568.38	130.109
2567.68	112.02
2566.99	122.842
2566.3	119.21
2565.61	108.355
2564.92	115.561
2564.22	108.321
2563.53	111.914
2562.84	104.677
2562.14	90.2243
2561.45	90.21
2560.76	155.136
2560.07	137.076
2559.37	144.267
2558.68	119.001
2557.99	129.799
2557.29	111.754
2556.6	82.9008
2555.91	118.926
2555.21	108.097
2554.52	147.709
2553.82	118.869
2553.13	126.053
2552.44	136.836
2551.74	147.615
2551.05	129.593
2550.35	125.973
2549.66	140.348
2548.96	125.933
2548.27	129.51
2547.57	133.087
2546.88	100.698
2546.18	118.661
2545.49	150.999
2544.79	150.975
2544.1	100.634
2543.4	165.301
2542.7	122.16
2542.01	93.4013
2541.31	111.345
2540.62	118.51
2539.92	111.31
2539.22	118.472
2538.53	129.222
2537.83	125.612
2537.13	129.181
2536.44	143.511
2535.74	118.378
2535.04	143.466
2534.35	118.34
2533.65	139.834
2532.95	121.888
2532.25	132.621
2531.56	93.1784
2530.86	161.245
2530.16	136.14
2529.46	121.79
2528.76	114.608
2528.07	132.494
2527.37	136.054
2526.67	128.872
2525.97	114.535
2525.27	128.831
2524.57	128.811
2523.88	114.48
2523.18	103.731
2522.48	103.715
2521.78	100.122
2521.08	110.832
2520.38	146.561
2519.68	153.686
2518.98	146.514
2518.28	146.491
2517.58	121.461
2516.88	107.154
2516.18	160.706
2515.48	121.403
2514.78	99.9626
2514.08	135.642
2513.38	114.207
2512.68	139.167
2511.98	121.306
2511.28	99.8829
2510.58	139.1
2509.88	160.475
2509.17	110.532
2508.47	156.859
2507.77	110.496
2507.07	135.426
2506.37	117.588
2505.67	138.945
2504.97	113.988
2504.26	124.654
2503.56	146
2502.86	145.977
2502.16	163.753
2501.45	124.575
2500.75	128.114
2500.05	160.116
2499.35	124.515
2498.64	145.837
2497.94	142.258
2497.24	138.679
2496.53	156.433
2495.83	142.189
2495.13	167.046
2494.42	156.358
2493.72	145.674
2493.02	152.756
2492.31	127.868
2491.61	138.502
2490.9	181.089
2490.2	138.457
2489.5	138.435
2488.79	124.217
2488.09	141.94
2487.38	134.821
2486.68	109.968
2485.97	141.871
2485.27	156.034
2484.56	127.643
2483.86	95.7173
2483.15	163.048
2482.45	152.39
2481.74	166.539
2481.04	148.798
2480.33	141.69
2479.62	155.834
2478.92	120.398
2478.21	131
2477.51	123.899
2476.8	109.722
2476.09	145.093
2475.39	120.302
2474.68	137.971
2473.97	152.097
2473.27	148.537
2472.56	134.369
2471.85	152.024
2471.14	162.605
2470.44	109.564
2469.73	151.951
2469.02	141.328
2468.31	127.174
2467.61	102.43
2466.9	127.134
2466.19	151.83
2465.48	158.866
2464.77	141.192
2464.07	130.581
2463.36	158.79
2462.65	119.955
2461.94	141.101
2461.23	151.66
2460.52	162.214
2459.81	155.137
2459.1	176.264
2458.4	155.087
2457.69	133.917
2456.98	165.608
2456.27	140.92
2455.56	151.465
2454.85	162.007
2454.14	158.459
2453.43	147.872
2452.72	161.929
2452.01	147.824
2451.3	147.8
2450.59	130.184
2449.88	161.825
2449.16	175.868
2448.45	154.739
2447.74	140.65
2447.03	154.69
2446.32	147.635
2445.61	175.727
2444.9	161.643
2444.19	140.537
2443.47	158.078
2442.76	172.102
2442.05	154.516
2441.34	119.38
2440.63	119.36
2439.91	179.012
2439.2	140.379
2438.49	168.428
2437.78	143.842
2437.06	129.788
2436.35	147.303
2435.64	154.293
2434.93	154.268
2434.21	119.188
2433.5	115.664
2432.79	168.211
2432.07	154.169
2431.36	168.157
2430.64	185.644
2429.93	189.116
2429.22	164.575
2428.5	136.54
2427.79	154.02
2427.07	157.496
2426.36	153.971
2425.65	132.954
2424.93	160.918
2424.22	153.897
2423.5	136.387
2422.79	188.813
2422.07	111.871
2421.36	167.779
2420.64	153.773
2419.92	143.266
2419.21	153.724
2418.49	195.617
2417.78	139.704
2417.06	146.665
2416.35	132.676
2415.63	185.018
2414.91	171.027
2414.2	143.081
2413.48	125.612
2412.76	160.479
2412.05	122.084
2411.33	136.014
2410.61	142.966
2409.9	177.808
2409.18	160.35
2408.46	191.692
2407.74	181.206
2407.03	170.725
2406.31	191.599
2405.59	139.322
2404.87	191.537
2404.16	135.796
2403.44	128.811
2402.72	170.56
2402	167.052
2401.28	184.424
2400.56	142.645
2399.85	125.229
2399.13	139.121
2398.41	149.531
2397.69	156.46
2396.97	177.293
2396.25	212.022
2395.53	135.533
2394.81	177.207
2394.09	177.179
2393.37	187.571
2392.65	170.176
2391.93	145.841
2391.21	159.705
2390.49	187.45
2389.77	180.478
2389.05	166.569
2388.33	173.481
2387.61	163.046
2386.89	156.082
2386.17	138.718
2385.45	162.967
2384.73	173.341
2384	128.252
2383.28	138.628
2382.56	152.466
2381.84	142.048
2381.12	187.058
2380.4	166.247
2379.67	190.46
2378.95	145.419
2378.23	200.784
2377.51	176.523
2376.79	162.652
2376.06	162.626
2375.34	176.438
2374.62	183.327
2373.9	197.131
2373.17	141.773
2372.45	152.122
2371.73	193.579
2371	152.073
2370.28	176.238
2369.56	172.755
2368.83	214.181
2368.11	172.699
2367.38	158.858
2366.66	186.455
2365.94	165.711
2365.21	200.202
2364.49	141.499
2363.76	179.433
2363.04	213.905
2362.31	186.274
2361.59	193.142
2360.86	155.178
2360.14	158.601
2359.41	196.496
2358.69	189.571
2357.96	189.54
2357.24	168.836
2356.51	210.149
2355.79	206.671
2355.06	151.534
2354.33	192.83
2353.61	175.585
2352.88	178.999
2352.15	189.295
2351.43	147.97
2350.7	189.234
2349.98	182.323
2349.25	199.491
2348.52	189.142
2347.79	195.988
2347.07	192.519
2346.34	161.552
2345.61	140.906
2344.88	168.372
2344.16	195.83
2343.43	182.058
2342.7	164.856
2341.97	164.829
2341.25	192.27
2340.52	181.94
2339.79	157.885
2339.06	178.45
2338.33	178.421
2337.6	195.545
2336.87	205.803
2336.14	192.052
2335.42	181.734
2334.69	181.705
2333.96	205.67
2333.23	185.073
2332.5	174.763
2331.77	174.735
2331.04	212.388
2330.31	178.103
2329.58	205.471
2328.85	188.317
2328.12	174.593
2327.39	177.988
2326.66	198.493
2325.93	215.569
2325.2	191.586
2324.47	205.238
2323.73	212.045
2323	188.074
2322.27	184.624
2321.54	188.013
2320.81	184.564
2320.08	191.369
2319.35	205.005
2318.61	204.972
2317.88	184.445
2317.15	191.245
2316.42	184.385
2315.69	184.355
2314.95	153.604
2314.22	177.47
2313.49	160.379
2312.76	208.118
2312.02	201.262
2311.29	204.64
2310.56	218.247
2309.82	197.754
2309.09	184.086
2308.36	170.423
2307.62	201.066
2306.89	245.329
2306.16	201.001
2305.42	248.655
2304.69	187.313
2303.95	214.523
2303.22	194.061
2302.48	190.626
2301.75	204.209
2301.02	214.384
2300.28	183.728
2299.55	170.091
2298.81	244.891
2298.08	193.841
2297.34	231.211
2296.6	200.577
2295.87	203.944
2295.13	193.715
2294.4	190.286
2293.66	183.46
2292.93	173.239
2292.19	210.571
2291.45	203.745
2290.72	173.155
2289.98	179.916
2289.24	196.857
2288.51	176.464
2287.77	196.794
2287.03	193.369
2286.3	196.73
2285.56	196.698
2284.82	189.884
2284.08	200.024
2283.35	233.888
2282.61	203.348
2281.87	206.704
2281.13	193.118
2280.4	203.249
2279.66	206.603
2278.92	193.024
2278.18	213.307
2277.44	213.273
2276.7	199.699
2275.97	219.972
2275.23	165.798
2274.49	189.452
2273.75	189.422
2273.01	155.571
2272.27	199.504
2271.53	209.614
2270.79	216.341
2270.05	189.268
2269.31	206.133
2268.57	195.963
2267.83	179.041
2267.09	219.543
2266.35	209.376
2265.61	162.071
2264.87	219.435
2264.13	205.898
2263.39	188.991
2262.65	202.457
2261.91	226.04
2261.17	222.63
2260.42	222.594
2259.68	236.046
2258.94	219.15
2258.2	209.001
2257.46	219.078
2256.72	202.193
2255.97	205.53
2255.23	218.971
2254.49	239.145
2253.75	198.694
2253	239.067
2252.26	208.729
2251.52	232.257
2250.78	222.123
2250.03	215.357
2249.29	225.415
2248.55	198.467
2247.8	195.072
2247.06	218.579
2246.32	205.095
2245.57	208.423
2244.83	225.195
2244.09	191.552
2243.34	248.641
2242.6	194.849
2241.85	191.459
2241.11	238.445
2240.36	228.332
2239.62	194.722
2238.88	228.258
2238.13	204.727
2237.39	194.627
2236.64	228.146
2235.89	231.463
2235.15	218.01
2234.4	234.741
2233.66	231.35
2232.91	221.255
2232.17	204.46
2231.42	221.183
2230.67	214.446
2229.93	224.461
2229.18	211.026
2228.44	214.341
2227.69	207.609
2226.94	241.054
2226.2	234.32
2225.45	220.894
2224.7	244.283
2223.95	200.748
2223.21	217.441
2222.46	224.095
2221.71	224.058
2220.96	224.022
2220.22	274.131
2219.47	227.291
2218.72	243.964
2217.97	240.583
2217.22	237.202
2216.48	210.441
2215.73	217.086
2214.98	233.747
2214.23	227.031
2213.48	213.642
2212.73	253.658
2211.98	170.19
2211.23	233.556
2210.48	220.174
2209.73	256.828
2208.98	223.437
2208.23	226.735
2207.48	226.698
2206.73	239.993
2205.98	236.621
2205.23	193.265
2204.48	246.539
2203.73	206.526
2202.98	246.458
2202.23	239.758
2201.48	226.401
2200.73	233.022
2199.98	256.282
2199.23	239.601
2198.48	219.598
2197.72	242.849
2196.97	259.441
2196.22	192.886
2195.47	239.405
2194.72	206.121
2193.97	259.271
2193.21	269.199
2192.46	249.217
2191.71	275.755
2190.96	262.423
2190.2	232.488
2189.45	229.13
2188.7	265.614
2187.94	245.653
2187.19	255.57
2186.44	225.661
2185.68	255.486
2184.93	275.349
2184.18	242.135
2183.42	232.146
2182.67	232.108
2181.91	215.494
2181.16	261.865
2180.41	265.136
2179.65	218.701
2178.9	208.726
2178.14	251.755
2177.39	278.21
2176.63	268.23
2175.88	215.211
2175.12	248.28
2174.37	221.76
2173.61	248.199
2172.86	221.688
2172.1	241.501
2171.34	287.769
2170.59	244.729
2169.83	238.075
2169.08	267.791
2168.32	271.052
2167.56	261.093
2166.81	241.224
2166.05	261.007
2165.29	257.661
2164.54	260.922
2163.78	214.647
2163.02	254.233
2162.27	273.998
2161.51	240.947
2160.75	247.507
2159.99	280.462
2159.23	283.715
2158.48	286.967
2157.72	270.43
2156.96	260.494
2156.2	240.67
2155.44	270.297
2154.69	266.957
2153.93	266.913
2153.17	224.039
2152.41	283.296
2151.65	250.314
2150.89	253.566
2150.13	260.109
2149.37	246.899
2148.61	256.732
2147.85	283.017
2147.09	253.358
2146.33	240.157
2145.57	282.878
2144.81	276.254
2144.05	246.615
2143.29	256.437
2142.53	253.108
2141.77	292.505
2141.01	256.311
2140.25	279.267
2139.49	266.081
2138.73	256.184
2137.97	229.871
2137.2	262.667
2136.44	223.23
2135.68	275.71
2134.92	295.355
2134.16	252.651
2133.4	249.328
2132.63	268.968
2131.87	255.806
2131.11	255.764
2130.35	252.443
2129.58	262.235
2128.82	278.579
2128.06	288.364
2127.29	262.106
2126.53	242.408
2125.77	235.818
2125	275.075
2124.24	265.208
2123.48	284.806
2122.71	255.301
2121.95	222.533
2121.19	281.393
2120.42	264.989
2119.66	268.217
2118.89	264.902
2118.13	258.319
2117.36	277.892
2116.6	245.159
2115.83	222.24
2115.07	271.219
2114.3	238.503
2113.54	271.13
2112.77	277.618
2112.01	290.634
2111.24	254.671
2110.48	303.596
2109.71	290.491
2108.94	238.228
2108.18	290.395
2107.41	228.363
2106.64	273.99
2105.88	303.296
2105.11	251.075
2104.34	277.115
2103.58	264.031
2102.81	319.392
2102.04	260.685
2101.28	247.61
2100.51	276.887
2099.74	293.126
2098.97	270.282
2098.21	273.494
2097.44	266.938
2096.67	302.697
2095.9	292.884
2095.13	234.269
2094.36	270.015
2093.6	286.234
2092.83	279.682
2092.06	292.642
2091.29	328.356
2090.52	273.043
2089.75	295.748
2088.98	305.447
2088.21	259.912
2087.44	272.863
2086.67	285.809
2085.9	256.536
2085.13	295.455
2084.36	305.145
2083.59	301.849
2082.82	324.515
2082.05	298.504
2081.28	317.92
2080.51	311.38
2079.74	288.628
2078.97	262.64
2078.2	304.742
2077.43	275.519
2076.65	288.437
2075.88	314.312
2075.11	294.821
2074.34	294.772
2073.57	268.814
2072.8	297.913
2072.02	265.487
2071.25	330.186
2070.48	304.239
2069.71	268.592
2068.93	294.432
2068.16	258.798
2067.39	271.693
2066.61	265.18
2065.84	278.07
2065.07	284.49
2064.29	258.584
2063.52	300.555
2062.75	287.58
2061.97	284.302
2061.2	284.255
2060.43	277.748
2059.65	284.161
2058.88	300.256
2058.1	284.067
2057.33	293.702
2056.55	293.654
2055.78	290.379
2055	283.879
2054.23	319.311
2053.45	322.483
2052.68	309.532
2051.9	303.033
2051.13	296.537
2050.35	315.824
2049.57	299.661
2048.8	325.384
2048.02	309.225
2047.25	305.953
2046.47	318.782
2045.69	299.413
2044.92	270.393
2044.14	315.406
2043.36	302.482
2042.59	299.214
2041.81	273.43
2041.03	292.683
2040.25	305.497
2039.48	315.092
2038.7	311.825
2037.92	295.703
2037.14	282.799
2036.37	318.097
2035.59	301.981
2034.81	311.567
2034.03	308.304
2033.25	321.097
2032.47	288.939
2031.69	298.521
2030.92	272.797
2030.14	295.213
2029.36	301.581
2028.58	333.609
2027.8	330.346
2027.02	295.017
2026.24	310.999
2025.46	333.387
2024.68	278.845
2023.9	275.594
2023.12	288.365
2022.34	323.556
2021.56	285.066
2020.78	281.816
2020	297.779
2019.21	307.334
2018.43	320.086
2017.65	304.032
2016.87	339.179
2016.09	332.724
2015.31	300.682
2014.53	284.641
2013.74	306.977
2012.96	290.94
2012.18	303.679
2011.4	297.236
2010.62	306.773
2009.83	325.892
2009.05	306.671
2008.27	300.233
2007.49	312.956
2006.7	300.133
2005.92	296.891
2005.14	296.841
2004.35	306.366
2003.57	319.078
2002.79	312.645
2002	293.454
2001.22	312.541
2000.43	331.621
1999.65	325.189
1998.87	315.573
1998.08	315.52
1997.3	337.773
1996.51	293.113
1995.73	315.363
1994.94	308.94
1994.16	334.364
1993.37	289.734
1992.59	350.17
1991.8	356.477
1991.02	321.413
1990.23	327.723
1989.44	318.125
1988.66	356.24
1987.87	330.74
1987.09	372.02
1986.3	330.63
1985.51	314.682
1984.73	355.944
1983.94	346.352
1983.15	327.233
1982.37	368.472
1981.58	323.948
1980.79	349.297
1980	361.939
1979.22	320.612
1978.43	336.427
1977.64	304.638
1976.85	320.452
1976.06	298.192
1975.28	310.83
1974.49	313.949
1973.7	320.238
1972.91	320.185
1972.12	310.623
1971.33	364.445
1970.54	339.036
1969.76	297.795
1968.97	370.598
1968.18	354.702
1967.39	316.645
1966.6	329.256
1965.81	303.878
1965.02	316.487
1964.23	354.406
1963.44	338.528
1962.65	316.329
1961.86	316.276
1961.07	322.548
1960.28	331.979
1959.48	373.019
1958.69	385.599
1957.9	344.454
1957.11	360.194
1956.32	315.907
1955.53	372.708
1954.74	318.96
1953.94	347.324
1953.15	303.068
1952.36	344.052
1951.57	375.553
1950.78	372.335
1949.98	375.428
1949.19	365.902
1948.4	324.842
1947.61	359.474
1946.81	327.886
1946.02	318.375
1945.23	343.535
1944.43	378.141
1943.64	356.023
1942.85	324.463
1942.05	381.101
1941.26	333.801
1940.46	390.419
1939.67	371.466
1938.88	352.519
1938.08	336.725
1937.29	349.255
1936.49	311.446
1935.7	368.011
1934.9	336.501
1934.11	358.455
1933.31	377.258
1932.52	317.472
1931.72	364.561
1930.93	351.931
1930.13	373.864
1929.33	376.943
1928.54	361.176
1927.74	339.135
1926.95	348.497
1926.15	360.995
1925.35	364.074
1924.56	367.151
1923.76	360.814
1922.96	338.795
1922.17	370.103
1921.37	360.633
1920.57	310.406
1919.77	376.187
1918.98	366.721
1918.18	350.991
1917.38	328.999
1916.58	394.732
1915.78	388.402
1914.99	338.229
1914.19	309.991
1913.39	350.638
1912.59	385.012
1911.79	369.299
1910.99	378.625
1910.19	334.761
1909.39	337.833
1908.59	340.904
1907.8	397.133
1907	340.79
1906.2	343.859
1905.4	409.436
1904.6	390.618
1903.8	362.432
1903	377.991
1902.2	387.298
1901.39	359.128
1900.59	380.924
1899.79	355.885
1898.99	355.826
1898.19	358.887
1897.39	352.586
1896.59	411.802
1895.79	411.733
1894.99	361.765
1894.18	392.886
1893.38	377.232
1892.58	361.583
1891.78	377.106
1890.98	364.578
1890.17	401.903
1889.37	370.686
1888.57	373.738
1887.76	361.22
1886.96	354.932
1886.16	373.55
1885.36	348.589
1884.55	360.978
1883.75	370.251
1882.94	370.189
1882.14	382.568
1881.34	376.284
1880.53	385.549
1879.73	388.593
1878.92	400.961
1878.12	369.817
1877.32	363.54
1876.51	385.226
1875.71	403.798
1874.9	350.935
1874.1	338.455
1873.29	347.712
1872.49	372.486
1871.68	384.838
1870.87	366.155
1870.07	409.529
1869.26	437.378
1868.46	400.087
1867.65	372.111
1866.84	384.45
1866.04	406.085
1865.23	368.825
1864.42	399.751
1863.62	365.602
1862.81	387.226
1862	374.771
1861.2	346.838
1860.39	408.704
1859.58	399.348
1858.77	399.281
1857.96	371.362
1857.16	420.806
1856.35	371.237
1855.54	429.944
1854.73	417.501
1853.92	352.497
1853.12	386.445
1852.31	349.288
1851.5	398.678
1850.69	404.791
1849.88	429.438
1849.07	386.121
1848.26	379.879
1847.45	367.463
1846.64	429.15
1845.83	422.904
1845.02	395.055
1844.21	398.074
1843.4	404.178
1842.59	351.668
1841.78	385.536
1840.97	385.472
1840.16	425.489
1839.35	406.921
1838.54	376.03
1837.72	400.621
1836.91	443.69
1836.1	391.244
1835.29	369.617
1834.48	378.794
1833.67	418.758
1832.85	387.902
1832.04	406.305
1831.23	427.779
1830.42	409.245
1829.6	378.411
1828.79	372.195
1827.98	409.038
1827.17	408.969
1826.35	418.124
1825.54	418.053
1824.73	408.763
1823.91	445.569
1823.1	448.566
1822.29	430.059
1821.47	405.416
1820.66	399.206
1819.84	411.42
1819.03	408.281
1818.21	405.143
1817.4	411.212
1816.58	408.074
1815.77	395.735
1814.95	420.206
1814.14	377.201
1813.32	404.733
1812.51	407.73
1811.69	389.271
1810.88	444.368
1810.06	407.524
1809.25	404.392
1808.43	392.071
1807.61	480.819
1806.8	434.807
1805.98	413.304
1805.16	416.295
1804.35	419.285
1803.53	413.094
1802.71	428.322
1801.89	440.485
1801.08	409.827
1800.26	360.831
1799.44	421.918
1798.62	440.188
1797.81	427.888
1796.99	440.039
1796.17	391.08
1795.35	427.671
1794.53	409.274
1793.71	409.204
1792.9	406.082
1792.08	439.594
1791.26	427.31
1790.44	415.031
1789.62	414.961
1788.8	424.043
1787.98	408.721
1787.16	460.496
1786.34	439.074
1785.52	460.34
1784.7	457.214
1783.88	435.804
1783.06	411.354
1782.24	426.517
1781.42	380.754
1780.6	414.19
1779.78	438.48
1778.95	407.961
1778.13	450.508
1777.31	444.345
1776.49	389.497
1775.67	425.94
1774.85	428.91
1774.02	437.962
1773.2	462.215
1772.38	431.733
1771.56	471.178
1770.74	425.508
1769.91	416.32
1769.09	416.249
1768.27	431.368
1767.44	449.518
1766.62	449.442
1765.8	434.185
1764.97	449.29
1764.15	446.179
1763.33	443.069
1762.5	442.994
1761.68	415.615
1760.85	430.711
1760.03	467.03
1759.21	466.951
1758.38	485.062
1757.56	466.793
1756.73	490.958
1755.91	460.574
1755.08	484.733
1754.26	499.796
1753.43	472.455
1752.6	466.318
1751.78	435.964
1750.95	441.944
1750.13	490.293
1749.3	435.742
1748.47	459.872
1747.65	496.094
1746.82	468.79
1745.99	459.639
1745.17	447.467
1744.34	532.033
1743.51	498.696
1742.69	471.415
1741.86	495.506
1741.03	507.505
1740.2	534.602
1739.38	543.571
1738.55	531.401
1737.72	519.236
1736.89	570.459
1736.06	531.131
1735.23	591.387
1734.4	594.303
1733.58	600.235
1732.75	588.07
1731.92	618.122
1731.09	599.929
1730.26	608.87
1729.43	690.136
1728.6	668.927
1727.77	626.636
1726.94	671.712
1726.11	680.633
1725.28	674.495
1724.45	671.37
1723.62	641.155
1722.79	665.123
1721.96	683.064
1721.13	667.905
1720.3	670.8
1719.46	685.724
1718.63	640.502
1717.8	628.367
1716.97	604.212
1716.14	622.142
1715.31	646.076
1714.47	585.877
1713.64	606.805
1712.81	552.639
1711.98	597.59
1711.14	552.451
1710.31	537.348
1709.48	576.275
1708.65	570.175
1707.81	522.072
1706.98	527.983
1706.15	485.902
1705.31	536.8
1704.48	491.733
1703.64	500.643
1702.81	521.539
1701.98	467.507
1701.14	518.366
1700.31	512.286
1699.47	506.208
1698.64	494.143
1697.8	506.036
1696.97	508.943
1696.13	517.837
1695.3	466.871
1694.46	457.815
1693.63	439.787
1692.79	493.554
1691.95	460.572
1691.12	463.484
1690.28	496.292
1689.45	502.186
1688.61	484.168
1687.77	496.038
1686.94	492.966
1686.1	471.972
1685.26	492.798
1684.42	471.811
1683.59	495.616
1682.75	492.547
1681.91	504.401
1681.07	528.188
1680.24	492.295
1679.4	489.228
1678.56	513.005
1677.72	483.097
1676.88	480.033
1676.04	485.913
1675.21	494.772
1674.37	485.748
1673.53	509.501
1672.69	518.351
1671.85	542.091
1671.01	479.461
1670.17	512.131
1669.33	515.021
1668.49	452.427
1667.65	499.965
1666.81	485.003
1665.97	481.945
1665.13	484.837
1664.29	514.494
1663.45	481.698
1662.61	517.292
1661.77	466.672
1660.92	496.312
1660.08	552.684
1659.24	451.579
1658.4	507.939
1657.56	555.371
1656.72	492.919
1655.87	504.71
1655.03	531.339
1654.19	510.474
1653.35	498.517
1652.5	534.034
1651.66	554.707
1650.82	542.749
1649.98	486.315
1649.13	477.338
1648.29	486.149
1647.45	527.559
1646.6	568.956
1645.76	474.049
1644.91	539.138
1644.07	506.467
1643.23	494.535
1642.38	556.627
1641.54	535.81
1640.69	565.316
1639.85	553.382
1639	526.659
1638.16	511.777
1637.31	582.676
1636.47	538.218
1635.62	520.385
1634.78	535.077
1633.93	555.676
1633.08	546.715
1632.24	496.392
1631.39	519.94
1630.55	578.925
1629.7	540.435
1628.85	504.91
1628.01	608.15
1627.16	554.916
1626.31	572.528
1625.46	560.627
1624.62	592.983
1623.77	566.335
1622.92	560.34
1622.07	601.525
1621.23	610.266
1620.38	636.691
1619.53	642.476
1618.68	671.832
1617.83	671.717
1616.98	780.59
1616.13	795.182
1615.29	842.16
1614.44	939.171
1613.59	994.939
1612.74	1000.65
1611.89	956.344
1611.04	938.528
1610.19	982.491
1609.34	911.737
1608.49	917.462
1607.64	796.761
1606.79	778.987
1605.94	787.671
1605.09	702.318
1604.24	664.002
1603.38	681.514
1602.53	675.523
1601.68	681.28
1600.83	681.163
1599.98	698.66
1599.13	660.385
1598.27	657.337
1597.42	671.894
1596.57	633.643
1595.72	636.468
1594.87	627.561
1594.01	595.201
1593.16	603.893
1592.31	644.824
1591.45	586.103
1590.6	580.142
1589.75	621.056
1588.89	591.659
1588.04	576.915
1587.19	576.816
1586.33	614.775
1585.48	561.983
1584.62	617.49
1583.77	588.124
1582.92	564.62
1582.06	605.472
1581.21	593.67
1580.35	564.329
1579.5	599.314
1578.64	616.749
1577.78	561.116
1576.93	636.991
1576.07	619.352
1575.22	534.538
1574.36	619.14
1573.51	633.633
1572.65	580.974
1571.79	650.929
1570.94	560.345
1570.08	615.69
1569.22	565.987
1568.37	586.309
1567.51	621.205
1566.65	583.191
1565.79	571.429
1564.94	580.076
1564.08	562.489
1563.22	574.048
1562.36	655.526
1561.5	588.416
1560.65	602.877
1559.79	541.622
1558.93	541.529
1558.07	558.902
1557.21	628.656
1556.35	564.529
1555.49	602.255
1554.63	622.514
1553.77	610.773
1552.91	575.773
1552.05	651.267
1551.19	540.691
1550.33	613.259
1549.47	575.376
1548.61	607.237
1547.75	595.513
1546.89	604.124
1546.03	586.596
1545.17	589.398
1544.31	571.879
1543.45	560.171
1542.58	603.604
1541.72	594.795
1540.86	568.584
1540	565.586
1539.14	629.287
1538.28	611.782
1537.41	565.294
1536.55	544.907
1535.69	576.691
1534.82	565.002
1533.96	585.183
1533.1	587.979
1532.24	579.189
1531.37	579.09
1530.51	639.784
1529.64	547.051
1528.78	633.775
1527.92	604.731
1527.05	575.698
1526.19	581.383
1525.32	549.471
1524.46	595.64
1523.59	589.755
1522.73	598.325
1521.86	554.872
1521	601.008
1520.13	621.127
1519.27	583.47
1518.4	612.249
1517.54	589.044
1516.67	577.394
1515.8	588.84
1514.94	551.221
1514.07	608.835
1513.21	527.951
1512.34	576.896
1511.47	553.725
1510.6	568.046
1509.74	576.597
1508.87	556.32
1508	590.808
1507.14	602.232
1506.27	570.437
1505.4	558.817
1504.53	607.68
1503.66	570.142
1502.8	598.833
1501.93	587.216
1501.06	558.334
1500.19	543.85
1499.32	575.403
1498.45	601.193
1497.58	555.072
1496.71	557.852
1495.84	612.381
1494.97	669.766
1494.1	586.303
1493.23	568.96
1492.36	574.608
1491.49	617.597
1490.62	623.234
1489.75	562.824
1488.88	565.598
1488.01	602.817
1487.14	611.323
1486.27	619.826
1485.4	634.064
1484.52	588.057
1483.65	567.879
1482.78	648.073
1481.91	596.353
1481.04	590.517
1480.17	624.808
1479.29	596.044
1478.42	593.076
1477.55	598.702
1476.67	630.104
1475.8	621.404
1474.93	601.254
1474.06	672.716
1473.18	601.046
1472.31	598.081
1471.43	586.533
1470.56	643.644
1469.69	612.071
1468.81	577.649
1467.94	606.14
1467.06	597.459
1466.19	594.498
1465.31	614.398
1464.44	622.864
1463.56	637.039
1462.69	616.935
1461.81	622.54
1460.94	639.563
1460.06	608.051
1459.19	653.612
1458.31	613.547
1457.43	619.147
1456.56	644.714
1455.68	607.524
1454.8	690.119
1453.93	604.462
1453.05	630.014
1452.17	638.455
1451.3	629.795
1450.42	655.329
1449.54	601.089
1448.66	638.012
1447.78	632.206
1446.91	634.944
1446.03	629.14
1445.15	640.416
1444.27	645.996
1443.39	657.266
1442.51	657.152
1441.64	639.972
1440.76	685.362
1439.88	639.749
1439	622.581
1438.12	636.685
1437.24	647.942
1436.36	633.623
1435.48	647.717
1434.6	607.839
1433.72	661.691
1432.84	624.664
1431.96	633.073
1431.08	635.801
1430.2	590.284
1429.31	652.605
1428.43	641.144
1427.55	635.359
1426.67	592.71
1425.79	643.645
1424.91	609.514
1424.02	609.408
1423.14	663.147
1422.26	648.865
1421.38	657.251
1420.49	640.142
1419.61	623.038
1418.73	617.267
1417.85	639.808
1416.96	634.035
1416.08	642.415
1415.2	628.156
1414.31	636.534
1413.43	636.423
1412.54	639.14
1411.66	633.374
1410.78	658.708
1409.89	689.685
1409.01	650
1408.12	689.445
1407.24	663.899
1406.35	672.258
1405.47	663.668
1404.58	691.789
1403.7	629.56
1402.81	677.435
1401.92	632.163
1401.04	617.944
1400.15	637.585
1399.27	645.936
1398.38	710.688
1397.49	704.925
1396.61	656.875
1395.72	645.486
1394.83	563.645
1393.94	628.355
1393.06	633.88
1392.17	628.136
1391.28	642.108
1390.39	633.549
1389.51	636.254
1388.62	644.587
1387.73	666.989
1386.84	602.155
1385.95	638.623
1385.06	691.956
1384.17	672.149
1383.29	694.526
1382.4	621.31
1381.51	629.634
1380.62	649.197
1379.73	657.514
1378.84	693.921
1377.95	654.475
1377.06	626.277
1376.17	665.479
1375.28	685.015
1374.39	679.281
1373.5	687.582
1372.6	673.433
1371.71	698.564
1370.82	639.538
1369.93	622.599
1369.04	642.118
1368.15	639.203
1367.26	661.516
1366.36	689.426
1365.47	669.691
1364.58	652.765
1363.69	691.866
1362.79	638.534
1361.9	649.623
1361.01	666.307
1360.11	699.78
1359.22	649.282
1358.33	677.15
1357.43	688.223
1356.54	604.187
1355.65	654.422
1354.75	648.715
1353.86	690.537
1352.96	721.164
1352.07	665.144
1351.17	676.204
1350.28	673.292
1349.39	678.761
1348.49	692.606
1347.59	650.601
1346.7	692.364
1345.8	692.243
1344.91	694.913
1344.01	764.55
1343.12	658.402
1342.22	714.074
1341.32	725.105
1340.43	671.999
1339.53	669.093
1338.63	671.764
1337.74	713.45
1336.84	702.179
1335.94	676.983
1335.04	676.864
1334.15	662.821
1333.25	673.843
1332.35	748.893
1331.45	662.473
1330.55	692.97
1329.66	703.979
1328.76	664.908
1327.86	723.204
1326.96	664.675
1326.06	672.9
1325.16	681.123
1324.26	683.783
1323.36	736.466
1322.46	697.437
1321.56	733.43
1320.66	694.415
1319.76	694.293
1318.86	710.831
1317.96	699.602
1317.06	693.928
1316.16	716.008
1315.26	688.135
1314.36	693.563
1313.46	721.179
1312.55	685
1311.65	693.199
1310.75	709.711
1309.85	748.392
1308.95	753.804
1308.04	756.442
1307.14	692.591
1306.24	709.089
1305.34	725.581
1304.43	725.454
1303.53	741.937
1302.63	736.271
1301.72	736.142
1300.82	688.974
1299.92	727.584
1299.01	752.35
1298.11	766.046
1297.21	754.851
1296.3	782.364
1295.4	796.047
1294.49	743.4
1293.59	784.716
1292.68	754.189
1291.78	754.057
1290.87	803.634
1289.97	728.942
1289.06	737.096
1288.16	808.731
1287.25	786.511
1286.34	827.761
1285.44	794.511
1284.53	799.888
1283.62	747.35
1282.72	791.335
1281.81	771.899
1280.9	782.788
1280	757.849
1279.09	779.758
1278.18	746.563
1277.27	721.642
1276.37	749.054
1275.46	790.224
1274.55	652.439
1273.64	743.155
1272.73	721.008
1271.82	687.864
1270.92	695.996
1270.01	737.131
1269.1	731.501
1268.19	679.132
1267.28	753.236
1266.37	648.659
1265.46	717.247
1264.55	667.664
1263.64	667.546
1262.73	675.669
1261.82	659.073
1260.91	664.448
1260	702.764
1259.09	699.895
1258.18	666.842
1257.27	721.599
1256.35	617.229
1255.44	644.548
1254.53	619.754
1253.62	660.772
1252.71	638.725
1251.79	657.798
1250.88	600.135
1249.97	638.387
1249.06	635.536
1248.14	679.246
1247.23	640.788
1246.32	596.869
1245.41	678.887
1244.49	667.82
1243.58	615.709
1242.66	634.752
1241.75	615.492
1240.84	637.264
1239.92	626.213
1239.01	606.964
1238.09	647.861
1237.18	563.02
1236.26	642.167
1235.35	644.786
1234.43	625.551
1233.52	592.666
1232.6	608.946
1231.69	633.411
1230.77	603.272
1229.86	665.938
1228.94	663.092
1228.02	624.779
1227.11	613.758
1226.19	605.467
1225.27	638.083
1224.36	602.527
1223.44	640.583
1222.52	654.097
1221.6	626.733
1220.69	596.653
1219.77	591.1
1218.85	634.571
1217.93	618.121
1217.01	623.457
1216.1	628.791
1215.18	617.794
1214.26	620.406
1213.34	631.179
1212.42	606.586
1211.5	649.993
1210.58	590.057
1209.66	674.232
1208.74	660.522
1207.82	554.414
1206.9	616.812
1205.98	622.137
1205.06	567.701
1204.14	581.18
1203.22	621.807
1202.3	610.838
1201.38	567.3
1200.46	613.336
1199.54	651.215
1198.61	566.999
1197.69	610.298
1196.77	618.326
1195.85	591.102
1194.93	601.841
1194	639.682
1193.08	631.439
1192.16	601.522
1191.24	614.961
1190.31	595.892
1189.39	593.079
1188.47	636.296
1187.54	573.919
1186.62	598.177
1185.7	625.133
1184.77	619.611
1183.85	622.207
1182.92	635.621
1182	624.691
1181.07	659.73
1180.15	616.36
1179.23	608.142
1178.3	648.57
1177.37	621.436
1176.45	607.819
1175.52	640.123
1174.6	664.313
1173.67	639.896
1172.75	666.778
1171.82	620.776
1170.89	599.078
1169.97	617.858
1169.04	571.889
1168.11	604.153
1167.19	601.35
1166.26	630.901
1165.33	593.05
1164.4	565.992
1163.48	571.281
1162.55	576.569
1161.62	603.404
1160.69	579.058
1159.76	581.648
1158.83	665.007
1157.91	594.901
1156.98	608.252
1156.05	559.708
1155.12	634.941
1154.19	642.898
1153.26	567.479
1152.33	583.512
1151.4	572.654
1150.47	588.681
1149.54	607.389
1148.61	601.907
1147.68	609.86
1146.75	580.205
1145.82	593.53
1144.89	620.276
1143.96	582.58
1143.02	612.003
1142.09	552.852
1141.16	598.37
1140.23	547.29
1139.3	598.157
1138.36	606.097
1137.43	530.911
1136.5	573.711
1135.57	595.052
1134.63	592.266
1133.7	589.482
1132.77	602.772
1131.83	618.736
1130.9	589.167
1129.97	647.969
1129.03	655.885
1128.1	653.092
1127.17	591.425
1126.23	647.508
1125.3	601.915
1124.36	628.555
1123.43	636.466
1122.49	593.573
1121.56	633.567
1120.62	681.564
1119.69	571.878
1118.75	598.494
1117.81	630.445
1116.88	670.396
1115.94	576.812
1115.01	632.778
1114.07	597.962
1113.13	619.208
1112.2	656.457
1111.26	621.656
1110.32	640.218
1109.38	621.434
1108.45	618.657
1107.51	629.211
1106.57	591.78
1105.63	642.313
1104.69	628.875
1103.76	602.121
1102.82	620.66
1101.88	623.213
1100.94	609.788
1100	609.679
1099.06	606.909
1098.12	598.816
1097.18	588.066
1096.24	625.208
1095.3	595.836
1094.36	606.368
1093.42	630.191
1092.48	606.152
1091.54	595.412
1090.6	589.99
1089.66	587.228
1088.72	597.75
1087.78	621.549
1086.84	557.701
1085.9	594.775
1084.95	592.014
1084.01	578.637
1083.07	591.803
1082.13	573.124
1081.19	612.815
1080.24	564.962
1079.3	559.558
1078.36	599.23
1077.41	564.66
1076.47	543.355
1075.53	556.508
1074.58	564.358
1073.64	580.152
1072.7	550.913
1071.75	614.37
1070.81	579.841
1069.86	558.56
1068.92	592.868
1067.98	582.177
1067.03	563.552
1066.09	600.486
1065.14	584.51
1064.19	563.25
1063.25	571.081
1062.3	544.545
1061.36	584.092
1060.41	599.843
1059.46	589.168
1058.52	618.119
1057.57	578.393
1056.63	596.774
1055.68	570.266
1054.73	570.164
1053.78	572.701
1052.84	556.766
1051.89	548.752
1050.94	590.858
1049.99	561.742
1049.05	540.547
1048.1	495.633
1047.15	585.164
1046.2	592.966
1045.25	529.621
1044.3	555.871
1043.35	539.968
1042.4	587.274
1041.45	555.573
1040.5	579.166
1039.55	594.855
1038.6	581.591
1037.65	589.38
1036.7	605.059
1035.75	562.867
1034.8	583.804
1033.85	546.89
1032.9	612.512
1031.95	567.721
1031	583.386
1030.05	578.027
1029.1	564.789
1028.14	567.314
1027.19	522.571
1026.24	567.111
1025.29	614.26
1024.33	574.782
1023.38	577.303
1022.43	585.07
1021.48	522.009
1020.52	592.729
1019.57	548.045
1018.62	495.511
1017.66	566.197
1016.71	563.475
1015.75	545.031
1014.8	558.033
1013.85	555.314
1012.89	563.071
1011.94	521.075
1010.98	531.453
1010.03	549.68
1009.07	544.348
1008.12	578.266
1007.16	533.688
1006.2	536.208
1005.25	580.57
1004.29	559.548
1003.34	593.433
1002.38	522.754
1001.42	577.54
1000.47	566.985
999.508	569.495
998.551	611.184
997.594	532.731
996.636	545.69
995.679	569.087
994.721	540.274
993.763	532.349
992.805	589.653
991.846	571.287
990.888	571.184
989.929	563.258
988.97	542.3
988.011	552.629
987.052	552.53
986.093	573.277
985.133	518.462
984.173	586.095
983.213	559.946
982.253	562.449
981.293	531.107
980.333	546.629
979.372	562.146
978.411	567.249
977.45	530.725
976.489	593.057
975.528	520.131
974.566	585.043
973.605	530.343
972.643	569.237
971.681	517.159
970.719	558.639
969.756	581.919
968.794	555.84
967.831	488.221
966.868	545.255
965.905	503.621
964.942	558.036
963.979	534.58
963.015	539.673
962.052	549.952
961.088	596.539
960.124	578.279
959.159	575.583
958.195	515.857
957.23	559.825
956.266	546.767
955.301	551.851
954.336	541.39
953.37	598.27
952.405	548.963
951.439	538.508
950.473	517.703
949.507	546.078
948.541	569.268
947.575	553.643
946.608	569.063
945.642	517.237
944.675	563.687
943.708	509.295
942.741	516.957
941.773	514.28
940.806	565.864
939.838	508.928
938.87	594.072
937.902	531.986
936.934	534.472
935.965	547.283
934.997	557.509
934.028	547.086
933.059	611.491
932.09	570.106
931.121	523.577
930.151	518.325
929.182	554.328
928.212	561.961
927.242	523.199
926.272	541.143
925.301	577.115
924.331	584.739
923.36	515.095
922.389	558.778
921.418	571.549
920.447	576.594
919.475	519.871
918.504	555.801
917.532	591.718
916.56	596.756
915.588	532.354
914.616	583.684
913.643	575.866
912.671	560.34
911.698	585.937
910.725	585.832
909.752	544.622
908.779	575.346
907.805	564.97
906.831	531.489
905.858	539.094
904.883	482.531
903.909	600.488
902.935	541.368
901.96	574.618
900.986	574.514
900.011	528.253
899.036	548.668
898.06	587.02
897.085	579.225
896.109	584.245
895.133	609.759
894.157	566.103
893.181	586.489
892.205	581.262
891.229	568.356
890.252	611.768
889.275	593.742
888.298	591.076
887.321	550.036
886.343	601.094
885.366	631.673
884.388	572.75
883.41	582.872
882.432	546.983
881.454	564.772
880.475	577.445
879.497	562.013
878.518	592.561
877.539	582.239
876.56	543.835
875.58	602.45
874.601	574.266
873.621	627.75
872.641	604.674
871.661	589.259
870.681	573.85
869.701	586.496
868.72	581.29
867.739	611.774
866.758	604.017
865.777	591.167
864.796	647.108
863.815	568.027
862.833	654.514
861.851	621.293
860.869	669.551
859.887	651.613
858.905	671.854
857.922	653.921
856.939	679.242
855.956	676.575
854.973	678.995
853.99	727.181
853.007	612.654
852.023	688.792
851.039	698.832
850.055	640.268
849.071	614.749
848.087	612.098
847.102	629.762
846.118	632.187
845.133	626.995
844.148	652.261
843.163	601.392
842.177	646.95
841.192	631.613
840.206	621.354
839.22	588.277
838.234	636.339
837.248	567.785
836.261	615.834
835.274	618.256
834.288	585.209
833.301	547.109
832.313	552.075
831.326	605.146
830.339	645.541
829.351	592.271
828.363	630.123
827.375	566.754
826.387	604.597
825.398	599.428
824.409	596.79
823.421	586.569
822.432	647.13
821.443	604.047
820.453	583.722
819.464	576.036
818.474	626.452
817.484	583.403
816.494	563.096
815.504	580.666
814.513	583.085
813.523	638.5
812.532	628.291
811.541	633.222
810.55	582.66
809.559	625.426
808.567	587.491
807.575	579.821
806.583	582.236
805.591	589.69
804.599	579.504
803.607	589.475
802.614	609.517
801.621	621.997
800.628	553.905
799.635	589.046
798.642	553.703
797.649	639.159
796.655	628.979
795.661	583.586
794.667	596.055
793.673	641.208
792.678	615.95
791.684	588.188
790.689	600.646
789.694	582.948
788.699	592.891
787.704	615.389
786.708	605.231
785.713	569.969
784.717	602.5
783.721	554.701
782.724	589.733
781.728	551.989
780.731	584.5
779.735	571.853
778.738	526.611
777.741	629.31
776.743	561.513
775.746	566.423
774.748	566.32
773.75	576.238
772.752	593.667
771.754	563.505
770.756	580.93
769.757	543.271
768.758	595.737
767.759	560.591
766.76	567.995
765.761	590.407
764.761	560.284
763.762	577.687
762.762	602.585
761.762	567.477
760.762	572.372
759.761	569.768
758.761	579.658
757.76	552.074
756.759	534.49
755.758	561.861
754.756	604.202
753.755	569.144
752.753	579.023
751.751	601.375
750.749	558.852
749.747	581.2
748.745	630.973
747.742	585.974
746.739	550.964
745.736	583.267
744.733	568.208
743.73	588.037
742.726	622.807
741.723	555.442
740.719	555.341
739.715	550.259
738.71	589.989
737.706	614.771
736.701	579.819
735.697	639.426
734.692	597.02
733.686	634.218
732.681	547.068
731.675	544.482
730.67	589.126
729.664	559.194
728.658	561.576
727.651	626.068
726.645	583.726
725.638	551.334
724.631	558.682
723.624	573.475
722.617	585.781
721.61	550.93
720.602	585.566
719.595	560.651
718.587	553.107
717.578	540.607
716.57	602.493
715.562	575.114
714.553	545.267
713.544	582.337
712.535	567.365
711.526	567.261
710.516	579.54
709.507	594.291
708.497	613.988
707.487	579.221
706.477	616.238
705.467	638.394
704.456	586.324
703.445	653.001
702.434	618.259
701.423	590.947
700.412	610.615
699.401	603.088
698.389	602.978
697.377	590.513
696.365	590.405
695.353	563.128
694.34	572.902
693.328	577.735
692.315	570.223
691.302	582.459
690.289	579.884
689.276	592.113
688.262	577.204
687.249	564.767
686.235	613.979
685.221	567.025
684.206	547.202
683.192	566.817
682.177	583.96
681.162	603.561
680.147	573.893
679.132	522.073
678.117	615.539
677.101	580.962
676.086	593.162
675.07	563.523
674.054	546.197
673.037	568.235
672.021	575.509
671.004	555.732
669.987	570.381
668.97	567.818
667.953	587.374
666.936	589.723
665.918	599.442
664.9	540.381
663.882	577.119
662.864	574.557
661.846	576.906
660.827	586.618
659.808	559.516
658.789	554.506
657.77	539.685
656.751	576.375
655.731	593.435
654.712	529.58
653.692	541.739
652.672	544.09
651.652	607.7
650.631	614.938
649.611	578.082
648.59	602.466
647.569	587.664
646.548	548.385
645.526	562.97
644.505	584.892
643.483	555.422
642.461	543.088
641.439	589.46
640.417	586.906
639.394	581.908
638.371	581.801
637.348	574.361
636.325	676.888
635.302	581.479
634.279	657.096
633.255	676.513
632.231	727.667
631.207	664.057
630.183	671.257
629.159	590.597
628.134	600.249
627.109	644.05
626.084	629.297
625.059	604.794
624.034	587.615
623.008	582.63
621.983	609.334
620.957	526.367
619.931	606.672
618.904	608.996
617.878	586.964
616.851	623.382
615.824	564.835
614.797	584.205
613.77	564.627
612.743	552.356
611.715	605.776
610.687	598.367
609.659	615.28
608.631	573.831
607.603	532.398
606.574	517.716
605.546	551.642
604.517	595.275
603.487	556.297
602.458	568.338
601.429	551.234
600.399	580.267
599.369	587.442
598.339	572.772
597.309	565.386
596.278	582.264
595.248	582.156
594.217	557.797
593.186	594.065
592.155	572.136
591.123	574.454
590.091	533.15
589.06	651.776
588.028	569.29
586.996	627.315
585.963	571.501
584.931	559.29
583.898	590.656
582.865	559.083
581.832	597.696
580.798	575.811
579.765	580.543
578.731	573.18
577.697	565.819
576.663	565.715
575.629	553.524
574.594	589.672
573.56	584.73
572.525	562.88
571.49	567.606
570.455	601.31
569.419	560.152
568.384	567.291
567.348	535.809
566.312	596.038
565.276	579.039
564.239	578.931
563.203	576.412
562.166	564.249
561.129	641.292
560.092	597.785
559.054	556.705
558.017	563.83
556.979	568.544
555.941	606.977
554.903	573.149
553.865	585.082
552.826	592.195
551.787	548.762
550.749	555.879
549.709	570.212
548.67	531.618
547.631	555.57
546.591	538.634
545.551	564.98
544.511	519.205
543.471	562.367
542.43	567.069
541.39	602.999
540.349	550.044
539.308	564.351
538.267	593.059
537.225	580.946
536.184	547.236
535.142	614.326
534.1	628.607
533.058	580.514
532.015	542.032
530.973	561.115
529.93	577.793
528.887	568.098
527.844	522.457
526.801	546.321
525.757	536.637
524.713	577.256
523.669	560.385
522.625	634.506
521.581	579.328
520.537	593.581
519.492	593.471
518.447	555.079
517.402	638.701
516.357	542.914
515.311	602.595
514.265	592.919
513.22	537.831
512.174	528.171
511.127	578.252
510.081	535.141
509.034	515.933
507.987	530.166
506.94	537.23
505.893	515.645
504.846	520.323
503.798	563.18
502.75	541.602
501.702	596.367
500.654	598.641
499.606	596.145
