3200.54	29.4685
3199.95	46.3077
3199.35	21.0458
3198.76	21.0426
3198.16	25.2473
3197.57	33.658
3196.98	67.3058
3196.38	25.2358
3195.79	50.4641
3195.19	46.2517
3194.6	8.40814
3194	46.2378
3193.41	42.028
3192.81	37.8194
3192.22	25.2092
3191.62	42.0089
3191.03	33.602
3190.43	25.1977
3189.84	41.9898
3189.24	46.1818
3188.65	33.5817
3188.05	29.3796
3187.45	33.5716
3186.86	16.7832
3186.26	25.171
3185.67	33.5563
3185.07	25.1634
3184.47	37.7394
3183.88	29.3485
3183.28	0
3182.69	8.38273
3182.09	41.9073
3181.49	25.1406
3180.9	12.5684
3180.3	20.9442
3179.7	46.0702
3179.1	50.2507
3178.51	29.3085
3177.91	37.6767
3177.31	50.2279
3176.72	20.9251
3176.12	8.36879
3175.52	37.6538
3174.92	29.2819
3174.33	33.4599
3173.73	29.273
3173.13	12.5437
3172.53	16.7224
3171.93	58.5194
3171.34	16.7173
3170.74	25.0722
3170.14	25.0684
3169.54	37.5968
3168.94	29.2376
3168.34	33.4093
3167.74	41.7553
3167.15	25.0494
3166.55	45.9169
3165.95	50.0836
3165.35	33.384
3164.75	12.5171
3164.15	37.5456
3163.55	29.1977
3162.95	25.0228
3162.35	50.0381
3161.75	12.5076
3161.15	33.3486
3160.55	37.5115
3159.95	41.6731
3159.35	4.16668
3158.75	49.9926
3158.15	24.9925
3157.55	41.6478
3156.95	33.3132
3156.35	54.1258
3155.75	20.8144
3155.15	54.1093
3154.55	74.9093
3153.95	62.4149
3153.35	54.0847
3152.75	37.4376
3152.15	54.0683
3151.54	16.6339
3150.94	33.2627
3150.34	41.5721
3149.74	62.3487
3149.14	41.5595
3148.54	54.0191
3147.94	54.0109
3147.33	66.4649
3146.73	41.5343
3146.13	16.6112
3145.53	37.3695
3144.93	49.8184
3144.32	49.8109
3143.72	53.9536
3143.12	49.7957
3142.52	41.4901
3141.91	41.4838
3141.31	24.8865
3140.71	20.7356
3140.1	24.879
3139.5	37.3128
3138.9	41.4524
3138.29	37.3015
3137.69	49.7277
3137.09	37.2901
3136.48	24.8563
3135.88	41.4209
3135.28	53.839
3134.67	8.28166
3134.07	70.3834
3133.47	28.977
3132.86	57.9452
3132.26	41.3831
3131.65	41.3769
3131.05	62.0559
3130.45	8.27286
3129.84	33.0864
3129.24	49.6221
3128.63	45.48
3128.03	53.7409
3127.42	28.933
3126.82	41.3266
3126.21	24.7922
3125.61	45.4454
3125	61.9616
3124.4	53.6919
3123.79	28.9066
3123.19	41.2889
3122.58	49.5391
3121.97	4.12763
3121.37	49.5241
3120.76	45.3902
3120.16	49.509
3119.55	28.8759
3118.94	53.6185
3118.34	32.991
3117.73	32.9859
3117.13	28.8583
3116.52	20.6099
3115.91	41.2136
3115.31	41.2073
3114.7	24.7206
3114.09	49.4338
3113.48	37.0697
3112.88	49.4187
3112.27	28.8232
3111.66	69.9885
3111.06	53.5125
3110.45	45.2729
3109.84	41.1509
3109.23	53.4881
3108.63	45.2523
3108.02	45.2454
3107.41	41.1259
3106.8	41.1196
3106.19	45.2247
3105.59	49.3285
3104.98	57.5412
3104.37	36.9851
3103.76	86.2855
3103.15	53.4067
3102.54	32.8607
3101.93	69.8183
3101.33	82.1266
3100.72	49.2685
3100.11	45.1559
3099.5	90.298
3098.89	53.3498
3098.28	57.4449
3097.67	86.1542
3097.06	57.4274
3096.45	77.9253
3095.84	61.5106
3095.23	45.1009
3094.62	40.9945
3094.01	49.186
3093.4	98.3569
3092.79	36.8782
3092.18	73.7452
3091.57	65.5413
3090.96	98.297
3090.35	81.9017
3089.74	69.6058
3089.13	69.5952
3088.52	73.6778
3087.91	61.3888
3087.3	81.8392
3086.69	77.7354
3086.08	98.1771
3085.46	77.7117
3084.85	69.5209
3084.24	85.8657
3083.63	57.2351
3083.02	85.8395
3082.41	94.0004
3081.79	110.331
3081.18	98.0574
3080.57	102.128
3079.96	118.45
3079.35	134.767
3078.73	118.414
3078.12	97.9826
3077.51	130.624
3076.9	106.115
3076.28	89.7763
3075.67	106.083
3075.06	106.067
3074.45	110.13
3073.83	93.7998
3073.22	81.5526
3072.61	114.156
3071.99	89.6804
3071.38	130.424
3070.77	97.8033
3070.15	77.4158
3069.54	44.8128
3068.93	81.4654
3068.31	81.453
3067.7	85.5126
3067.08	85.4995
3066.47	85.4865
3065.86	89.5436
3065.24	56.9736
3064.63	77.3095
3064.01	65.0928
3063.4	73.2182
3062.78	65.0729
3062.17	85.3951
3061.55	56.9214
3060.94	69.1082
3060.32	73.1623
3059.71	69.0871
3059.09	69.0766
3058.48	52.8152
3057.86	64.9934
3057.25	89.3522
3056.63	56.8518
3056.02	81.2045
3055.4	56.8344
3054.78	73.0617
3054.17	85.2256
3053.55	52.7506
3052.94	56.7997
3052.32	77.0735
3051.7	81.1176
3051.09	81.1052
3050.47	64.8742
3049.85	64.8643
3049.24	89.1748
3048.62	68.8973
3048	97.2518
3047.39	85.0824
3046.77	72.9166
3046.15	60.7545
3045.53	85.0433
3044.92	48.5887
3044.3	72.872
3043.68	68.813
3043.06	60.7081
3042.45	56.6522
3041.83	76.8733
3041.21	72.8162
3040.59	88.984
3039.97	60.6616
3039.35	44.4784
3038.74	68.7288
3038.12	48.507
3037.5	56.5829
3036.88	80.8203
3036.26	48.4847
3035.64	84.8353
3035.02	60.5874
3034.41	56.5396
3033.79	80.7584
3033.17	60.5595
3032.55	84.7704
3031.93	48.4328
3031.31	60.5317
3030.69	56.4876
3030.07	64.5474
3029.45	48.4031
3028.83	56.4617
3028.21	68.5501
3027.59	52.4126
3026.97	76.5913
3026.35	68.5186
3025.73	56.4184
3025.11	80.5854
3024.49	72.5158
3023.87	92.6448
3023.25	56.3839
3022.63	56.3752
3022	56.3666
3021.38	68.4346
3020.76	48.2994
3020.14	84.511
3019.52	72.4269
3018.9	56.3234
3018.28	72.4047
3017.66	96.5248
3017.03	100.531
3016.41	72.3714
3015.79	56.2802
3015.17	68.3298
3014.55	108.507
3013.92	60.2725
3013.3	40.1755
3012.68	64.271
3012.06	104.424
3011.43	112.44
3010.81	80.3017
3010.19	84.3039
3009.57	64.2217
3008.94	56.1853
3008.32	80.2525
3007.7	80.2401
3007.07	72.2051
3006.45	96.2586
3005.83	68.1727
3005.2	72.1718
3004.58	120.268
3003.96	60.1247
3003.33	84.1617
3002.71	60.1063
3002.08	120.194
3001.46	64.0937
3000.84	96.1257
3000.21	96.111
2999.59	100.1
2998.96	96.0815
2998.34	96.0667
2997.71	100.054
2997.09	80.031
2996.46	100.023
2995.84	80.0064
2995.21	91.9933
2994.59	99.9773
2993.96	91.965
2993.34	79.9573
2992.71	111.923
2992.09	123.896
2991.46	99.9006
2990.84	103.881
2990.21	87.8855
2989.58	91.8662
2988.96	107.826
2988.33	59.8943
2987.71	59.8851
2987.08	71.8511
2986.45	107.76
2985.83	115.724
2985.2	99.7471
2984.57	103.721
2983.95	99.7165
2983.32	87.737
2982.69	87.7235
2982.07	75.7496
2981.44	99.6552
2980.81	107.611
2980.18	111.579
2979.56	111.562
2978.93	87.6426
2978.3	75.6797
2977.67	87.6157
2977.05	87.6022
2976.42	139.346
2975.79	103.498
2975.16	119.402
2974.53	127.343
2973.91	111.408
2973.28	119.347
2972.65	111.374
2972.02	103.403
2971.39	107.363
2970.76	115.298
2970.13	135.156
2969.5	131.161
2968.88	143.063
2968.25	170.854
2967.62	127.128
2966.99	127.108
2966.36	146.946
2965.73	150.894
2965.1	123.079
2964.47	142.908
2963.84	158.763
2963.21	134.928
2962.58	158.714
2961.95	170.591
2961.32	194.365
2960.69	146.743
2960.06	114.997
2959.43	130.838
2958.8	150.639
2958.17	166.47
2957.53	174.37
2956.9	154.532
2956.27	146.584
2955.64	154.484
2955.01	158.421
2954.38	138.597
2953.75	126.698
2953.12	134.595
2952.48	158.323
2951.85	142.469
2951.22	126.619
2950.59	118.687
2949.96	146.359
2949.33	142.381
2948.69	102.815
2948.06	138.383
2947.43	126.502
2946.8	86.957
2946.16	98.7995
2945.53	110.638
2944.9	126.424
2944.26	122.455
2943.63	98.7386
2943	122.417
2942.37	94.7598
2941.73	118.431
2941.1	118.413
2940.47	142.074
2939.83	98.6472
2939.2	126.249
2938.56	145.953
2937.93	98.6016
2937.3	106.473
2936.66	122.228
2936.03	98.556
2935.39	78.8326
2934.76	94.5845
2934.13	122.153
2933.49	102.435
2932.86	102.419
2932.22	90.5875
2931.59	74.8216
2930.95	70.8727
2930.32	98.4191
2929.68	94.4678
2929.05	110.195
2928.41	59.0241
2927.78	59.015
2927.14	90.4757
2926.5	86.5286
2925.87	106.178
2925.23	102.23
2924.6	78.6259
2923.96	117.921
2923.32	78.6017
2922.69	94.3074
2922.05	98.2217
2921.42	66.7805
2920.78	94.2637
2920.14	86.3951
2919.51	113.867
2918.87	98.1459
2918.23	62.8037
2917.6	90.2663
2916.96	94.1764
2916.32	105.932
2915.68	101.993
2915.05	98.0549
2914.41	109.805
2913.77	129.392
2913.13	121.532
2912.5	97.9943
2911.86	121.494
2911.22	94.0454
2910.58	117.539
2909.94	121.438
2909.31	109.669
2908.67	117.484
2908.03	105.719
2907.39	101.788
2906.75	90.0293
2906.11	113.498
2905.47	105.654
2904.83	97.8126
2904.2	89.9736
2903.56	129.073
2902.92	121.231
2902.28	132.943
2901.64	125.103
2901	125.084
2900.36	113.34
2899.72	121.138
2899.08	132.84
2898.44	144.539
2897.8	101.552
2897.16	89.8206
2896.52	74.1882
2895.88	105.409
2895.24	113.199
2894.6	124.89
2893.96	93.6533
2893.32	120.95
2892.67	97.5253
2892.03	97.5102
2891.39	132.593
2890.75	70.1856
2890.11	70.1748
2889.47	124.736
2888.83	101.332
2888.19	116.904
2887.54	112.989
2886.9	101.285
2886.26	120.744
2885.62	132.409
2884.98	112.919
2884.33	109.009
2883.69	116.777
2883.05	112.867
2882.41	77.8271
2881.77	105.05
2881.12	108.924
2880.48	105.018
2879.84	89.4457
2879.19	120.539
2878.55	143.846
2877.91	120.501
2877.26	108.823
2876.62	112.692
2875.98	108.789
2875.33	104.888
2874.69	93.219
2874.05	128.156
2873.4	100.956
2872.76	124.234
2872.11	73.7526
2871.47	100.909
2870.83	116.415
2870.18	124.157
2869.54	108.621
2868.89	116.361
2868.25	135.734
2867.6	116.325
2866.96	127.938
2866.31	100.784
2865.67	96.8924
2865.02	69.7517
2864.38	123.984
2863.73	92.9734
2863.09	92.959
2862.44	92.9446
2861.8	104.546
2861.15	61.9438
2860.5	108.385
2859.86	108.368
2859.21	112.221
2858.57	108.334
2857.92	131.528
2857.27	73.4898
2856.63	112.151
2855.98	104.4
2855.33	119.849
2854.69	115.964
2854.04	119.811
2853.39	139.114
2852.75	104.319
2852.1	119.755
2851.45	100.424
2850.81	108.133
2850.16	123.561
2849.51	84.935
2848.86	88.7818
2848.21	81.0491
2847.57	127.343
2846.92	108.032
2846.27	119.588
2845.62	107.998
2844.97	80.9861
2844.33	111.821
2843.68	104.093
2843.03	100.222
2842.38	123.331
2841.73	111.751
2841.08	107.881
2840.43	96.3072
2839.78	96.2922
2839.14	100.128
2838.49	100.113
2837.84	107.797
2837.19	123.177
2836.54	130.856
2835.89	92.3543
2835.24	103.882
2834.59	100.019
2833.94	73.0797
2833.29	88.4511
2832.64	103.818
2831.99	111.491
2831.34	119.161
2830.69	119.143
2830.04	115.281
2829.39	115.263
2828.74	134.453
2828.08	103.705
2827.43	80.6467
2826.78	119.031
2826.13	115.174
2825.48	84.4476
2824.83	88.2723
2824.18	118.957
2823.53	84.4081
2822.87	80.5589
2822.22	103.56
2821.57	107.378
2820.92	107.362
2820.27	92.0099
2819.61	103.495
2818.96	114.977
2818.31	137.95
2817.66	114.941
2817	122.584
2816.35	114.905
2815.7	126.376
2815.05	118.698
2814.39	137.822
2813.74	72.7278
2813.09	114.815
2812.43	126.277
2811.78	122.432
2811.13	114.762
2810.47	164.466
2809.82	130.023
2809.16	130.003
2808.51	133.805
2807.86	133.784
2807.2	107.011
2806.55	126.1
2805.89	152.825
2805.24	106.961
2804.58	156.597
2803.93	91.6521
2803.28	91.6378
2802.62	141.253
2801.97	99.2434
2801.31	137.392
2800.66	99.2124
2800	141.165
2799.34	129.699
2798.69	99.166
2798.03	133.472
2797.38	144.89
2796.72	133.43
2796.07	163.903
2795.41	125.766
2794.75	121.936
2794.1	114.297
2793.44	137.135
2792.79	133.305
2792.13	102.819
2791.47	125.649
2790.82	148.471
2790.16	137.028
2789.5	148.424
2788.84	110.35
2788.19	148.378
2787.53	148.355
2786.87	136.921
2786.22	117.886
2785.56	133.077
2784.9	148.262
2784.24	125.433
2783.59	140.615
2782.93	167.192
2782.27	136.772
2781.61	129.153
2780.95	167.113
2780.29	136.708
2779.64	155.671
2778.98	151.85
2778.32	113.87
2777.66	136.622
2777	132.807
2776.34	136.58
2775.68	144.145
2775.02	140.33
2774.36	132.724
2773.71	140.286
2773.05	136.473
2772.39	155.403
2771.73	113.692
2771.07	136.409
2770.41	102.291
2769.75	143.942
2769.09	121.196
2768.43	132.537
2767.77	102.227
2767.11	109.782
2766.45	113.55
2765.79	143.807
2765.12	98.379
2764.46	124.846
2763.8	147.522
2763.14	147.499
2762.48	139.913
2761.82	155.015
2761.16	120.968
2760.5	139.848
2759.83	117.151
2759.17	124.69
2758.51	136.004
2757.85	143.537
2757.19	120.855
2756.53	143.492
2755.86	139.695
2755.2	143.448
2754.54	162.297
2753.88	158.498
2753.21	166.019
2752.55	139.585
2751.89	139.563
2751.23	128.227
2750.56	162.144
2749.9	154.579
2749.24	147.015
2748.57	120.609
2747.91	150.738
2747.25	124.339
2746.58	139.389
2745.92	146.9
2745.25	143.111
2744.59	135.558
2743.93	195.775
2743.26	139.279
2742.6	161.84
2741.93	139.236
2741.27	150.502
2740.61	161.764
2739.94	146.693
2739.28	157.952
2738.61	184.249
2737.95	146.624
2737.28	142.842
2736.62	139.061
2735.95	146.555
2735.29	101.445
2734.62	157.779
2733.95	157.754
2733.29	127.686
2732.62	127.666
2731.96	135.154
2731.29	183.931
2730.62	150.124
2729.96	165.111
2729.29	157.581
2728.63	165.059
2727.96	172.535
2727.29	161.257
2726.63	153.733
2725.96	134.964
2725.29	142.439
2724.62	134.921
2723.96	157.384
2723.29	164.852
2722.62	157.334
2721.96	168.546
2721.29	187.244
2720.62	183.47
2719.95	172.21
2719.28	164.697
2718.62	149.701
2717.95	157.161
2717.28	157.137
2716.61	127.186
2715.94	179.528
2715.27	138.365
2714.61	213.123
2713.94	183.182
2713.27	138.3
2712.6	119.592
2711.93	156.939
2711.26	153.179
2710.59	171.832
2709.92	197.949
2709.25	168.044
2708.58	164.284
2707.91	149.325
2707.24	167.964
2706.57	153.01
2705.9	175.374
2705.23	167.885
2704.56	134.287
2703.89	171.562
2703.22	130.516
2702.55	141.681
2701.88	182.665
2701.21	167.727
2700.54	145.341
2699.87	167.674
2699.2	160.197
2698.53	178.796
2697.86	141.525
2697.19	212.254
2696.51	141.48
2695.84	171.239
2695.17	167.49
2694.5	174.906
2693.83	159.995
2693.15	189.732
2692.48	145.066
2691.81	152.482
2691.14	171.05
2690.47	208.202
2689.79	193.3
2689.12	148.669
2688.45	137.497
2687.77	185.778
2687.1	185.749
2686.43	133.718
2685.76	185.69
2685.08	196.801
2684.41	167.069
2683.74	167.042
2683.06	181.862
2682.39	159.568
2681.71	170.674
2681.04	163.227
2680.37	155.783
2679.69	185.427
2679.02	144.61
2678.34	170.539
2677.67	170.512
2676.99	185.31
2676.32	166.753
2675.65	166.727
2674.97	192.632
2674.3	125.932
2673.62	162.945
2672.95	174.027
2672.27	159.191
2671.59	188.779
2670.92	196.151
2670.24	196.12
2669.57	173.89
2668.89	181.261
2668.22	188.63
2667.54	218.184
2666.86	184.873
2666.19	221.812
2665.51	199.6
2664.83	184.785
2664.16	210.622
2663.48	184.727
2662.8	184.698
2662.13	180.976
2661.45	184.64
2660.77	162.457
2660.1	147.665
2659.42	195.626
2658.74	166.071
2658.06	173.425
2657.39	213.98
2656.71	173.37
2656.03	206.536
2655.35	202.816
2654.68	191.723
2654	228.556
2653.32	173.233
2652.64	184.261
2651.96	213.71
2651.28	198.94
2650.6	198.908
2649.93	213.608
2649.25	173.069
2648.57	202.496
2647.89	176.696
2647.21	198.751
2646.53	165.6
2645.85	220.765
2645.17	187.621
2644.49	228.052
2643.81	209.627
2643.13	169.146
2642.45	220.591
2641.77	205.852
2641.09	183.767
2640.41	198.437
2639.73	202.08
2639.05	191.028
2638.37	198.343
2637.69	176.277
2637.01	231.328
2636.33	172.55
2635.65	201.889
2634.96	187.176
2634.28	227.512
2633.6	194.455
2632.92	190.756
2632.24	223.736
2631.56	187.029
2630.88	201.666
2630.19	205.3
2629.51	245.588
2628.83	197.905
2628.15	208.867
2627.46	219.825
2626.78	190.485
2626.1	190.455
2625.42	194.087
2624.73	183.072
2624.05	208.669
2623.37	212.296
2622.69	219.582
2622	212.229
2621.32	252.439
2620.64	179.24
2619.95	245.044
2619.27	215.751
2618.58	204.748
2617.9	237.617
2617.22	201.028
2616.53	233.887
2615.85	204.619
2615.16	215.546
2614.48	204.554
2613.79	219.13
2613.11	237.354
2612.43	222.712
2611.74	219.026
2611.06	215.342
2610.37	237.203
2609.69	226.22
2609	211.591
2608.31	200.615
2607.63	215.171
2606.94	207.844
2606.26	258.853
2605.57	233.295
2604.89	189.522
2604.2	233.221
2603.51	240.471
2602.83	193.075
2602.14	211.256
2601.45	229.432
2600.77	240.319
2600.08	243.921
2599.39	232.963
2598.71	236.565
2598.02	221.972
2597.33	240.129
2596.65	207.351
2595.96	243.69
2595.27	181.829
2594.58	207.252
2593.9	232.667
2593.21	210.821
2592.52	265.302
2591.83	243.458
2591.14	214.354
2590.46	232.483
2589.77	221.55
2589.08	232.409
2588.39	221.48
2587.7	188.773
2587.01	254.077
2586.32	206.858
2585.64	228.596
2584.95	246.7
2584.26	253.915
2583.57	272.009
2582.88	264.713
2582.19	235.666
2581.5	250.129
2580.81	239.216
2580.12	242.802
2579.43	253.633
2578.74	235.479
2578.05	231.82
2577.36	257.134
2576.67	249.851
2575.98	242.571
2575.29	246.152
2574.6	253.352
2573.91	249.693
2573.22	249.653
2572.52	242.378
2571.83	256.808
2571.14	260.383
2570.45	220.568
2569.76	274.762
2569.07	281.948
2568.38	180.707
2567.68	242.109
2566.99	234.844
2566.3	270.931
2565.61	241.993
2564.92	260.011
2564.22	241.916
2563.53	234.658
2562.84	231.011
2562.14	241.801
2561.45	277.847
2560.76	234.509
2560.07	248.9
2559.37	256.074
2558.68	277.67
2557.99	234.359
2557.29	259.557
2556.6	252.307
2555.91	248.663
2555.21	227.004
2554.52	244.981
2553.82	205.319
2553.13	284.52
2552.44	230.46
2551.74	219.623
2551.05	259.186
2550.35	262.744
2549.66	284.294
2548.96	262.66
2548.27	269.813
2547.57	230.204
2546.88	262.535
2546.18	233.726
2545.49	262.451
2544.79	233.652
2544.1	230.021
2543.4	237.171
2542.7	258.691
2542.01	237.096
2541.31	262.2
2540.62	265.75
2539.92	244.164
2539.22	262.075
2538.53	247.675
2537.83	229.691
2537.13	258.362
2536.44	254.733
2535.74	225.994
2535.04	297.691
2534.35	268.955
2533.65	276.083
2532.95	240.19
2532.25	243.736
2531.56	261.616
2530.86	297.407
2530.16	279.446
2529.46	268.655
2528.76	279.357
2528.07	264.989
2527.37	250.625
2526.67	279.223
2525.97	293.496
2525.27	293.449
2524.57	257.621
2523.88	275.468
2523.18	314.77
2522.48	286.109
2521.78	278.912
2521.08	264.567
2520.38	293.122
2519.68	264.482
2518.98	275.161
2518.28	282.263
2517.58	292.935
2516.88	289.316
2516.18	242.844
2515.48	264.229
2514.78	278.467
2514.08	228.45
2513.38	256.965
2512.68	264.061
2511.98	267.586
2511.28	274.678
2510.58	271.067
2509.88	295.987
2509.17	274.546
2508.47	274.503
2507.77	253.072
2507.07	306.489
2506.37	285.061
2505.67	270.765
2504.97	299.218
2504.26	249.309
2503.56	263.513
2502.86	284.833
2502.16	256.309
2501.45	270.505
2500.75	259.786
2500.05	295.326
2499.35	266.818
2498.64	284.561
2497.94	305.854
2497.24	256.023
2496.53	241.761
2495.83	337.7
2495.13	309.212
2494.42	270.073
2493.72	266.477
2493.02	298.407
2492.31	305.463
2491.61	266.349
2490.9	326.67
2490.2	287.565
2489.5	269.771
2488.79	280.375
2488.09	298.073
2487.38	262.546
2486.68	308.62
2485.97	248.275
2485.27	301.429
2484.56	273.015
2483.86	262.336
2483.15	287.106
2482.45	269.34
2481.74	283.471
2481.04	283.425
2480.33	294.007
2479.62	279.793
2478.92	300.995
2478.21	311.568
2477.51	325.678
2476.8	286.693
2476.09	283.108
2475.39	300.754
2474.68	275.942
2473.97	290.046
2473.27	293.536
2472.56	314.706
2471.85	275.765
2471.14	279.256
2470.44	303.951
2469.73	303.903
2469.02	279.122
2468.31	310.871
2467.61	332.013
2466.9	339.023
2466.19	296.598
2465.48	296.55
2464.77	307.092
2464.07	314.101
2463.36	321.108
2462.65	289.304
2461.94	289.258
2461.23	335.062
2460.52	285.639
2459.81	271.489
2459.1	306.699
2458.4	285.501
2457.69	260.786
2456.98	303.028
2456.27	345.255
2455.56	257.139
2454.85	334.579
2454.14	313.397
2453.43	306.305
2452.72	309.777
2452.01	313.247
2451.3	309.677
2450.59	309.628
2449.88	337.721
2449.16	330.632
2448.45	270.794
2447.74	330.526
2447.03	302.348
2446.32	351.511
2445.61	316.309
2444.9	333.828
2444.19	295.127
2443.47	344.26
2442.76	319.618
2442.05	309.032
2441.34	344.094
2440.63	347.549
2439.91	308.883
2439.2	357.966
2438.49	340.364
2437.78	322.768
2437.06	354.286
2436.35	385.794
2435.64	329.626
2434.93	322.561
2434.21	333.025
2433.5	280.397
2432.79	367.962
2432.07	318.85
2431.36	346.825
2430.64	315.244
2429.93	353.718
2429.22	346.658
2428.5	322.095
2427.79	329.044
2427.07	321.991
2426.36	300.943
2425.65	332.384
2424.93	311.341
2424.22	377.747
2423.5	325.23
2422.79	335.667
2422.07	360.085
2421.36	346.045
2420.64	342.495
2419.92	345.934
2419.21	359.853
2418.49	300.412
2417.78	338.782
2417.06	321.267
2416.35	352.639
2415.63	349.091
2414.91	366.487
2414.2	321.061
2413.48	334.966
2412.76	331.423
2412.05	334.858
2411.33	320.854
2410.61	397.516
2409.9	338.183
2409.18	313.728
2408.46	369.442
2407.74	310.142
2407.03	324.029
2406.31	365.78
2405.59	327.407
2404.87	369.145
2404.16	355.157
2403.44	327.249
2402.72	396.813
2402	341.065
2401.28	337.53
2400.56	372.267
2399.85	393.079
2399.13	372.147
2398.41	337.313
2397.69	309.444
2396.97	410.207
2396.25	375.384
2395.53	357.947
2394.81	316.194
2394.09	375.202
2393.37	336.933
2392.65	375.081
2391.93	375.021
2391.21	350.657
2390.49	361.015
2389.77	413.018
2389.05	360.898
2388.33	364.31
2387.61	350.375
2386.89	381.535
2386.17	364.134
2385.45	409.151
2384.73	381.35
2384	346.626
2383.28	360.433
2382.56	311.863
2381.84	370.711
2381.12	339.475
2380.4	322.103
2379.67	370.532
2378.95	353.16
2378.23	363.488
2377.51	387.658
2376.79	356.45
2376.06	373.693
2375.34	384.011
2374.62	383.949
2373.9	404.638
2373.17	352.704
2372.45	352.648
2371.73	414.812
2371	380.183
2370.28	355.932
2369.56	373.15
2368.83	376.545
2368.11	411.024
2367.38	366.063
2366.66	393.627
2365.94	310.708
2365.21	393.5
2364.49	414.143
2363.76	400.274
2363.04	372.609
2362.31	365.649
2361.59	406.978
2360.86	403.464
2360.14	413.742
2359.41	410.228
2358.69	396.375
2357.96	341.172
2357.24	406.584
2356.51	368.622
2355.79	399.563
2355.06	402.943
2354.33	399.434
2353.61	413.141
2352.88	378.651
2352.15	382.032
2351.43	385.411
2350.7	409.433
2349.98	371.526
2349.25	457.454
2348.52	422.99
2347.79	443.552
2347.07	419.416
2346.34	378.101
2345.61	415.843
2344.88	388.287
2344.16	371.046
2343.43	432.817
2342.7	384.664
2341.97	418.941
2341.25	422.307
2340.52	381.045
2339.79	439.332
2339.06	428.965
2338.33	408.309
2337.6	397.951
2336.87	435.617
2336.14	387.534
2335.42	380.613
2334.69	431.977
2333.96	418.196
2333.23	390.71
2332.5	380.367
2331.77	414.567
2331.04	414.5
2330.31	411.008
2329.58	458.884
2328.85	393.755
2328.12	379.997
2327.39	438.124
2326.66	465.432
2325.93	407.187
2325.2	386.594
2324.47	407.055
2323.73	424.089
2323	427.44
2322.27	427.371
2321.54	389.699
2320.81	382.8
2320.08	413.494
2319.35	451.011
2318.61	365.533
2317.88	440.618
2317.15	433.716
2316.42	399.501
2315.69	433.576
2314.95	430.092
2314.22	447.087
2313.49	426.54
2312.76	464.001
2312.02	457.103
2311.29	426.333
2310.56	477.415
2309.82	429.604
2309.09	470.442
2308.36	432.873
2307.62	432.803
2306.89	449.769
2306.16	432.663
2305.42	432.592
2304.69	422.305
2303.95	459.693
2303.22	428.977
2302.48	476.564
2301.75	462.873
2301.02	435.574
2300.28	432.101
2299.55	428.629
2298.81	465.974
2298.08	414.887
2297.34	421.62
2296.6	441.949
2295.87	465.671
2295.13	418.016
2294.4	485.908
2293.66	472.239
2292.93	428.003
2292.19	482.275
2291.45	475.405
2290.72	414.214
2289.98	454.883
2289.24	451.415
2288.51	420.799
2287.77	447.875
2287.03	437.625
2286.3	434.162
2285.56	417.135
2284.82	464.538
2284.08	474.633
2283.35	420.321
2282.61	477.868
2281.87	491.345
2281.13	440.444
2280.4	484.41
2279.66	480.944
2278.92	480.866
2278.18	477.402
2277.44	501.021
2276.7	460.323
2275.97	477.169
2275.23	494.01
2274.49	453.332
2273.75	449.876
2273.01	490.387
2272.27	466.637
2271.53	463.18
2270.79	459.725
2270.05	469.789
2269.31	459.575
2268.57	435.849
2267.83	489.829
2267.09	469.483
2266.35	479.538
2265.61	503.095
2264.87	516.517
2264.13	448.926
2263.39	489.35
2262.65	516.265
2261.91	495.939
2261.17	452.006
2260.42	505.895
2259.68	515.929
2258.94	488.873
2258.2	482.051
2257.46	478.602
2256.72	512.223
2255.97	508.77
2255.23	512.056
2254.49	485.027
2253.75	468.109
2253	481.502
2252.26	471.323
2251.52	481.345
2250.78	457.708
2250.03	437.444
2249.29	511.389
2248.55	514.67
2247.8	521.312
2247.06	477.512
2246.32	467.347
2245.57	500.888
2244.83	524.334
2244.09	524.248
2243.34	460.322
2242.6	527.437
2241.85	450.096
2241.11	493.681
2240.36	513.748
2239.62	443.161
2238.88	496.796
2238.13	523.565
2237.39	486.567
2236.64	526.749
2235.89	543.436
2235.15	509.807
2234.4	516.431
2233.66	533.111
2232.91	506.205
2232.17	536.289
2231.42	563.012
2230.67	519.36
2229.93	559.478
2229.18	489.044
2228.44	505.71
2227.69	522.37
2226.94	565.808
2226.2	498.767
2225.45	508.727
2224.7	481.873
2223.95	528.635
2223.21	538.585
2222.46	541.841
2221.71	484.902
2220.96	448.043
2220.22	474.715
2219.47	604.995
2218.72	531.373
2217.97	537.969
2217.22	504.473
2216.48	567.856
2215.73	577.783
2214.98	550.975
2214.23	467.417
2213.48	550.795
2212.73	527.341
2211.98	527.255
2211.23	497.14
2210.48	553.771
2209.73	493.643
2208.98	523.576
2208.23	513.487
2207.48	546.741
2206.73	489.987
2205.98	516.568
2205.23	519.816
2204.48	573.036
2203.73	582.936
2202.98	539.544
2202.23	552.775
2201.48	516.061
2200.73	522.635
2199.98	565.818
2199.23	539.103
2198.48	522.378
2197.72	495.679
2196.97	615.34
2196.22	562.029
2195.47	558.612
2194.72	538.574
2193.97	568.401
2193.21	521.78
2192.46	618.059
2191.71	584.734
2190.96	564.707
2190.2	554.651
2189.45	521.353
2188.7	517.948
2187.94	610.812
2187.19	584.16
2186.44	524.33
2185.68	554.106
2184.93	517.524
2184.18	577.143
2183.42	593.631
2182.67	580.27
2181.91	543.707
2181.16	583.395
2180.41	583.299
2179.65	523.558
2178.9	583.108
2178.14	496.886
2177.39	579.605
2176.63	589.444
2175.88	579.415
2175.12	582.63
2174.37	546.126
2173.61	555.965
2172.86	631.975
2172.1	582.248
2171.34	545.768
2170.59	598.593
2169.83	578.655
2169.08	598.397
2168.32	565.244
2167.56	641.165
2166.81	581.58
2166.05	621.132
2165.29	518.626
2164.54	601.111
2163.78	587.803
2163.02	591.009
2162.27	557.9
2161.51	577.612
2160.75	537.916
2159.99	597.22
2159.23	550.936
2158.48	616.815
2157.72	616.713
2156.96	619.91
2156.2	567.058
2155.44	609.817
2154.69	649.266
2153.93	593.141
2153.17	596.338
2152.41	602.828
2151.65	609.317
2150.89	599.337
2150.13	628.872
2149.37	622.184
2148.61	582.585
2147.85	618.689
2147.09	631.749
2146.33	602.037
2145.57	618.384
2144.81	565.663
2144.05	601.74
2143.29	591.778
2142.53	657.423
2141.77	644.169
2141.01	637.491
2140.25	604.531
2139.49	611.002
2138.73	637.177
2137.97	637.072
2137.2	607.417
2136.44	627.014
2135.68	551.419
2134.92	626.808
2134.16	662.798
2133.4	649.566
2132.63	600.258
2131.87	623.116
2131.11	596.782
2130.35	577.012
2129.58	603.141
2128.82	648.925
2128.06	642.265
2127.29	645.436
2126.53	691.19
2125.77	622.297
2125	638.568
2124.24	697.398
2123.48	615.442
2122.71	595.702
2121.95	608.694
2121.19	687.123
2120.42	579.051
2119.66	670.542
2118.89	647.538
2118.13	637.622
2117.36	634.248
2116.6	673.369
2115.83	660.185
2115.07	647.005
2114.3	633.83
2113.54	640.259
2112.77	672.815
2112.01	630.252
2111.24	685.653
2110.48	652.895
2109.71	721.33
2108.94	662.47
2108.18	649.31
2107.41	632.891
2106.64	636.049
2105.88	635.944
2105.11	639.1
2104.34	652.035
2103.58	599.773
2102.81	694.188
2102.04	674.522
2101.28	677.669
2100.51	716.647
2099.74	618.821
2098.97	631.744
2098.21	634.896
2097.44	654.323
2096.67	657.47
2095.9	706.176
2095.13	689.791
2094.36	696.183
2093.6	741.606
2092.83	660.18
2092.06	705.594
2091.29	702.226
2090.52	682.607
2089.75	649.995
2088.98	675.883
2088.21	698.514
2087.44	701.647
2086.67	646.318
2085.9	659.2
2085.13	714.286
2084.36	603.797
2083.59	691.331
2082.82	668.501
2082.05	707.326
2081.28	681.256
2080.51	668.17
2079.74	655.087
2078.97	674.434
2078.2	677.564
2077.43	674.211
2076.65	729.194
2075.88	751.756
2075.11	703.035
2074.34	689.962
2073.57	683.37
2072.8	731.83
2072.02	705.808
2071.25	692.743
2070.48	689.392
2069.71	673.098
2068.93	653.573
2068.16	708.46
2067.39	679.233
2066.61	701.758
2065.84	740.442
2065.07	720.923
2064.29	717.572
2063.52	678.672
2062.75	717.334
2061.97	723.677
2061.2	675.105
2060.43	726.667
2059.65	771.754
2058.88	707.055
2058.1	687.57
2057.33	742.324
2056.55	716.386
2055.78	687.229
2055	706.471
2054.23	751.509
2053.45	657.865
2052.68	722.242
2051.9	702.779
2051.13	718.779
2050.35	734.774
2049.57	683.098
2048.8	744.195
2048.02	695.756
2047.25	740.728
2046.47	779.246
2045.69	701.849
2044.92	733.923
2044.14	807.825
2043.36	736.897
2042.59	736.775
2041.81	736.653
2041.03	688.287
2040.25	755.704
2039.48	778.085
2038.7	700.804
2037.92	748.9
2037.14	748.776
2036.37	751.865
2035.59	767.803
2034.81	713.071
2034.03	761.126
2033.25	789.898
2032.47	776.925
2031.69	760.747
2030.92	757.412
2030.14	779.748
2029.36	725.077
2028.58	737.788
2027.8	734.459
2027.02	808.091
2026.24	734.215
2025.46	743.71
2024.68	730.766
2023.9	794.737
2023.12	720.912
2022.34	733.606
2021.56	746.297
2020.78	797.412
2020	736.443
2019.21	745.925
2018.43	765.007
2017.65	844.888
2016.87	812.75
2016.09	742.231
2015.31	764.499
2014.53	796.354
2013.74	773.838
2012.96	770.512
2012.18	760.795
2011.4	824.59
2010.62	789.302
2009.83	747.636
2009.05	779.456
2008.27	750.581
2007.49	782.391
2006.7	788.647
2005.92	801.285
2005.14	772.426
2004.35	749.958
2003.57	851.939
2002.79	756.089
2002	775.102
2001.22	829.19
2000.43	778.033
1999.65	857.607
1998.87	838.339
1998.08	866.883
1997.3	853.993
1996.51	850.665
1995.73	777.258
1994.94	834.458
1994.16	843.872
1993.37	811.893
1992.59	799.024
1991.8	767.063
1991.02	801.941
1990.23	811.353
1989.44	887.568
1988.66	820.625
1987.87	852.291
1987.09	801.274
1986.3	801.141
1985.51	823.258
1984.73	829.477
1983.94	819.806
1983.15	845.086
1982.37	857.651
1981.58	832.101
1980.79	774.805
1980	876.273
1979.22	888.824
1978.43	809.33
1977.64	856.795
1976.85	891.553
1976.06	869.199
1975.28	824.65
1974.49	795.972
1973.7	852.911
1972.91	900.322
1972.12	855.797
1971.33	893.684
1970.54	884.029
1969.76	849.033
1968.97	867.897
1968.18	858.251
1967.39	864.441
1966.6	807.311
1965.81	835.665
1965.02	882.998
1964.23	895.509
1963.44	901.687
1962.65	930.006
1961.86	844.457
1961.07	800.045
1960.28	885.277
1959.48	897.775
1958.69	891.304
1957.9	897.475
1957.11	862.57
1956.32	818.199
1955.53	859.124
1954.74	868.455
1953.94	884.097
1953.15	890.264
1952.36	855.394
1951.57	924.682
1950.78	877.197
1949.98	924.373
1949.19	892.676
1948.4	857.835
1947.61	914.451
1946.81	851.243
1946.02	873.167
1945.23	913.993
1944.43	882.329
1943.64	926.29
1942.85	935.586
1942.05	840.942
1941.26	872.292
1940.46	856.404
1939.67	849.965
1938.88	919.068
1938.08	900.033
1937.29	827.514
1936.49	890.294
1935.7	918.454
1934.9	889.997
1934.11	946.446
1933.31	968.295
1932.52	961.847
1931.72	927.115
1930.93	920.676
1930.13	895.388
1929.33	863.827
1928.54	804.01
1927.74	973.443
1926.95	866.534
1926.15	938.588
1925.35	913.322
1924.56	872.375
1923.76	925.567
1922.96	928.549
1922.17	953.486
1921.37	852.976
1920.57	943.761
1919.77	1015.71
1918.98	955.982
1918.18	899.413
1917.38	939.996
1916.58	880.316
1915.78	939.682
1914.99	848.704
1914.19	1052.09
1913.39	898.511
1912.59	992.266
1911.79	945.155
1910.99	976.288
1910.19	944.839
1909.39	979.09
1908.59	972.671
1907.8	956.873
1907	966.092
1906.2	975.308
1905.4	984.521
1904.6	946.857
1903.8	956.072
1903	971.531
1902.2	958.875
1901.39	943.1
1900.59	958.554
1899.79	989.611
1898.99	942.626
1898.19	976.797
1897.39	989.114
1896.59	960.871
1895.79	926.399
1894.99	985.498
1894.18	1007.16
1893.38	997.638
1892.58	1013.06
1891.78	963.022
1890.98	975.325
1890.17	953.352
1889.37	1006.15
1888.57	984.178
1887.76	927.961
1886.96	952.713
1886.16	971.231
1885.36	977.293
1884.55	964.682
1883.75	1011.19
1882.94	976.801
1882.14	1017.07
1881.34	945.376
1880.53	998.075
1879.73	1041.43
1878.92	920.034
1878.12	1028.65
1877.32	981.869
1876.51	1000.34
1875.71	1018.81
1874.9	968.952
1874.1	1055.73
1873.29	993.464
1872.49	1039.86
1871.68	1024.17
1870.87	999.17
1870.07	1085.87
1869.26	958.509
1868.46	1017.28
1867.65	1017.1
1866.84	945.624
1866.04	1019.86
1865.23	979.4
1864.42	1019.52
1863.62	1034.84
1862.81	1062.55
1862	1049.98
1861.2	953.803
1860.39	1003.18
1859.58	1027.78
1858.77	990.465
1857.96	1039.81
1857.16	999.415
1856.35	1005.43
1855.54	1020.73
1854.73	1032.93
1853.92	1032.76
1853.12	1038.77
1852.31	1026.23
1851.5	1032.23
1850.69	976.441
1849.88	1022.62
1849.07	1031.71
1848.26	994.479
1847.45	1065.33
1846.64	1102.2
1845.83	1105.11
1845.02	969.12
1844.21	941.184
1843.4	1052.1
1842.59	1113.62
1841.78	1079.5
1840.97	1036.15
1840.16	1002.06
1839.35	1057.38
1838.54	1032.54
1837.72	1084.76
1836.91	1032.19
1836.1	1090.55
1835.29	1078.05
1834.48	1124.06
1833.67	1099.24
1832.85	1120.61
1832.04	1046.54
1831.23	1077.14
1830.42	1027.73
1829.6	1018.33
1828.79	1055.07
1827.98	1085.64
1827.17	1076.24
1826.35	1060.68
1825.54	1115.83
1824.73	1063.4
1823.91	1063.22
1823.1	1093.76
1822.29	1139.66
1821.47	1121.04
1820.66	1044.08
1819.84	1108.38
1819.03	1111.26
1818.21	1111.07
1817.4	1132.37
1816.58	1116.84
1815.77	1092.11
1814.95	1104.19
1814.14	1107.07
1813.32	1113.02
1812.51	1115.89
1811.69	1109.58
1810.88	1155.36
1810.06	1023.41
1809.25	1090.63
1808.43	1154.77
1807.61	1133.14
1806.8	1145.2
1805.98	1135.82
1805.16	1135.63
1804.35	1107.89
1803.53	1156.66
1802.71	1156.47
1801.89	1116.51
1801.08	1101.03
1800.26	1146.71
1799.44	1161.8
1798.62	1152.44
1797.81	1195.03
1796.99	1106.21
1796.17	1228.24
1795.35	1224.97
1794.53	1136.19
1793.71	1178.75
1792.9	1080.85
1792.08	1196.67
1791.26	1169
1790.44	1171.85
1789.62	1202.17
1788.8	1156.2
1787.98	1095.01
1787.16	1201.56
1786.34	1149.52
1785.52	1149.33
1784.7	1146.08
1783.88	1087.99
1783.06	1182.26
1782.24	1188.15
1781.42	1191
1780.6	1132.93
1779.78	1193.64
1778.95	1144.73
1778.13	1196.28
1777.31	1229.56
1776.49	1168.49
1775.67	1150.04
1774.85	1231.98
1774.02	1192.23
1773.2	1243.72
1772.38	1258.71
1771.56	1130.83
1770.74	1227.89
1769.91	1215.53
1769.09	1160.64
1768.27	1221.2
1767.44	1214.91
1766.62	1260.26
1765.8	1214.5
1764.97	1229.48
1764.15	1226.23
1763.33	1235.13
1762.5	1253.13
1761.68	1295.39
1760.85	1286.07
1760.03	1273.72
1759.21	1243.18
1758.38	1291.48
1757.56	1291.26
1756.73	1309.22
1755.91	1239.31
1755.08	1251.22
1754.26	1341.88
1753.43	1335.59
1752.6	1392.9
1751.78	1304.86
1750.95	1404.54
1750.13	1419.43
1749.3	1413.14
1748.47	1515.76
1747.65	1506.43
1746.82	1539.45
1745.99	1626.88
1745.17	1599.39
1744.34	1596.1
1743.51	1746.95
1742.69	1807.09
1741.86	1915.55
1741.03	1999.81
1740.2	2065.92
1739.38	2147.11
1738.55	2131.64
1737.72	2267.13
1736.89	2384.46
1736.06	2471.57
1735.23	2462.1
1734.4	2446.6
1733.58	2636.21
1732.75	2720.2
1731.92	2755.92
1731.09	2824.79
1730.26	2821.3
1729.43	2959.45
1728.6	2955.93
1727.77	2952.42
1726.94	2988.06
1726.11	3086.94
1725.28	3110.51
1724.45	3034.71
1723.62	3055.27
1722.79	3057.76
1721.96	3087.33
1721.13	2999.56
1720.3	2878.72
1719.46	3010.57
1718.63	2808.58
1717.8	2805.1
1716.97	2690.39
1716.14	2653.87
1715.31	2548.25
1714.47	2346.51
1713.64	2295.04
1712.81	2186.53
1711.98	2084.06
1711.14	1972.61
1710.31	1990.29
1709.48	1764.84
1708.65	1737.53
1707.81	1674.23
1706.98	1592.95
1706.15	1469.7
1705.31	1553.42
1704.48	1553.16
1703.64	1504.93
1702.81	1516.66
1701.98	1381.54
1701.14	1471.2
1700.31	1396.05
1699.47	1431.76
1698.64	1431.52
1697.8	1350.43
1696.97	1347.2
1696.13	1376.91
1695.3	1346.74
1694.46	1307.62
1693.63	1430.06
1692.79	1358.02
1691.95	1354.8
1691.12	1354.57
1690.28	1330.42
1689.45	1384
1688.61	1380.78
1687.77	1344.68
1686.94	1365.37
1686.1	1332.28
1685.26	1382.82
1684.42	1376.61
1683.59	1364.44
1682.75	1400.03
1681.91	1414.71
1681.07	1441.33
1680.24	1336.66
1679.4	1300.63
1678.56	1306.37
1677.72	1318.08
1676.88	1332.76
1676.04	1380.23
1675.21	1326.35
1674.37	1346.98
1673.53	1299.08
1672.69	1376.31
1671.85	1411.82
1671.01	1298.41
1670.17	1408.36
1669.33	1425.98
1668.49	1348.35
1667.65	1365.98
1666.81	1335.99
1665.97	1389.31
1665.13	1412.87
1664.29	1394.78
1663.45	1281.56
1662.61	1367.55
1661.77	1397.04
1660.92	1361.14
1660.08	1405.48
1659.24	1393.36
1658.4	1280.24
1657.56	1327.54
1656.72	1484.7
1655.87	1436.94
1655.03	1294.21
1654.19	1335.54
1653.35	1382.79
1652.5	1308.38
1651.66	1281.46
1650.82	1304.97
1649.98	1346.26
1649.13	1399.4
1648.29	1319.12
1647.45	1428.56
1646.6	1324.6
1645.76	1380.67
1644.91	1404.13
1644.07	1415.74
1643.23	1391.8
1642.38	1409.33
1641.54	1391.33
1640.69	1402.93
1639.85	1346.46
1639	1440.91
1638.16	1505.75
1637.31	1428.59
1636.47	1401.73
1635.62	1436.97
1634.78	1362.82
1633.93	1466.04
1633.08	1451.01
1632.24	1465.54
1631.39	1391.43
1630.55	1577.28
1629.7	1556.33
1628.85	1538.35
1628.01	1608.94
1627.16	1582.1
1626.31	1593.63
1625.46	1646.47
1624.62	1640.29
1623.77	1731.45
1622.92	1719.36
1622.07	1881.24
1621.23	2140.35
1620.38	2101.67
1619.53	2351.82
1618.68	2595.98
1617.83	2960.86
1616.98	3508.24
1616.13	3996.53
1615.29	4425.76
1614.44	4896.06
1613.59	5224.9
1612.74	5315.24
1611.89	5364.36
1611.04	5178.09
1610.19	4862.45
1609.34	4426.33
1608.49	4010.95
1607.64	3666.28
1606.79	3354.05
1605.94	2980.22
1605.09	2726.99
1604.24	2588.43
1603.38	2438.17
1602.53	2273.28
1601.68	2222.97
1600.83	2078.72
1599.98	1884.62
1599.13	1960.61
1598.27	1883.97
1597.42	1622.52
1596.57	1730.78
1595.72	1739.29
1594.87	1642.22
1594.01	1680.05
1593.16	1530.25
1592.31	1532.92
1591.45	1600.06
1590.6	1520.68
1589.75	1488.19
1588.89	1605.1
1588.04	1540.39
1587.19	1431.79
1586.33	1513.52
1585.48	1516.18
1584.62	1545.19
1583.77	1512.74
1582.92	1573.91
1582.06	1573.64
1581.21	1473.94
1580.35	1502.93
1579.5	1564.06
1578.64	1514.1
1577.78	1548.91
1576.93	1586.63
1576.07	1530.85
1575.22	1489.7
1574.36	1539.09
1573.51	1512.54
1572.65	1544.4
1571.79	1500.35
1570.94	1578.89
1570.08	1517.34
1569.22	1490.82
1568.37	1554.74
1567.51	1516.56
1566.65	1513.38
1565.79	1498.54
1564.94	1489.54
1564.08	1495.11
1563.22	1541.48
1562.36	1512.08
1561.5	1500.17
1560.65	1389.24
1559.79	1406.47
1558.93	1499.39
1558.07	1388.52
1557.21	1487.24
1556.35	1478.25
1555.49	1434.36
1554.63	1541.74
1553.77	1448.4
1552.91	1485.96
1552.05	1482.8
1551.19	1485.45
1550.33	1566.57
1549.47	1458.78
1548.61	1464.34
1547.75	1443.76
1546.89	1553.88
1546.03	1492.63
1545.17	1480.75
1544.31	1439.86
1543.45	1465.73
1542.58	1482.89
1541.72	1413
1540.86	1522.99
1540	1485.03
1539.14	1522.47
1538.28	1478.72
1537.41	1458.17
1536.55	1492.7
1535.69	1480.85
1534.82	1480.59
1533.96	1497.72
1533.1	1436.64
1532.24	1569.6
1531.37	1537.48
1530.51	1488
1529.64	1490.64
1528.78	1510.64
1527.92	1530.64
1527.05	1539.05
1526.19	1495.4
1525.32	1529.84
1524.46	1457.29
1523.59	1457.04
1522.73	1477.02
1521.86	1508.56
1521	1522.75
1520.13	1531.15
1519.27	1429.79
1518.4	1449.76
1517.54	1469.72
1516.67	1541.64
1515.8	1443.24
1514.94	1523.79
1514.07	1558.16
1513.21	1479.99
1512.34	1534.54
1511.47	1591.96
1510.6	1464.81
1509.74	1499.15
1508.87	1510.42
1508	1478.46
1507.14	1530.07
1506.27	1578.79
1505.4	1500.74
1504.53	1535.04
1503.66	1485.82
1502.8	1574.82
1501.93	1617.72
1501.06	1536.86
1500.19	1545.22
1499.32	1565.1
1498.45	1521.68
1497.58	1458.14
1496.71	1570.04
1495.84	1558.27
1494.97	1580.99
1494.1	1528.99
1493.23	1514.35
1492.36	1545.7
1491.49	1496.6
1490.62	1510.7
1489.75	1458.75
1488.88	1469.98
1488.01	1521.4
1487.14	1529.74
1486.27	1586.87
1485.4	1577.99
1484.52	1592.06
1483.65	1574.57
1482.78	1488.27
1481.91	1588.36
1481.04	1482.03
1480.17	1573.48
1479.29	1561.75
1478.42	1552.88
1477.55	1569.8
1476.67	1603.9
1475.8	1554.94
1474.93	1540.36
1474.06	1600.21
1473.18	1579.89
1472.31	1591.07
1471.43	1585.07
1470.56	1579.07
1469.69	1613.12
1468.81	1609.98
1467.94	1552.52
1467.06	1692.33
1466.19	1626.29
1465.31	1634.59
1464.44	1642.87
1463.56	1625.45
1462.69	1630.88
1461.81	1659.15
1460.94	1656.01
1460.06	1670
1459.19	1718.23
1458.31	1697.96
1457.43	1671.98
1456.56	1694.51
1455.68	1657.14
1454.8	1659.71
1453.93	1764.91
1453.05	1758.91
1452.17	1764.3
1451.3	1689.9
1450.42	1695.31
1449.54	1737.75
1448.66	1711.81
1447.78	1759.93
1446.91	1648.58
1446.03	1816.25
1445.15	1733.39
1444.27	1676.18
1443.39	1738.48
1442.51	1760.94
1441.64	1729.35
1440.76	1763.17
1439.88	1674.72
1439	1705.7
1438.12	1676.98
1437.24	1605.65
1436.36	1690.61
1435.48	1642.02
1434.6	1684.34
1433.72	1689.73
1432.84	1609.93
1431.96	1618.17
1431.08	1606.53
1430.2	1583.55
1429.31	1762.03
1428.43	1608.53
1427.55	1642.29
1426.67	1593.79
1425.79	1675.75
1424.91	1624.42
1424.02	1615.64
1423.14	1677.71
1422.26	1643.41
1421.38	1677.12
1420.49	1662.67
1419.61	1625.56
1418.73	1611.12
1417.85	1749.56
1416.96	1684.16
1416.08	1686.69
1415.2	1663.76
1414.31	1804.93
1413.43	1694.3
1412.54	1832.58
1411.66	1835.09
1410.78	1846.08
1409.89	1752.48
1409.01	1803.04
1408.12	1768.82
1407.24	1751.56
1406.35	1739.96
1405.47	1742.48
1404.58	1756.3
1403.7	1674.12
1402.81	1704.88
1401.92	1634.03
1401.04	1698.64
1400.15	1616.53
1399.27	1568.3
1398.38	1641.35
1397.49	1584.67
1396.61	1632.32
1395.72	1705.32
1394.83	1620.48
1393.94	1670.92
1393.06	1563.57
1392.17	1560.48
1391.28	1675.68
1390.39	1616.25
1389.51	1618.79
1388.62	1587.54
1387.73	1570.38
1386.84	1601.06
1385.95	1659.86
1385.06	1589.25
1384.17	1648.03
1383.29	1684.3
1382.4	1650.27
1381.51	1633.11
1380.62	1644.07
1379.73	1590.4
1378.84	1615.4
1377.95	1679.73
1377.06	1614.84
1376.17	1575.25
1375.28	1622.7
1374.39	1712.24
1373.5	1672.65
1372.6	1661.13
1371.71	1652.43
1370.82	1699.82
1369.93	1716.35
1369.04	1651.56
1368.15	1670.9
1367.26	1614.55
1366.36	1603.05
1365.47	1633.6
1364.58	1647.32
1363.69	1610.62
1362.79	1593.53
1361.9	1604.46
1361.01	1576.18
1360.11	1542.31
1359.22	1642.8
1358.33	1656.5
1357.43	1622.64
1356.54	1664.31
1355.65	1580.12
1354.75	1624.58
1353.86	1599.14
1352.96	1615.63
1352.07	1567.84
1351.17	1631.83
1350.28	1645.52
1349.39	1516.74
1348.49	1586.29
1347.59	1664.2
1346.7	1641.57
1345.8	1526.84
1344.91	1565.65
1344.01	1668.62
1343.12	1620.9
1342.22	1578.77
1341.32	1592.44
1340.43	1541.97
1339.53	1603.04
1338.63	1563.73
1337.74	1580.18
1336.84	1638.42
1335.94	1599.13
1335.04	1632.27
1334.15	1682.12
1333.25	1665.12
1332.35	1642.55
1331.45	1636.7
1330.55	1622.5
1329.66	1722.38
1328.76	1683.13
1327.86	1696.75
1326.96	1649.17
1326.06	1629.42
1325.16	1640.25
1324.26	1712.24
1323.36	1686.92
1322.46	1728.31
1321.56	1775.23
1320.66	1661.04
1319.76	1796.83
1318.86	1715.99
1317.96	1754.56
1317.06	1804.21
1316.16	1798.35
1315.26	1803.58
1314.36	1783.84
1313.46	1836.23
1312.55	1891.38
1311.65	1949.27
1310.75	1979.43
1309.85	2034.52
1308.95	2086.82
1308.04	2100.3
1307.14	2091.63
1306.24	2105.11
1305.34	2165.67
1304.43	2073.91
1303.53	2175.98
1302.63	2269.71
1301.72	2067.29
1300.82	2127.8
1299.92	2207.65
1299.01	2187.9
1298.11	2231.77
1297.21	2245.2
1296.3	2324.98
1295.4	2465.54
1294.49	2431.94
1293.59	2547.56
1292.68	2500.15
1291.78	2665.44
1290.87	2662.21
1289.97	2750.1
1289.06	2741.33
1288.16	2655.29
1287.25	2641.02
1286.34	2833.7
1285.44	2634.58
1284.53	2639.63
1283.62	2705.35
1282.72	2641.46
1281.81	2497.64
1280.9	2635.02
1280	2516.06
1279.09	2408.16
1278.18	2451.81
1277.27	2277.86
1276.37	2285.72
1275.46	2290.82
1274.55	2183.06
1273.64	2204.69
1272.73	2152.02
1271.82	2135.13
1270.92	2074.23
1270.01	2040.86
1269.1	2029.5
1268.19	1976.91
1267.28	1957.32
1266.37	1877.26
1265.46	1942.89
1264.55	1915.07
1263.64	1939.46
1262.73	1895.17
1261.82	1916.8
1260.91	1845.08
1260	1767.89
1259.09	1789.54
1258.18	1728.85
1257.27	1734.03
1256.35	1763.9
1255.44	1678.57
1254.53	1700.21
1253.62	1631.37
1252.71	1699.61
1251.79	1608.86
1250.88	1696.27
1249.97	1668.57
1249.06	1725.81
1248.14	1703.59
1247.23	1692.34
1246.32	1689.3
1245.41	1669.84
1244.49	1672.29
1243.58	1573.48
1242.66	1718.21
1241.75	1556.51
1240.84	1602.73
1239.92	1638
1239.01	1686.92
1238.09	1599.15
1237.18	1648.06
1236.26	1606.78
1235.35	1579.18
1234.43	1630.8
1233.52	1641.44
1232.6	1616.57
1231.69	1643.59
1230.77	1577.79
1229.86	1580.24
1228.94	1555.4
1228.02	1519.66
1227.11	1579.4
1226.19	1576.4
1225.27	1641.56
1224.36	1622.19
1223.44	1640.98
1222.52	1578.01
1221.6	1577.73
1220.69	1533.86
1219.77	1541.76
1218.85	1590.51
1217.93	1563
1217.01	1625.34
1216.1	1595.12
1215.18	1649.26
1214.26	1665.3
1213.34	1537.14
1212.42	1534.15
1211.5	1585.55
1210.58	1544.48
1209.66	1497.99
1208.74	1644.51
1207.82	1587.15
1206.9	1518.93
1205.98	1570.28
1205.06	1589.02
1204.14	1615.9
1203.22	1618.33
1202.3	1493.16
1201.38	1547.18
1200.46	1609.33
1199.54	1603.62
1198.61	1600.62
1197.69	1543.38
1196.77	1681.41
1195.85	1637.73
1194.93	1610.33
1194	1610.05
1193.08	1617.89
1192.16	1620.32
1191.24	1576.68
1190.31	1698.29
1189.39	1627.58
1188.47	1654.37
1187.54	1697.39
1186.62	1634.84
1185.7	1691.38
1184.77	1634.26
1183.85	1731.36
1182.92	1658.02
1182	1806.47
1181.07	1816.96
1180.15	1816.64
1179.23	1751.45
1178.3	1918.69
1177.37	1923.75
1176.45	1831.56
1175.52	1769.12
1174.6	1814.71
1173.67	1984.49
1172.75	1859.96
1171.82	1851.53
1170.89	1805.33
1169.97	1786.12
1169.04	1769.62
1168.11	1653.33
1167.19	1785.17
1166.26	1639.26
1165.33	1620.1
1164.4	1660.24
1163.48	1611.44
1162.55	1586.91
1161.62	1635.12
1160.69	1602.51
1159.76	1618.38
1158.83	1601.94
1157.91	1572.05
1156.98	1601.37
1156.05	1619.92
1155.12	1603.49
1154.19	1595.14
1153.26	1600.24
1152.33	1637.6
1151.4	1588.91
1150.47	1585.94
1149.54	1599.1
1148.61	1612.25
1147.68	1641.52
1146.75	1703.01
1145.82	1710.76
1144.89	1662.13
1143.96	1648.41
1143.02	1734.01
1142.09	1642.45
1141.16	1626.06
1140.23	1636.51
1139.3	1663.04
1138.36	1740.52
1137.43	1627.59
1136.5	1638.02
1135.57	1766.39
1134.63	1760.72
1133.7	1736.29
1132.77	1760.09
1131.83	1799.96
1130.9	1794.28
1129.97	1812.71
1129.03	1804.35
1128.1	1777.27
1127.17	1859.91
1126.23	1918.44
1125.3	2006.38
1124.36	1949.86
1123.43	2027.06
1122.49	1999.97
1121.56	2045.06
1120.62	2100.82
1119.69	2196.65
1118.75	2166.87
1117.81	2064.97
1116.88	2219.52
1115.94	2139.01
1115.01	2200.04
1114.07	2066.17
1113.13	2012.43
1112.2	2022.74
1111.26	2081.08
1110.32	2032.69
1109.38	2029.66
1108.45	1991.97
1107.51	1954.29
1106.57	2055.24
1105.63	2004.23
1104.69	2030.52
1103.76	1926.25
1102.82	2040.45
1101.88	1992.15
1100.94	1911.91
1100	1986.12
1099.06	1975.12
1098.12	1950.81
1097.18	2022.31
1096.24	2037.91
1095.3	1965.73
1094.36	2029.21
1093.42	2047.46
1092.48	1983.29
1091.54	2006.86
1090.6	1948.03
1089.66	1894.54
1088.72	1971.25
1087.78	1907.15
1086.84	1835.1
1085.9	1885.22
1084.95	1935.33
1084.01	1799.61
1083.07	1892.18
1082.13	1830.81
1081.19	1849.06
1080.24	1758.54
1079.3	1869.61
1078.36	1802.99
1077.41	1813.27
1076.47	1759.94
1075.53	1717.23
1074.58	1685.12
1073.64	1756.35
1072.7	1756.04
1071.75	1739.83
1070.81	1723.64
1069.86	1749.8
1068.92	1741.55
1067.98	1656.56
1067.03	1643.03
1066.09	1626.87
1065.14	1658.31
1064.19	1631.58
1063.25	1731.75
1062.3	1720.87
1061.36	1675.63
1060.41	1725.54
1059.46	1659.18
1058.52	1621.9
1057.57	1685
1056.63	1621.32
1055.68	1702.88
1054.73	1652.42
1053.78	1757.69
1052.84	1622.8
1051.89	1670
1050.94	1698.72
1049.99	1695.78
1049.05	1708.66
1048.1	1718.9
1047.15	1684.32
1046.2	1739.37
1045.25	1707.44
1044.3	1643.9
1043.35	1669.95
1042.4	1719.69
1041.45	1687.78
1040.5	1705.91
1039.55	1729.29
1038.6	1644.77
1037.65	1718.15
1036.7	1730.99
1035.75	1664.93
1034.8	1788.23
1033.85	1751.1
1032.9	1713.98
1031.95	1661.11
1031	1702.86
1030.05	1694.67
1029.1	1794.19
1028.14	1754.47
1027.19	1735.78
1026.24	1832.61
1025.29	1756.15
1024.33	1724.34
1023.38	1760.77
1022.43	1742.09
1021.48	1689.32
1020.52	1649.67
1019.57	1756.89
1018.62	1746.09
1017.66	1737.91
1016.71	1729.74
1015.75	1703.22
1014.8	1661
1013.85	1828.34
1012.89	1778.26
1011.94	1788.41
1010.98	1722.64
1010.03	1717.1
1009.07	1816.24
1008.12	1700.78
1007.16	1744.95
1006.2	1857.11
1005.25	1736.48
1004.29	1809.38
1003.34	1861.34
1002.38	1816.57
1001.42	1816.25
1000.47	1860.34
999.508	1810.37
998.551	1817.88
997.594	1770.55
996.636	1801.56
995.679	1746.42
994.721	1850.5
993.763	1811.03
992.805	1724.6
991.846	1755.6
990.888	1768.32
989.929	1752.36
988.97	1869.37
988.011	1668.31
987.052	1730.57
986.093	1907.45
985.133	1740.36
984.173	1792.15
983.213	1724.11
982.253	1695.16
981.293	1731.3
980.333	1762.23
979.372	1748.9
978.411	1678.33
977.45	1704.04
976.489	1753.16
975.528	1664.42
974.566	1705.72
973.605	1778.21
972.643	1647.93
971.681	1694.41
970.719	1740.87
969.756	1693.8
968.794	1729.86
967.831	1747.73
966.868	1698.08
965.905	1731.52
964.942	1749.38
963.979	1720.52
963.015	1727.99
962.052	1691.36
961.088	1742.93
960.124	1708.91
959.159	1641.19
958.195	1627.93
957.23	1707.98
956.266	1697.31
955.301	1694.41
954.336	1751.1
953.37	1673.08
952.405	1711.63
951.439	1698.37
950.473	1669.59
949.507	1643.41
948.541	1643.11
947.575	1720.43
946.608	1702.02
945.642	1712.05
944.675	1709.16
943.708	1721.78
942.741	1729.22
941.773	1754.75
940.806	1682.09
939.838	1694.7
938.87	1689.23
937.902	1694.09
936.934	1662.8
935.965	1747.69
934.997	1605.42
934.028	1793.51
933.059	1671.92
932.09	1730.95
931.121	1740.96
930.151	1722.59
929.182	1678.45
928.212	1657.53
927.242	1814.45
926.272	1729.08
925.301	1690.12
924.331	1767.1
923.36	1777.08
922.389	1722.68
921.418	1742.97
920.447	1794.14
919.475	1755.21
918.504	1724.01
917.532	1744.28
916.56	1764.55
915.588	1728.22
914.616	1709.91
913.643	1763.59
912.671	1732.43
911.698	1683.29
910.725	1765.2
909.752	1788
908.779	1787.68
907.805	1787.36
906.831	1830.68
905.858	1830.35
904.883	1776.12
903.909	1791.2
902.935	1806.27
901.96	1875.21
900.986	1779.97
900.011	1812.98
899.036	1835.73
898.06	1899.48
897.085	1899.14
896.109	1916.73
895.133	1849.77
894.157	1931.41
893.181	1925.94
892.205	1912.79
891.229	1976.44
890.252	1924.89
889.275	1968.05
888.298	1924.2
887.321	2072.23
886.343	1959.31
885.366	2015.22
884.388	2053.21
883.41	2121.86
882.432	2060.13
881.454	2082.76
880.475	2056.83
879.497	2079.45
878.518	2010.11
877.539	1979.1
876.56	2057.89
875.58	2121.34
874.601	2016.31
873.621	2005.74
872.641	2094.67
871.661	2058.58
870.681	2091.36
869.701	2093.53
868.72	2179.84
867.739	2187.09
866.758	2252.96
865.777	2221.97
864.796	2366.79
863.815	2521.74
862.833	2592.59
861.851	2627.77
860.869	2820.77
859.887	2832.99
858.905	2944.45
857.922	2872.67
856.939	2851.8
855.956	2846.19
854.973	2855.85
853.99	2748.54
853.007	2608.23
852.023	2556.92
851.039	2487.84
850.055	2576.32
849.071	2494.56
848.087	2245.2
847.102	2232.1
846.118	2267.24
845.133	2185.6
844.148	2152.21
843.163	2194.95
842.177	2207.24
841.192	2021.67
840.206	2115.14
839.22	2043.76
838.234	2010.43
837.248	2020.2
836.261	2017.3
835.274	1953.59
834.288	2026.7
833.301	2074.46
832.313	1952.52
831.326	1990.15
830.339	1979.66
829.351	2004.61
828.363	1968.82
827.375	2069.66
826.387	1965.57
825.398	1960.16
824.409	2053.36
823.421	1901.29
822.432	2039.98
821.443	1966.31
820.453	1986.17
819.464	2046.44
818.474	2025.86
817.484	2063.38
816.494	2123.61
815.504	2022.23
814.513	2009.24
813.523	2026.54
812.532	2051.41
811.541	1982.92
810.55	2045.62
809.559	2020.03
808.567	2057.48
807.575	1943.66
806.583	1890.38
805.591	1988.31
804.599	1975.35
803.607	1949.8
802.614	1994.78
801.621	1991.9
800.628	2004.13
799.635	2023.9
798.642	2010.95
797.649	2081.04
796.655	2060.53
795.661	2165.81
794.667	2132.72
793.673	2084.55
792.678	2066.57
791.684	2111.44
790.689	2023.1
789.694	2015.19
788.699	1992.21
787.704	1971.76
786.708	1928.7
785.713	2026.28
784.717	1925.49
783.721	1892.51
782.724	1937.33
781.728	1866.73
780.731	1914.05
779.735	1906.18
778.738	1840.63
777.741	1885.42
776.743	1799.85
775.746	1897.27
774.748	1816.73
773.75	1851.48
772.752	1853.64
771.754	1868.33
770.756	1862.98
769.757	1802.56
768.758	1864.81
767.759	1831.93
766.76	1836.6
765.761	1851.28
764.761	1893.46
763.762	1815.59
762.762	1840.26
761.762	1907.42
760.762	1797.1
759.761	1886.73
758.761	1853.91
757.76	1836.08
756.759	1878.21
755.758	1807.94
754.756	1917.47
753.755	1822.26
752.753	1759.53
751.751	1841.56
750.749	1963.47
749.747	1885.78
748.745	1823.09
747.742	1862.65
746.739	1857.32
745.736	1819.6
744.733	1859.14
743.73	1883.71
742.726	1875.89
741.723	1850.64
740.719	1890.15
739.715	1914.7
738.71	1849.63
737.706	1799.51
736.701	1893.74
735.697	1833.68
734.692	1915.44
733.686	1902.65
732.681	1952.04
731.675	1941.74
730.67	1909.07
729.664	1923.63
728.658	1878.55
727.651	1942.8
726.645	1932.51
725.638	1845.23
724.631	1857.31
723.624	1941.37
722.617	1874
721.61	1891.03
720.602	1868.35
719.595	1925.07
718.587	1867.67
717.578	1978.92
716.57	1948.8
715.562	1879.04
714.553	1928.26
713.544	1915.52
712.535	2014.27
711.526	2011.42
710.516	2018.48
709.507	2065.16
708.497	2035.07
707.487	2089.16
706.477	2098.67
705.467	2142.83
704.456	2132.54
703.445	2218.72
702.434	2183.69
701.423	2180.82
700.412	2140.86
699.401	2073.73
698.389	2006.63
697.377	1942.02
696.365	1963.9
695.353	1928.96
694.34	1884.16
693.328	1918.38
692.315	1957.52
691.302	1949.76
690.289	1885.24
689.276	1865.16
688.262	1948.68
687.249	1800.35
686.235	1987.42
685.221	1868.72
684.206	1952.18
683.192	1954.29
682.177	1976.1
681.162	1911.69
680.147	1926.11
679.132	1987.33
678.117	1940.18
677.101	1939.82
676.086	1909.93
675.07	1924.34
674.054	1867.4
673.037	1987.59
672.021	1972.47
671.004	1972.11
669.987	1979.12
668.97	1873.06
667.953	1921.87
666.936	1923.97
665.918	1867.11
664.9	1933.09
663.882	1930.28
662.864	1944.65
661.846	1892.74
660.827	1926.76
659.808	1855.24
658.789	1965.31
657.77	2082.69
656.751	1998.92
655.731	1959.32
654.712	1968.76
653.692	1961.05
652.672	2002.35
651.652	1970.12
650.631	1901.16
649.611	1903.26
648.59	2013.12
647.569	1927.05
646.548	2002.58
645.526	1879.83
644.505	2050.79
643.483	1981.9
642.461	1954.63
641.439	1995.85
640.417	2015.04
639.394	1948.66
638.371	2075.41
637.348	2070.14
636.325	2099.09
635.302	2391.88
634.279	2594.19
633.255	3016.22
632.231	3022.99
631.207	2897.93
630.183	2594.71
629.159	2296.5
628.134	2230.19
627.109	2124.88
626.084	2100.09
625.059	2046.06
624.034	2048.12
623.008	2045.3
621.983	2003.49
620.957	2032.36
619.931	1990.57
618.904	2012.12
617.878	1970.35
616.851	2057.65
615.824	2032.92
614.797	2030.11
613.77	1998.1
612.743	1929.6
611.715	2026.55
610.687	1970.23
609.659	1955.28
608.631	2010.84
607.603	1910.8
606.574	1983.36
605.546	2068.05
604.517	2016.64
603.487	1974.97
602.458	1996.47
601.429	2005.81
600.399	2063.71
599.369	2000.22
598.339	2058.09
597.309	2074.7
596.278	1982.12
595.248	2042.4
594.217	1971.69
593.186	1985.87
592.155	1997.63
591.123	2050.58
590.091	2011.43
589.06	1955.33
588.028	2008.26
586.996	2049.07
585.963	2055.95
584.931	2011.99
583.898	1989.83
582.865	1931.38
581.832	1996.35
580.798	1952.44
579.765	1973.84
578.731	2024.27
577.697	2014.22
576.663	2045.28
575.629	2071.49
574.594	2056.6
573.56	2000.65
572.525	2111.4
571.49	2062.7
570.455	2052.66
569.419	1970.19
568.384	1960.17
567.348	1998.42
566.312	1978.75
565.276	2016.98
564.239	2047.97
563.203	1982.47
562.166	2056.86
561.129	2066.12
560.092	2022.35
559.054	2137.65
558.017	2002.32
556.979	2062.18
555.941	2061.79
554.903	2054.19
553.865	2077.88
552.826	2055.83
551.787	1884.56
550.749	2045.44
549.709	2037.85
548.67	1934.03
547.631	1988.99
546.591	1959.76
545.551	1942.57
544.511	1992.69
543.471	1987.51
542.43	2054.42
541.39	2056.44
540.349	2060.86
539.308	1995.64
538.267	2009.68
537.225	1999.7
536.184	2035.33
535.142	2027.76
534.1	2039.38
533.058	1955.04
532.015	1990.65
530.973	1923.14
529.93	1994.71
528.887	1912.84
527.844	1991.57
526.801	1892.95
525.757	1880.62
524.713	1992.85
523.669	2018.82
522.625	1939.43
521.581	1972.59
520.537	1909.99
519.492	1993.39
518.447	2057.62
517.402	2045.28
516.357	2028.16
515.311	2023
514.265	2051.31
513.22	2017.46
512.174	1919.1
511.127	2009.54
510.081	1916
509.034	1853.54
507.987	2008.42
506.94	1871.95
505.893	1900.25
504.846	1861.71
503.798	1878.06
502.75	1930.2
501.702	2027.65
500.654	2012.96
499.606	1931.51
