3200.54	54.7273
3199.95	29.4685
3199.35	46.3007
3198.76	42.0852
3198.16	29.4552
3197.57	16.829
3196.98	37.8595
3196.38	50.4717
3195.79	50.4641
3195.19	29.4329
3194.6	29.4285
3194	29.424
3193.41	46.2308
3192.81	37.8194
3192.22	63.0229
3191.62	8.40178
3191.03	46.2028
3190.43	50.3954
3189.84	37.7909
3189.24	54.5785
3188.65	25.1863
3188.05	33.5766
3187.45	41.9644
3186.86	33.5665
3186.26	33.5614
3185.67	25.1672
3185.07	37.7451
3184.47	29.3529
3183.88	25.1558
3183.28	33.536
3182.69	29.3396
3182.09	33.5259
3181.49	37.7109
3180.9	33.5157
3180.3	25.133
3179.7	33.5056
3179.1	50.2507
3178.51	29.3085
3177.91	37.6767
3177.31	37.6709
3176.72	29.2952
3176.12	16.7376
3175.52	37.6538
3174.92	37.6481
3174.33	20.9125
3173.73	29.273
3173.13	37.631
3172.53	29.2642
3171.93	54.3395
3171.34	25.076
3170.74	62.6804
3170.14	25.0684
3169.54	37.5968
3168.94	25.0608
3168.34	37.5855
3167.74	41.7553
3167.15	37.5741
3166.55	29.2198
3165.95	33.3891
3165.35	0
3164.75	41.7237
3164.15	54.2325
3163.55	16.6844
3162.95	25.0228
3162.35	29.1889
3161.75	25.0152
3161.15	41.6857
3160.55	20.8397
3159.95	33.3385
3159.35	50.0001
3158.75	49.9926
3158.15	33.3233
3157.55	33.3183
3156.95	41.6415
3156.35	29.1446
3155.75	8.32578
3155.15	70.7584
3154.55	41.6163
3153.95	66.5759
3153.35	24.9622
3152.75	41.5973
3152.15	37.4319
3151.54	8.31694
3150.94	37.4206
3150.34	33.2577
3149.74	54.0355
3149.14	37.4035
3148.54	62.3298
3147.94	33.2375
3147.33	24.9243
3146.73	41.5343
3146.13	24.9168
3145.53	37.3695
3144.93	41.5153
3144.32	33.2072
3143.72	45.653
3143.12	29.0475
3142.52	29.0431
3141.91	53.929
3141.31	58.0686
3140.71	41.4712
3140.1	33.172
3139.5	58.0421
3138.9	49.7428
3138.29	53.8799
3137.69	29.0078
3137.09	37.2901
3136.48	33.1417
3135.88	53.8472
3135.28	16.5658
3134.67	45.5491
3134.07	37.2618
3133.47	28.977
3132.86	66.2231
3132.26	45.5215
3131.65	33.1015
3131.05	33.0965
3130.45	37.2279
3129.84	37.2222
3129.24	45.4869
3128.63	57.8836
3128.03	66.1426
3127.42	28.933
3126.82	37.1939
3126.21	49.5844
3125.61	49.5768
3125	24.7846
3124.4	49.5618
3123.79	45.4247
3123.19	66.0622
3122.58	45.4109
3121.97	41.2763
3121.37	74.2861
3120.76	70.1484
3120.16	41.2575
3119.55	53.6266
3118.94	49.494
3118.34	53.6103
3117.73	45.3557
3117.13	41.2262
3116.52	57.7078
3115.91	49.4563
3115.31	57.6903
3114.7	45.3212
3114.09	61.7922
3113.48	24.7131
3112.88	61.7734
3112.27	45.2936
3111.66	61.7546
3111.06	69.9779
3110.45	53.5044
3109.84	45.266
3109.23	82.2893
3108.63	49.3661
3108.02	49.3586
3107.41	41.1259
3106.8	65.7914
3106.19	37.002
3105.59	102.768
3104.98	45.2109
3104.37	82.1892
3103.76	53.4148
3103.15	41.0821
3102.54	53.3986
3101.93	45.1765
3101.33	65.7013
3100.72	36.9513
3100.11	49.261
3099.5	69.7757
3098.89	69.7651
3098.28	57.4449
3097.67	65.6413
3097.06	69.7332
3096.45	45.1146
3095.84	36.9063
3095.23	45.1009
3094.62	57.3924
3094.01	61.4824
3093.4	40.9821
3092.79	32.7806
3092.18	73.7452
3091.57	86.023
3090.96	57.3399
3090.35	45.0459
3089.74	69.6058
3089.13	61.4075
3088.52	65.4914
3087.91	81.8517
3087.3	61.3794
3086.69	28.6394
3086.08	85.905
3085.46	77.7117
3084.85	77.6999
3084.24	98.1322
3083.63	61.3233
3083.02	57.2263
3082.41	69.4785
3081.79	57.2089
3081.18	85.8002
3080.57	65.3616
3079.96	73.5206
3079.35	102.096
3078.73	77.5814
3078.12	97.9826
3077.51	97.9677
3076.9	73.4645
3076.28	93.857
3075.67	81.6024
3075.06	73.4309
3074.45	69.3408
3073.83	97.878
3073.22	77.4749
3072.61	97.8481
3071.99	105.986
3071.38	32.6061
3070.77	61.1271
3070.15	93.7139
3069.54	69.2562
3068.93	44.806
3068.31	69.235
3067.7	81.4406
3067.08	56.9997
3066.47	77.3449
3065.86	56.9823
3065.24	77.3213
3064.63	77.3095
3064.01	85.4343
3063.4	69.1505
3062.78	85.4082
3062.17	81.3287
3061.55	60.9872
3060.94	73.1734
3060.32	73.1623
3059.71	36.5755
3059.09	60.9499
3058.48	73.1287
3057.86	40.6209
3057.25	77.1678
3056.63	69.0344
3056.02	77.1442
3055.4	69.0133
3054.78	73.0617
3054.17	40.5836
3053.55	60.8661
3052.94	60.8568
3052.32	89.243
3051.7	89.2294
3051.09	68.9394
3050.47	97.3114
3049.85	72.9724
3049.24	72.9612
3048.62	60.7917
3048	56.7302
3047.39	44.5669
3046.77	60.7638
3046.15	64.8048
3045.53	72.8943
3044.92	56.6869
3044.3	68.8235
3043.68	56.6695
3043.06	72.8497
3042.45	60.6988
3041.83	76.8733
3041.21	56.6348
3040.59	56.6262
3039.97	40.4411
3039.35	56.6088
3038.74	64.6859
3038.12	52.5493
3037.5	68.7078
3036.88	84.8613
3036.26	88.8887
3035.64	56.5569
3035.02	60.5874
3034.41	96.925
3033.79	60.5688
3033.17	44.4103
3032.55	48.4402
3031.93	60.541
3031.31	76.6735
3030.69	72.6269
3030.07	68.5816
3029.45	52.4367
3028.83	68.5606
3028.21	76.6148
3027.59	68.5396
3026.97	76.5913
3026.35	68.5186
3025.73	52.3885
3025.11	68.4976
3024.49	68.4871
3023.87	68.4766
3023.25	76.521
3022.63	72.4824
3022	72.4713
3021.38	92.588
3020.76	48.2994
3020.14	76.4623
3019.52	48.2846
3018.9	84.4851
3018.28	60.3372
3017.66	72.3936
3017.03	104.552
3016.41	72.3714
3015.79	76.3803
3015.17	80.388
3014.55	96.4508
3013.92	76.3452
3013.3	68.2984
3012.68	68.2879
3012.06	40.1632
3011.43	72.2826
3010.81	60.2263
3010.19	76.2749
3009.57	56.194
3008.94	72.2383
3008.32	80.2525
3007.7	72.2161
3007.07	72.2051
3006.45	72.194
3005.83	80.2032
3005.2	80.1909
3004.58	92.2054
3003.96	96.1996
3003.33	72.1386
3002.71	104.184
3002.08	100.162
3001.46	92.1346
3000.84	88.1153
3000.21	92.1064
2999.59	100.1
2998.96	80.0679
2998.34	88.0612
2997.71	44.0238
2997.09	76.0295
2996.46	40.0094
2995.84	92.0074
2995.21	75.9944
2994.59	75.9828
2993.96	67.9741
2993.34	75.9594
2992.71	55.9615
2992.09	51.9563
2991.46	91.9085
2990.84	79.9082
2990.21	55.9271
2989.58	51.9243
2988.96	87.8585
2988.33	99.8238
2987.71	67.8698
2987.08	83.8262
2986.45	115.742
2985.83	99.7625
2985.2	59.8483
2984.57	79.7854
2983.95	83.7618
2983.32	79.7609
2982.69	111.648
2982.07	67.7759
2981.44	95.669
2980.81	87.6831
2980.18	119.549
2979.56	95.6248
2978.93	71.7076
2978.3	99.5786
2977.67	115.493
2977.05	83.6203
2976.42	115.458
2975.79	119.421
2975.16	87.5618
2974.53	99.4867
2973.91	111.408
2973.28	111.391
2972.65	103.418
2972.02	59.6553
2971.39	75.5517
2970.76	119.274
2970.13	107.33
2969.5	119.237
2968.88	99.349
2968.25	95.3604
2967.62	95.3457
2966.99	71.4983
2966.36	111.202
2965.73	115.156
2965.1	99.2573
2964.47	107.181
2963.84	111.134
2963.21	115.085
2962.58	119.035
2961.95	138.853
2961.32	107.099
2960.69	126.912
2960.06	134.824
2959.43	103.085
2958.8	91.1762
2958.17	118.907
2957.53	103.037
2956.9	106.983
2956.27	106.967
2955.64	146.562
2955.01	146.539
2954.38	102.958
2953.75	130.657
2953.12	130.637
2952.48	138.533
2951.85	118.724
2951.22	114.749
2950.59	98.9062
2949.96	114.714
2949.33	110.741
2948.69	134.45
2948.06	114.66
2947.43	67.2044
2946.8	102.767
2946.16	118.559
2945.53	110.638
2944.9	98.769
2944.26	118.505
2943.63	130.335
2943	114.519
2942.37	118.45
2941.73	98.6929
2941.1	130.255
2940.47	94.716
2939.83	138.106
2939.2	102.577
2938.56	130.174
2937.93	122.266
2937.3	94.6429
2936.66	130.114
2936.03	141.921
2935.39	90.6575
2934.76	102.467
2934.13	98.5103
2933.49	118.194
2932.86	74.8447
2932.22	82.7104
2931.59	118.139
2930.95	94.497
2930.32	102.356
2929.68	129.893
2929.05	114.131
2928.41	149.528
2927.78	114.096
2927.14	90.4757
2926.5	137.659
2925.87	114.043
2925.23	102.23
2924.6	137.595
2923.96	129.713
2923.32	102.182
2922.69	110.025
2922.05	110.008
2921.42	141.417
2920.78	102.119
2920.14	125.666
2919.51	90.3082
2918.87	105.998
2918.23	98.1307
2917.6	105.965
2916.96	105.948
2916.32	86.315
2915.68	117.684
2915.05	105.899
2914.41	117.648
2913.77	98.0246
2913.13	105.85
2912.5	117.593
2911.86	125.413
2911.22	125.394
2910.58	113.621
2909.94	109.686
2909.31	144.919
2908.67	152.729
2908.03	117.466
2907.39	97.8731
2906.75	144.83
2906.11	148.721
2905.47	97.8277
2904.83	164.325
2904.2	144.74
2903.56	113.427
2902.92	113.41
2902.28	144.673
2901.64	136.832
2901	117.266
2900.36	125.065
2899.72	128.953
2899.08	148.468
2898.44	156.258
2897.8	140.611
2897.16	140.589
2896.52	113.235
2895.88	105.409
2895.24	113.199
2894.6	128.793
2893.96	120.969
2893.32	101.442
2892.67	163.843
2892.03	152.116
2891.39	179.391
2890.75	132.573
2890.11	148.147
2889.47	144.226
2888.83	116.922
2888.19	101.316
2887.54	116.885
2886.9	128.554
2886.26	116.849
2885.62	124.62
2884.98	132.388
2884.33	155.727
2883.69	101.207
2883.05	155.678
2882.41	120.632
2881.77	108.941
2881.12	132.265
2880.48	151.692
2879.84	186.669
2879.19	147.757
2878.55	159.397
2877.91	159.373
2877.26	159.348
2876.62	116.578
2875.98	135.986
2875.33	116.542
2874.69	124.292
2874.05	128.156
2873.4	128.136
2872.76	174.704
2872.11	135.86
2871.47	147.482
2870.83	143.579
2870.18	159.076
2869.54	159.052
2868.89	116.361
2868.25	127.977
2867.6	120.203
2866.96	104.676
2866.31	143.423
2865.67	135.649
2865.02	120.128
2864.38	166.603
2863.73	182.073
2863.09	151.058
2862.44	158.78
2861.8	147.139
2861.15	139.374
2860.5	112.256
2859.86	123.849
2859.21	139.309
2858.57	108.334
2857.92	108.318
2857.27	135.376
2856.63	146.957
2855.98	146.934
2855.33	158.509
2854.69	146.888
2854.04	146.865
2853.39	142.978
2852.75	135.229
2852.1	119.755
2851.45	127.462
2850.81	185.37
2850.16	154.451
2849.51	169.87
2848.86	181.424
2848.21	135.082
2847.57	154.355
2846.92	169.764
2846.27	142.734
2845.62	161.997
2844.97	154.259
2844.33	158.091
2843.68	154.211
2843.03	165.751
2842.38	165.726
2841.73	154.139
2841.08	157.968
2840.43	157.944
2839.78	142.512
2839.14	134.788
2838.49	184.824
2837.84	165.545
2837.19	115.479
2836.54	169.343
2835.89	177.012
2835.24	173.137
2834.59	126.948
2833.94	161.545
2833.29	153.828
2832.64	146.114
2831.99	146.091
2831.34	192.195
2830.69	161.419
2830.04	115.281
2829.39	134.474
2828.74	115.245
2828.08	184.364
2827.43	145.932
2826.78	157.429
2826.13	134.369
2825.48	126.671
2824.83	126.652
2824.18	138.144
2823.53	149.633
2822.87	134.265
2822.22	134.244
2821.57	134.223
2820.92	138.036
2820.27	141.849
2819.61	176.325
2818.96	137.972
2818.31	157.11
2817.66	176.243
2817	183.877
2816.35	126.395
2815.7	141.694
2815.05	153.159
2814.39	137.822
2813.74	145.456
2813.09	156.914
2812.43	149.237
2811.78	179.822
2811.13	153.016
2810.47	172.116
2809.82	152.968
2809.16	114.708
2808.51	164.389
2807.86	129.962
2807.2	118.476
2806.55	156.67
2805.89	152.825
2805.24	156.621
2804.58	179.513
2803.93	122.203
2803.28	148.911
2802.62	141.253
2801.97	145.048
2801.31	133.576
2800.66	129.739
2800	148.795
2799.34	167.846
2798.69	137.307
2798.03	194.488
2797.38	141.077
2796.72	156.304
2796.07	144.844
2795.41	171.5
2794.75	137.178
2794.1	171.446
2793.44	133.326
2792.79	198.054
2792.13	152.325
2791.47	156.109
2790.82	156.085
2790.16	167.479
2789.5	171.259
2788.84	117.96
2788.19	133.16
2787.53	159.767
2786.87	167.348
2786.22	163.52
2785.56	167.296
2784.9	174.873
2784.24	144.438
2783.59	129.214
2782.93	167.192
2782.27	174.764
2781.61	151.945
2780.95	182.306
2780.29	178.48
2779.64	148.077
2778.98	167.035
2778.32	212.557
2777.66	136.622
2777	155.573
2776.34	136.58
2775.68	155.525
2775.02	151.708
2774.36	170.645
2773.71	193.367
2773.05	200.919
2772.39	170.565
2771.73	140.22
2771.07	147.776
2770.41	159.119
2769.75	162.882
2769.09	159.069
2768.43	143.897
2767.77	147.661
2767.11	174.137
2766.45	158.97
2765.79	162.729
2765.12	185.407
2764.46	158.895
2763.8	174.001
2763.14	192.884
2762.48	177.728
2761.82	177.7
2761.16	136.089
2760.5	185.204
2759.83	147.384
2759.17	166.253
2758.51	173.783
2757.85	177.533
2757.19	173.729
2756.53	188.806
2755.86	177.45
2755.2	196.297
2754.54	192.492
2753.88	166.045
2753.21	162.246
2752.55	169.766
2751.89	196.143
2751.23	181.027
2750.56	188.54
2749.9	169.659
2749.24	226.177
2748.57	184.682
2747.91	192.19
2747.25	173.321
2746.58	203.432
2745.92	207.167
2745.25	165.707
2744.59	199.571
2743.93	214.599
2743.26	176.922
2742.6	214.532
2741.93	169.341
2741.27	173.077
2740.61	161.764
2739.94	188.068
2739.28	195.56
2738.61	236.891
2737.95	214.297
2737.28	165.396
2736.62	169.129
2735.95	184.133
2735.29	172.833
2734.62	169.049
2733.95	225.363
2733.29	195.284
2732.62	206.518
2731.96	210.24
2731.29	187.685
2730.62	217.68
2729.96	180.121
2729.29	217.612
2728.63	240.086
2727.96	191.289
2727.29	198.759
2726.63	232.474
2725.96	183.701
2725.29	183.672
2724.62	232.365
2723.96	187.361
2723.29	157.359
2722.62	198.541
2721.96	176.037
2721.29	194.734
2720.62	198.447
2719.95	209.647
2719.28	217.1
2718.62	183.384
2717.95	187.097
2717.28	198.291
2716.61	175.816
2715.94	213.19
2715.27	213.156
2714.61	183.211
2713.94	205.613
2713.27	205.58
2712.6	198.074
2711.93	209.252
2711.26	190.539
2710.59	231.6
2709.92	183.01
2709.25	197.918
2708.58	205.354
2707.91	231.454
2707.24	182.895
2706.57	197.794
2705.9	182.837
2705.23	249.963
2704.56	197.7
2703.89	190.21
2703.22	201.367
2702.55	219.978
2701.88	216.215
2701.21	201.272
2700.54	201.241
2699.87	238.47
2699.2	197.452
2698.53	219.77
2697.86	249.531
2697.19	256.939
2696.51	193.605
2695.84	219.632
2695.17	227.042
2694.5	238.17
2693.83	226.97
2693.15	189.732
2692.48	204.581
2691.81	223.144
2691.14	189.643
2690.47	226.792
2689.79	193.3
2689.12	211.853
2688.45	170.943
2687.77	230.365
2687.1	182.034
2686.43	215.435
2685.76	230.256
2685.08	222.793
2684.41	207.908
2683.74	237.571
2683.06	207.842
2682.39	196.677
2681.71	200.356
2681.04	233.712
2680.37	248.512
2679.69	255.89
2679.02	207.646
2678.34	240.979
2677.67	226.114
2676.99	233.491
2676.32	226.043
2675.65	237.123
2674.97	203.745
2674.3	225.936
2673.62	255.527
2672.95	211.054
2672.27	207.319
2671.59	218.391
2670.92	218.356
2670.24	240.524
2669.57	214.588
2668.89	233.05
2668.22	207.123
2667.54	229.278
2666.86	266.217
2666.19	232.903
2665.51	240.259
2664.83	218.047
2664.16	258.659
2663.48	214.284
2662.8	225.332
2662.13	247.456
2661.45	258.496
2660.77	228.917
2660.1	203.04
2659.42	236.227
2658.74	239.88
2658.06	247.222
2657.39	228.737
2656.71	239.767
2656.03	239.729
2655.35	272.879
2654.68	250.714
2654	235.929
2653.32	269.064
2652.64	239.54
2651.96	246.871
2651.28	187.887
2650.6	235.743
2649.93	250.437
2649.25	261.445
2648.57	224.586
2647.89	283.449
2647.21	246.599
2646.53	268.64
2645.85	231.803
2645.17	250.161
2644.49	275.869
2643.81	268.47
2643.13	261.073
2642.45	238.973
2641.77	216.88
2641.09	283.002
2640.41	253.559
2639.73	249.845
2639.05	231.437
2638.37	249.766
2637.69	238.709
2637.01	268.046
2636.33	223.948
2635.65	275.303
2634.96	253.239
2634.28	205.495
2633.6	245.821
2632.92	260.455
2632.24	267.75
2631.56	264.04
2630.88	278.665
2630.19	296.951
2629.51	241.922
2628.83	267.538
2628.15	230.853
2627.46	274.781
2626.78	260.085
2626.1	263.706
2625.42	278.313
2624.73	267.284
2624.05	252.599
2623.37	300.142
2622.69	281.796
2622	241.502
2621.32	270.732
2620.64	285.321
2619.95	281.618
2619.27	292.544
2618.58	263.248
2617.9	292.451
2617.22	296.06
2616.53	277.741
2615.85	299.62
2615.16	270.346
2614.48	284.914
2613.79	325.043
2613.11	284.824
2612.43	284.779
2611.74	222.677
2611.06	266.44
2610.37	280.995
2609.69	280.95
2609	295.498
2608.31	258.976
2607.63	269.876
2606.94	255.247
2606.26	273.436
2605.57	258.812
2604.89	266.06
2604.2	284.238
2603.51	269.619
2602.83	284.148
2602.14	305.957
2601.45	291.342
2600.77	302.219
2600.08	243.921
2599.39	269.363
2598.71	265.681
2598.02	316.583
2597.33	258.32
2596.65	280.106
2595.96	301.884
2595.27	261.834
2594.58	298.152
2593.9	309.011
2593.21	301.693
2592.52	276.205
2591.83	308.864
2591.14	250.685
2590.46	283.339
2589.77	315.981
2589.08	283.249
2588.39	250.526
2587.7	294.05
2587.01	294.003
2586.32	279.44
2585.64	275.767
2584.95	279.351
2584.26	290.189
2583.57	268.382
2582.88	282.844
2582.19	304.553
2581.5	311.755
2580.81	282.71
2580.12	279.041
2579.43	318.853
2578.74	344.162
2578.05	307.886
2577.36	253.513
2576.67	318.651
2575.98	304.119
2575.29	300.45
2574.6	340.215
2573.91	325.686
2573.22	267.744
2572.52	307.495
2571.83	282.127
2571.14	292.931
2570.45	307.348
2569.76	321.761
2569.07	300.021
2568.38	249.376
2567.68	256.563
2566.99	314.33
2566.3	274.544
2565.61	299.783
2564.92	328.625
2564.22	296.077
2563.53	317.691
2562.84	288.764
2562.14	288.718
2561.45	335.581
2560.76	270.587
2560.07	284.973
2559.37	299.354
2558.68	313.731
2557.99	328.103
2557.29	338.866
2556.6	338.812
2555.91	317.135
2555.21	295.465
2554.52	317.034
2553.82	320.586
2553.13	334.941
2552.44	334.888
2551.74	320.433
2551.05	320.382
2550.35	331.129
2549.66	291.491
2548.96	341.818
2548.27	327.373
2547.57	356.097
2546.88	330.865
2546.18	323.621
2545.49	316.379
2544.79	298.356
2544.1	291.12
2543.4	301.854
2542.7	308.992
2542.01	312.535
2541.31	334.036
2540.62	276.523
2539.92	315.977
2539.22	344.647
2538.53	312.286
2537.83	326.592
2537.13	322.952
2536.44	330.076
2535.74	326.436
2535.04	340.731
2534.35	347.849
2533.65	351.379
2532.95	329.813
2532.25	340.514
2531.56	333.292
2530.86	333.239
2530.16	347.516
2529.46	347.461
2528.76	358.15
2528.07	368.836
2527.37	365.197
2526.67	372.298
2525.97	368.659
2525.27	350.707
2524.57	379.276
2523.88	364.906
2523.18	321.924
2522.48	354.06
2521.78	303.943
2521.08	321.77
2520.38	346.741
2519.68	375.279
2518.98	393.086
2518.28	368.013
2517.58	339.375
2516.88	328.606
2516.18	349.981
2515.48	317.789
2514.78	346.299
2514.08	335.535
2513.38	342.62
2512.68	353.27
2511.98	363.917
2511.28	399.532
2510.58	388.768
2509.88	349.479
2509.17	360.119
2508.47	377.887
2507.77	342.182
2507.07	349.255
2506.37	359.889
2505.67	327.768
2504.97	349.088
2504.26	416.702
2503.56	345.416
2502.86	345.361
2502.16	359.545
2501.45	391.521
2500.75	391.458
2500.05	341.582
2499.35	330.854
2498.64	380.6
2497.94	334.305
2497.24	312.917
2496.53	376.862
2495.83	362.583
2495.13	380.296
2494.42	412.217
2493.72	380.174
2493.02	305.512
2492.31	380.053
2491.61	351.581
2490.9	394.134
2490.2	362.119
2489.5	372.71
2488.79	404.592
2488.09	361.946
2487.38	386.723
2486.68	383.114
2485.97	354.679
2485.27	340.437
2484.56	375.839
2483.86	407.685
2483.15	365.085
2482.45	343.763
2481.74	364.968
2481.04	368.453
2480.33	382.563
2479.62	371.877
2478.92	364.735
2478.21	414.244
2477.51	364.618
2476.8	371.639
2476.09	375.118
2475.39	375.058
2474.68	385.611
2473.97	385.549
2473.27	321.829
2472.56	399.57
2471.85	385.364
2471.14	360.558
2470.44	349.898
2469.73	395.78
2469.02	349.786
2468.31	363.86
2467.61	377.93
2466.9	360.212
2466.19	427.242
2465.48	395.4
2464.77	374.158
2464.07	391.744
2463.36	388.153
2462.65	377.506
2461.94	409.194
2461.23	384.439
2460.52	377.325
2459.81	433.678
2459.1	391.305
2458.4	391.242
2457.69	377.083
2456.98	391.117
2456.27	412.192
2455.56	390.992
2454.85	394.451
2454.14	408.473
2453.43	394.324
2452.72	418.902
2452.01	422.355
2451.3	422.287
2450.59	397.59
2449.88	439.741
2449.16	404.497
2448.45	429.05
2447.74	358.656
2447.03	432.428
2446.32	414.783
2445.61	477.978
2444.9	428.706
2444.19	411.07
2443.47	425.055
2442.76	467.135
2442.05	421.407
2441.34	417.828
2440.63	403.719
2439.91	421.204
2439.2	407.099
2438.49	438.614
2437.78	445.56
2437.06	420.934
2436.35	406.837
2435.64	427.812
2434.93	508.384
2434.21	427.675
2433.5	434.616
2432.79	420.529
2432.07	392.43
2431.36	451.923
2430.64	427.331
2429.93	437.769
2429.22	434.197
2428.5	409.62
2427.79	423.556
2427.07	416.489
2426.36	451.415
2425.65	465.338
2424.93	451.27
2424.22	447.7
2423.5	405.663
2422.79	468.535
2422.07	423.012
2421.36	433.43
2420.64	440.35
2419.92	461.245
2419.21	433.221
2418.49	422.672
2417.78	461.023
2417.06	433.012
2416.35	488.806
2415.63	415.419
2414.91	450.255
2414.2	443.203
2413.48	471.046
2412.76	418.64
2412.05	495.311
2411.33	456.868
2410.61	418.438
2409.9	442.776
2409.18	460.134
2408.46	414.751
2407.74	439.077
2407.03	470.364
2406.31	463.321
2405.59	491.111
2404.87	459.69
2404.16	435.242
2403.44	456.06
2402.72	455.987
2402	438.512
2401.28	459.32
2400.56	494.037
2399.85	493.957
2399.13	473.01
2398.41	479.889
2397.69	427.658
2396.97	458.876
2396.25	448.375
2395.53	483.055
2394.81	472.553
2394.09	455.106
2393.37	479.348
2392.65	500.108
2391.93	500.028
2391.21	468.701
2390.49	506.809
2389.77	447.725
2389.05	430.302
2388.33	478.807
2387.61	423.225
2386.89	430.094
2386.17	475.108
2385.45	464.629
2384.73	454.154
2384	426.35
2383.28	467.87
2382.56	498.981
2381.84	474.648
2381.12	505.748
2380.4	471.032
2379.67	464.03
2378.95	446.644
2378.23	456.957
2377.51	498.418
2376.79	508.72
2376.06	487.877
2375.34	484.339
2374.62	491.178
2373.9	473.807
2373.17	459.899
2372.45	501.313
2371.73	473.578
2371	470.045
2370.28	566.727
2369.56	449.163
2368.83	531.999
2368.11	514.643
2367.38	483.479
2366.66	445.42
2365.94	459.157
2365.21	472.89
2364.49	507.326
2363.76	455.484
2363.04	493.361
2362.31	462.236
2361.59	482.855
2360.86	465.535
2360.14	517.178
2359.41	486.068
2358.69	496.33
2357.96	496.25
2357.24	489.279
2356.51	561.546
2355.79	530.455
2355.06	485.597
2354.33	502.736
2353.61	506.098
2352.88	540.439
2352.15	468.075
2351.43	523.058
2350.7	533.295
2349.98	522.889
2349.25	498.728
2348.52	560.548
2347.79	522.635
2347.07	512.237
2346.34	508.717
2345.61	549.876
2344.88	546.351
2344.16	494.728
2343.43	515.258
2342.7	532.348
2341.97	518.526
2341.25	497.841
2340.52	504.627
2339.79	545.732
2339.06	573.098
2338.33	524.969
2337.6	542.037
2336.87	583.11
2336.14	528.143
2335.42	569.205
2334.69	545.114
2333.96	497.036
2333.23	558.647
2332.5	503.729
2331.77	534.483
2331.04	568.653
2330.31	578.836
2329.58	517.101
2328.85	547.833
2328.12	520.357
2327.39	544.232
2326.66	540.722
2325.93	502.995
2325.2	571.337
2324.47	506.253
2323.73	506.171
2323	516.347
2322.27	567.548
2321.54	560.62
2320.81	563.947
2320.08	584.359
2319.35	560.347
2318.61	594.418
2317.88	573.828
2317.15	570.32
2316.42	573.642
2315.69	532.581
2314.95	552.975
2314.22	566.537
2313.49	641.517
2312.76	542.471
2312.02	566.262
2311.29	579.813
2310.56	559.258
2309.82	569.396
2309.09	627.257
2308.36	596.479
2307.62	582.75
2306.89	551.99
2306.16	548.493
2305.42	568.842
2304.69	602.807
2303.95	585.683
2303.22	585.588
2302.48	561.665
2301.75	547.96
2301.02	605.721
2300.28	571.598
2299.55	591.917
2298.81	605.426
2298.08	574.721
2297.34	561.027
2296.6	591.532
2295.87	615.23
2295.13	645.716
2294.4	543.673
2293.66	628.52
2292.93	597.846
2292.19	601.145
2291.45	560.299
2290.72	577.184
2289.98	583.879
2289.24	604.149
2288.51	593.87
2287.77	610.739
2287.03	600.462
2286.3	563.054
2285.56	630.789
2284.82	657.813
2284.08	606.852
2283.35	627.092
2282.61	620.212
2281.87	650.608
2281.13	582.742
2280.4	586.034
2279.66	585.939
2278.92	670.503
2278.18	636.536
2277.44	643.203
2276.7	602.482
2275.97	592.231
2275.23	622.588
2274.49	615.72
2273.75	612.238
2273.01	618.902
2272.27	591.75
2271.53	622.081
2270.79	598.318
2270.05	577.942
2269.31	672.466
2268.57	635.191
2267.83	655.357
2267.09	624.852
2266.35	628.127
2265.61	614.519
2264.87	638.051
2264.13	624.445
2263.39	647.967
2262.65	624.242
2261.91	674.746
2261.17	627.412
2260.42	657.664
2259.68	701.394
2258.94	623.734
2258.2	687.681
2257.46	670.717
2256.72	633.539
2255.97	640.175
2255.23	653.545
2254.49	609.652
2253.75	653.333
2253	643.125
2252.26	612.721
2251.52	636.183
2250.78	686.562
2250.03	669.625
2249.29	602.228
2248.55	659.315
2247.8	672.661
2247.06	692.728
2246.32	658.993
2245.57	621.907
2244.83	652.056
2244.09	662.031
2243.34	651.843
2242.6	645.018
2241.85	641.554
2241.11	617.941
2240.36	648.061
2239.62	637.883
2238.88	614.282
2238.13	698.086
2237.39	664.416
2236.64	677.728
2235.89	677.618
2235.15	657.383
2234.4	660.629
2233.66	710.815
2232.91	680.528
2232.17	660.306
2231.42	693.711
2230.67	707
2229.93	663.333
2229.18	649.826
2228.44	669.814
2227.69	726.63
2226.94	693.032
2226.2	679.529
2225.45	746.356
2224.7	709.424
2223.95	685.888
2223.21	735.954
2222.46	692.353
2221.71	725.681
2220.96	685.44
2220.22	698.7
2219.47	711.956
2218.72	718.524
2217.97	688.333
2217.22	694.903
2216.48	704.81
2215.73	798.209
2214.98	724.615
2214.23	767.9
2213.48	694.335
2212.73	730.935
2211.98	667.412
2211.23	757.388
2210.48	710.561
2209.73	703.774
2208.98	693.654
2208.23	750.225
2207.48	766.771
2206.73	716.647
2205.98	783.184
2205.23	739.738
2204.48	676.316
2203.73	729.503
2202.98	699.409
2202.23	782.544
2201.48	735.804
2200.73	709.052
2199.98	735.563
2199.23	725.459
2198.48	688.741
2197.72	725.222
2196.97	748.386
2196.22	778.194
2195.47	721.541
2194.72	774.615
2193.97	737.924
2193.21	721.186
2192.46	684.517
2191.71	747.529
2190.96	687.614
2190.2	747.284
2189.45	763.766
2188.7	800.163
2187.94	750.237
2187.19	793.262
2186.44	730.08
2185.68	802.957
2184.93	736.476
2184.18	723.088
2183.42	785.98
2182.67	759.325
2181.91	749.255
2181.16	769.02
2180.41	765.58
2179.65	821.787
2178.9	765.329
2178.14	775.142
2177.39	738.582
2176.63	771.576
2175.88	754.895
2175.12	794.496
2174.37	728.168
2173.61	777.689
2172.86	784.179
2172.1	793.975
2171.34	780.614
2170.59	787.1
2169.83	783.665
2169.08	793.454
2168.32	813.157
2167.56	799.804
2166.81	786.455
2166.05	769.807
2165.29	763.074
2164.54	776.16
2163.78	825.566
2163.02	799.017
2162.27	795.585
2161.51	792.154
2160.75	808.524
2159.99	798.493
2159.23	814.857
2158.48	775.141
2157.72	798.1
2156.96	741.913
2156.2	840.697
2155.44	824.077
2154.69	797.576
2153.93	823.807
2153.17	777.546
2152.41	790.595
2151.65	810.227
2150.89	770.577
2150.13	800.083
2149.37	826.287
2148.61	793.237
2147.85	842.47
2147.09	858.784
2146.33	763.238
2145.57	855.212
2144.81	799.163
2144.05	752.997
2143.29	841.64
2142.53	834.928
2141.77	765.772
2141.01	814.937
2140.25	804.947
2139.49	811.384
2138.73	811.251
2137.97	807.834
2137.2	916.051
2136.44	801.002
2135.68	863.234
2134.92	836.838
2134.16	833.419
2133.4	852.966
2132.63	842.985
2131.87	842.847
2131.11	868.94
2130.35	829.455
2129.58	862.098
2128.82	799.686
2128.06	888.03
2127.29	874.778
2126.53	877.91
2125.77	881.041
2125	867.797
2124.24	903.67
2123.48	896.974
2122.71	775.722
2121.95	906.497
2121.19	912.891
2120.42	834.226
2119.66	866.798
2118.89	837.221
2118.13	866.512
2117.36	836.946
2116.6	885.84
2115.83	849.743
2115.07	839.8
2114.3	901.738
2113.54	881.99
2112.77	875.312
2112.01	819.654
2111.24	901.144
2110.48	871.615
2109.71	851.888
2108.94	806.06
2108.18	900.55
2107.41	929.763
2106.64	851.327
2105.88	903.366
2105.11	899.957
2104.34	854.166
2103.58	876.842
2102.81	925.584
2102.04	925.432
2101.28	915.505
2100.51	908.839
2099.74	879.377
2098.97	905.283
2098.21	833.505
2097.44	836.622
2096.67	885.307
2095.9	943.737
2095.13	914.298
2094.36	888.122
2093.6	953.028
2092.83	855.307
2092.06	858.418
2091.29	894.038
2090.52	916.644
2089.75	987.992
2088.98	877.348
2088.21	880.452
2087.44	925.784
2086.67	967.853
2085.9	938.468
2085.13	961.04
2084.36	860.248
2083.59	928.266
2082.82	924.867
2082.05	908.492
2081.28	931.05
2080.51	930.896
2079.74	927.5
2078.97	937.074
2078.2	943.403
2077.43	871.936
2076.65	884.756
2075.88	871.648
2075.11	933.06
2074.34	942.624
2073.57	991.049
2072.8	981.171
2072.02	903.305
2071.25	925.815
2070.48	958.028
2069.71	925.509
2068.93	876.824
2068.16	960.788
2067.39	950.926
2066.61	905.494
2065.84	963.545
2065.07	1002.18
2064.29	969.691
2063.52	885.505
2062.75	956.446
2061.97	1011.21
2061.2	1062.72
2060.43	959.201
2059.65	1004.25
2058.88	1017
2058.1	978.093
2057.33	981.159
2056.55	1010.04
2055.78	919.532
2055	987.124
2054.23	964.383
2053.45	964.223
2052.68	1002.76
2051.9	1015.48
2051.13	947.628
2050.35	979.698
2049.57	1092.31
2048.8	1056.69
2048.02	979.212
2047.25	1027.36
2046.47	1020.75
2045.69	975.506
2044.92	968.907
2044.14	971.965
2043.36	1055.47
2042.59	981.295
2041.81	990.783
2041.03	984.186
2040.25	1016.18
2039.48	1003.15
2038.7	1015.84
2037.92	1057.46
2037.14	1050.86
2036.37	1037.83
2035.59	1031.23
2034.81	1031.06
2034.03	998.777
2033.25	1024.3
2032.47	1020.92
2031.69	1056.06
2030.92	1017.37
2030.14	978.696
2029.36	1036.28
2028.58	1013.66
2027.8	1045.56
2027.02	1032.56
2026.24	1035.6
2025.46	1035.42
2024.68	1096.15
2023.9	1092.76
2023.12	964.42
2022.34	1069.98
2021.56	1031.36
2020.78	1095.24
2020	1047.03
2019.21	1066.06
2018.43	1043.48
2017.65	1065.71
2016.87	1087.93
2016.09	1062.16
2015.31	1129.16
2014.53	1116.17
2013.74	1013.66
2012.96	1087.03
2012.18	1016.52
2011.4	1080.28
2010.62	1102.47
2009.83	1022.41
2009.05	1095.71
2008.27	1127.47
2007.49	1015.51
2006.7	1085.59
2005.92	1079.02
2005.14	1037.35
2004.35	1024.41
2003.57	1065.72
2002.79	1193.15
2002	1110.02
2001.22	1055.62
2000.43	1144.73
1999.65	1039.33
1998.87	1067.85
1998.08	1128.22
1997.3	1064.3
1996.51	1159.71
1995.73	1149.96
1994.94	1089.25
1994.16	1114.55
1993.37	1120.73
1992.59	1085.53
1991.8	1120.36
1991.02	1193.36
1990.23	1094.53
1989.44	1103.89
1988.66	1049.64
1987.87	1081.26
1987.09	1106.52
1986.3	1144.49
1985.51	1080.72
1984.73	1118.68
1983.94	1159.8
1983.15	1137.37
1982.37	1124.48
1981.58	1108.41
1980.79	1197.14
1980	1120.74
1979.22	1079.29
1978.43	1107.67
1977.64	1126.53
1976.85	1081.92
1976.06	1164.22
1975.28	1144.99
1974.49	1103.58
1973.7	1157.3
1972.91	1112.72
1972.12	1182.27
1971.33	1226.44
1970.54	1229.4
1969.76	1089.8
1968.97	1124.46
1968.18	1143.28
1967.39	1193.75
1966.6	1139.73
1965.81	1168.03
1965.02	1101.37
1964.23	1202.45
1963.44	1082.02
1962.65	1119.8
1961.86	1233.48
1961.07	1116.27
1960.28	1223.58
1959.48	1163.31
1958.69	1245.3
1957.9	1178.73
1957.11	1096.38
1956.32	1197.29
1955.53	1105.49
1954.74	1206.36
1953.94	1143.01
1953.15	1218.59
1952.36	1227.85
1951.57	1186.62
1950.78	1214.82
1949.98	1101.05
1949.19	1195.49
1948.4	1217.37
1947.61	1210.86
1946.81	1232.73
1946.02	1194.69
1945.23	1150.37
1944.43	1162.78
1943.64	1250.81
1942.85	1241.15
1942.05	1149.6
1941.26	1165.16
1940.46	1158.66
1939.67	1281.24
1938.88	1252.7
1938.08	1239.91
1937.29	1223.97
1936.49	1214.32
1935.7	1283.32
1934.9	1201.34
1934.11	1201.14
1933.31	1219.8
1932.52	1210.17
1931.72	1150.25
1930.93	1241.18
1930.13	1300.67
1929.33	1259.62
1928.54	1268.83
1927.74	1271.76
1926.95	1296.66
1926.15	1195.99
1925.35	1230.32
1924.56	1214.42
1923.76	1251.87
1922.96	1333.22
1922.17	1220.09
1921.37	1266.92
1920.57	1222.81
1919.77	1275.9
1918.98	1288.23
1918.18	1278.61
1917.38	1256.46
1916.58	1209.26
1915.78	1284.23
1914.99	1233.91
1914.19	1299.46
1913.39	1321.16
1912.59	1220.77
1911.79	1298.81
1910.99	1301.72
1910.19	1254.57
1909.39	1241.85
1908.59	1269.79
1907.8	1269.58
1907	1297.5
1906.2	1153.49
1905.4	1281.44
1904.6	1393.72
1903.8	1252.89
1903	1377.64
1902.2	1377.41
1901.39	1308.47
1900.59	1351.97
1899.79	1270.57
1898.99	1373.36
1898.19	1382.5
1897.39	1341.7
1896.59	1378.91
1895.79	1313.18
1894.99	1334.79
1894.18	1315.86
1893.38	1421.63
1892.58	1337.23
1891.78	1333.89
1890.98	1308.74
1890.17	1305.41
1889.37	1336.34
1888.57	1357.92
1887.76	1348.35
1886.96	1360.57
1886.16	1282.52
1885.36	1360.12
1884.55	1328.77
1883.75	1309.88
1882.94	1312.77
1882.14	1421.41
1881.34	1278.12
1880.53	1364.97
1879.73	1299.46
1878.92	1414.24
1878.12	1326.99
1877.32	1311.23
1876.51	1422.85
1875.71	1335.64
1874.9	1413.06
1874.1	1391.08
1873.29	1334.97
1872.49	1375.1
1871.68	1381.07
1870.87	1365.33
1870.07	1436.45
1869.26	1321.44
1868.46	1386.35
1867.65	1348.9
1866.84	1357.98
1866.04	1435.25
1865.23	1404.01
1864.42	1437.86
1863.62	1357.07
1862.81	1440.48
1862	1440.24
1861.2	1399.74
1860.39	1399.5
1859.58	1380.69
1858.77	1507.36
1857.96	1386.42
1857.16	1339.77
1856.35	1395.23
1855.54	1305.3
1854.73	1379.3
1853.92	1375.98
1853.12	1381.93
1852.31	1329.15
1851.5	1477.27
1850.69	1421.4
1849.88	1393.36
1849.07	1420.92
1848.26	1436.13
1847.45	1349.42
1846.64	1485.04
1845.83	1435.4
1845.02	1354.92
1844.21	1357.77
1843.4	1416.17
1842.59	1431.35
1841.78	1471.21
1840.97	1356.86
1840.16	1442.96
1839.35	1421.14
1838.54	1414.74
1837.72	1417.58
1836.91	1435.83
1836.1	1410.94
1835.29	1438.43
1834.48	1456.66
1833.67	1416.39
1832.85	1391.52
1832.04	1474.39
1831.23	1344.89
1830.42	1504.67
1829.6	1495.18
1828.79	1442.64
1827.98	1479.3
1827.17	1479.05
1826.35	1469.58
1825.54	1380.19
1824.73	1472.16
1823.91	1422.75
1823.1	1496.24
1822.29	1468.34
1821.47	1501.88
1820.66	1498.56
1819.84	1550.5
1819.03	1516.47
1818.21	1507.01
1817.4	1522.1
1816.58	1463.54
1815.77	1432.62
1814.95	1502.92
1814.14	1570.14
1813.32	1563.74
1812.51	1486.84
1811.69	1483.52
1810.88	1529.24
1810.06	1433.99
1809.25	1513.41
1808.43	1534.59
1807.61	1546.58
1806.8	1580
1805.98	1524.63
1805.16	1533.56
1804.35	1487.39
1803.53	1474.9
1802.71	1526.66
1801.89	1612.05
1801.08	1532.26
1800.26	1458.61
1799.44	1537.86
1798.62	1507.03
1797.81	1494.55
1796.99	1485.13
1796.17	1490.99
1795.35	1524.34
1794.53	1609.61
1793.71	1520.77
1792.9	1480.83
1792.08	1480.58
1791.26	1599.36
1790.44	1486.18
1789.62	1522.54
1788.8	1510.08
1787.98	1564.73
1787.16	1442.48
1786.34	1524.56
1785.52	1536.5
1784.7	1551.48
1783.88	1557.31
1783.06	1526.58
1782.24	1559.83
1781.42	1583.94
1780.6	1592.81
1779.78	1537.73
1778.95	1567.91
1778.13	1534.16
1777.31	1628.25
1776.49	1506.26
1775.67	1591.19
1774.85	1520.96
1774.02	1493.33
1773.2	1587.34
1772.38	1584.03
1771.56	1614.16
1770.74	1571.34
1769.91	1543.72
1769.09	1582.96
1768.27	1597.88
1767.44	1643.17
1766.62	1539.64
1765.8	1648.69
1764.97	1581.62
1764.15	1581.35
1763.33	1587.16
1762.5	1529.24
1761.68	1623.02
1760.85	1616.68
1760.03	1652.8
1759.21	1616.13
1758.38	1579.48
1757.56	1600.43
1756.73	1672.9
1755.91	1651.4
1755.08	1605.68
1754.26	1626.61
1753.43	1647.53
1752.6	1547.33
1751.78	1695.42
1750.95	1643.67
1750.13	1676.68
1749.3	1634.03
1748.47	1676.11
1747.65	1639.53
1746.82	1754.18
1745.99	1620.83
1745.17	1702.19
1744.34	1738.18
1743.51	1752.99
1742.69	1785.94
1741.86	1803.76
1741.03	1761.16
1740.2	1833.35
1739.38	1914.58
1738.55	1917.27
1737.72	1919.97
1736.89	1898.51
1736.06	2009.85
1735.23	1985.37
1734.4	2015.2
1733.58	1999.78
1732.75	1999.44
1731.92	2020.2
1731.09	2098.24
1730.26	2109.95
1729.43	2166.85
1728.6	2235.78
1727.77	2202.26
1726.94	2195.87
1726.11	2303.91
1725.28	2195.12
1724.45	2372.37
1723.62	2326.82
1722.79	2266.23
1721.96	2307.97
1721.13	2235.38
1720.3	2259.06
1719.46	2111.31
1718.63	2135.01
1717.8	2155.69
1716.97	2095.2
1716.14	1986.65
1715.31	1950.25
1714.47	1982.97
1713.64	1946.58
1712.81	1937.24
1711.98	1888.86
1711.14	1834.5
1710.31	1879.22
1709.48	1929.92
1708.65	1758.54
1707.81	1728.24
1706.98	1808.94
1706.15	1769.64
1705.31	1697.37
1704.48	1730.06
1703.64	1723.77
1702.81	1639.55
1701.98	1720.19
1701.14	1830.76
1700.31	1794.5
1699.47	1686.36
1698.64	1763.94
1697.8	1700.76
1696.97	1697.48
1696.13	1783.99
1695.3	1678.94
1694.46	1768.42
1693.63	1750.17
1692.79	1702.01
1691.95	1704.72
1691.12	1704.42
1690.28	1704.13
1689.45	1739.72
1688.61	1805.17
1687.77	1733.15
1686.94	1798.58
1686.1	1756.45
1685.26	1762.13
1684.42	1767.8
1683.59	1806.31
1682.75	1835.86
1681.91	1740.03
1681.07	1748.69
1680.24	1736.46
1679.4	1822.67
1678.56	1703.06
1677.72	1741.53
1676.88	1771.05
1676.04	1720.07
1675.21	1707.86
1674.37	1734.39
1673.53	1725.15
1672.69	1796.36
1671.85	1757.33
1671.01	1792.77
1670.17	1777.57
1669.33	1777.27
1668.49	1750.18
1667.65	1726.07
1666.81	1800.16
1665.97	1752.26
1665.13	1716.26
1664.29	1846.83
1663.45	1766.23
1662.61	1774.85
1661.77	1819.13
1660.92	1702.91
1660.08	1726.39
1659.24	1800.37
1658.4	1847.59
1657.56	1903.7
1656.72	1781.63
1655.87	1760.55
1655.03	1760.25
1654.19	1822.27
1653.35	1786.35
1652.5	1780.11
1651.66	1877.7
1650.82	1788.4
1649.98	1776.24
1649.13	1758.14
1648.29	1870.49
1647.45	1790.15
1646.6	1819.47
1645.76	1810.27
1644.91	1854.4
1644.07	1854.08
1643.23	1815.27
1642.38	1865.29
1641.54	1755.44
1640.69	1817.3
1639.85	1882.09
1639	1825.55
1638.16	1905.11
1637.31	1836.76
1636.47	1848.27
1635.62	1939.62
1634.78	1850.6
1633.93	1865.06
1633.08	1879.52
1632.24	1840.79
1631.39	1881.83
1630.55	1943.54
1629.7	1839.84
1628.85	1889.72
1628.01	1910.06
1627.16	1927.45
1626.31	1903.51
1625.46	1956.29
1624.62	1920.56
1623.77	1964.47
1622.92	1993.63
1622.07	1969.7
1621.23	2031.27
1620.38	2101.67
1619.53	2092.47
1618.68	2183.45
1617.83	2392.26
1616.98	2324.1
1616.13	2650.61
1615.29	2794.44
1614.44	2958.83
1613.59	2987.76
1612.74	3001.96
1611.89	2998.51
1611.04	2909.73
1610.19	2812.16
1609.34	2705.8
1608.49	2649.46
1607.64	2410.86
1606.79	2384
1605.94	2398.28
1605.09	2280.33
1604.24	2221.18
1603.38	2103.29
1602.53	2202.79
1601.68	2079.08
1600.83	2066.98
1599.98	2002.04
1599.13	1998.76
1598.27	2027.77
1597.42	1886.59
1596.57	1997.74
1595.72	1956.33
1594.87	1870.95
1594.01	2075.87
1593.16	1934.8
1592.31	1969.64
1591.45	1948.79
1590.6	1863.49
1589.75	1924.69
1588.89	2003.44
1588.04	1985.53
1587.19	1950.05
1586.33	1923.37
1585.48	1975.72
1584.62	2054.4
1583.77	1881.41
1582.92	2015.66
1582.06	2003.62
1581.21	1941.86
1580.35	2002.93
1579.5	1926.57
1578.64	1920.4
1577.78	1879.15
1576.93	1943.11
1576.07	1922.33
1575.22	1922
1574.36	1994.68
1573.51	1970.98
1572.65	1915.17
1571.79	1914.84
1570.94	1999.15
1570.08	1969.62
1569.22	1989.71
1568.37	2009.78
1567.51	1916.11
1566.65	1939.11
1565.79	1938.78
1564.94	2095.85
1564.08	1993.49
1563.22	1958.18
1562.36	2004.45
1561.5	1928.37
1560.65	2000.85
1559.79	1918.97
1558.93	2026.37
1558.07	1947.42
1557.21	1947.09
1556.35	1929.29
1555.49	2019.15
1554.63	1887.9
1553.77	2012.64
1552.91	2000.66
1552.05	1927.63
1551.19	1921.49
1550.33	1985.1
1549.47	2010.91
1548.61	2013.47
1547.75	2010.22
1546.89	1995.35
1546.03	1957.26
1545.17	1968.53
1544.31	2081.41
1543.45	2020.1
1542.58	2077.79
1541.72	1996.19
1540.86	2007.45
1540	2114.42
1539.14	1974.86
1538.28	1928.13
1537.41	1974.18
1536.55	2055
1535.69	2135.78
1534.82	2091.95
1533.96	2036.55
1533.1	2004.34
1532.24	1977.93
1531.37	2000.75
1530.51	1988.83
1529.64	2008.75
1528.78	2034.45
1527.92	2039.88
1527.05	2048.21
1526.19	1972.65
1525.32	1946.29
1524.46	2029.8
1523.59	1965.85
1522.73	1982.85
1521.86	2031.64
1521	2048.63
1520.13	2042.5
1519.27	1972.82
1518.4	2111.1
1517.54	2018.34
1516.67	1994.9
1515.8	2058.05
1514.94	2017.3
1514.07	1979.44
1513.21	1935.82
1512.34	2019.14
1511.47	1972.64
1510.6	2073.23
1509.74	2026.74
1508.87	2084.04
1508	2034.69
1507.14	2057.39
1506.27	1961.96
1505.4	2125.81
1504.53	1972.8
1503.66	1983.98
1502.8	2049.85
1501.93	2061.01
1501.06	1982.95
1500.19	2051.67
1499.32	1999.53
1498.45	1993.43
1497.58	2004.59
1496.71	1998.49
1495.84	1983.77
1494.97	2046.67
1494.1	2037.69
1493.23	2031.59
1492.36	2077.21
1491.49	1987.8
1490.62	2030.54
1489.75	2030.19
1488.88	2115.97
1488.01	1986.43
1487.14	1983.21
1486.27	2071.83
1485.4	2080.07
1484.52	2122.74
1483.65	2042.07
1482.78	2027.38
1481.91	2090.1
1481.04	2084.01
1480.17	2092.25
1479.29	2100.48
1478.42	2037.09
1477.55	2131.27
1476.67	2113.71
1475.8	2093.3
1474.93	2158.79
1474.06	2086.85
1473.18	2089.35
1472.31	1985.97
1471.43	2057.16
1470.56	2131.18
1469.69	2127.95
1468.81	2124.72
1467.94	2158.66
1467.06	2164
1466.19	2075.03
1465.31	2166.11
1464.44	2068.59
1463.56	2216.78
1462.69	2170.7
1461.81	2118.92
1460.94	2184.22
1460.06	2166.72
1459.19	2212.01
1458.31	2140.28
1457.43	2256.89
1456.56	2145.24
1455.68	2173.39
1454.8	2081.76
1453.93	2149.83
1453.05	2126.65
1452.17	2183.29
1451.3	2222.81
1450.42	2128.4
1449.54	2210.64
1448.66	2213.11
1447.78	2172.85
1446.91	2112.68
1446.03	2140.78
1445.15	2208.72
1444.27	2168.5
1443.39	2151.05
1442.51	2201.88
1441.64	2238.48
1440.76	2240.93
1439.88	2166.62
1439	2257.21
1438.12	2197.13
1437.24	2145.6
1436.36	2230.47
1435.48	2207.35
1434.6	2073.47
1433.72	2175.35
1432.84	2163.61
1431.96	2126.33
1431.08	2179.89
1430.2	2102.89
1429.31	2201.83
1428.43	2204.29
1427.55	2098.96
1426.67	2206.36
1425.79	2203.14
1424.91	2205.59
1424.02	2171.19
1423.14	2179.32
1422.26	2201.61
1421.38	2229.55
1420.49	2147.02
1419.61	2194.79
1418.73	2265.2
1417.85	2106.27
1416.96	2187.99
1416.08	2213.08
1415.2	2266.45
1414.31	2200.99
1413.43	2194.95
1412.54	2174.77
1411.66	2219.64
1410.78	2261.66
1409.89	2329.1
1409.01	2122.39
1408.12	2243.52
1407.24	2206.41
1406.35	2126.93
1405.47	2137.86
1404.58	2193.96
1403.7	2137.12
1402.81	2162.15
1401.92	2178.7
1401.04	2234.76
1400.15	2180.77
1399.27	2194.49
1398.38	2148.98
1397.49	2126.05
1396.61	2252.55
1395.72	2257.79
1394.83	2288.4
1393.94	2147.11
1393.06	2214.35
1392.17	2135.1
1391.28	2112.2
1390.39	2170.96
1389.51	2235.33
1388.62	2206.8
1387.73	2189.53
1386.84	2161.01
1385.95	2166.26
1385.06	2219.32
1384.17	2213.31
1383.29	2165.12
1382.4	2128.2
1381.51	2198.1
1380.62	2172.42
1379.73	2166.42
1378.84	2182.9
1377.95	2224.65
1377.06	2328.18
1376.17	2274.42
1375.28	2172.96
1374.39	2318.54
1373.5	2152.55
1372.6	2253.19
1371.71	2334.16
1370.82	2145.82
1369.93	2165.07
1369.04	2271.25
1368.15	2136.28
1367.26	2245.23
1366.36	2065.47
1365.47	2157.58
1364.58	2193.62
1363.69	2212.85
1362.79	2240.47
1361.9	2192.48
1361.01	2248.09
1360.11	2110.54
1359.22	2219.31
1358.33	2210.53
1357.43	2190.56
1356.54	2156.61
1355.65	2231.75
1354.75	2186.62
1353.86	2242.15
1352.96	2138.34
1352.07	2146.35
1351.17	2104.06
1350.28	2246.17
1349.39	2229.02
1348.49	2197.91
1347.59	2222.65
1346.7	2266.93
1345.8	2277.7
1344.91	2137.76
1344.01	2251.79
1343.12	2231.87
1342.22	2161.75
1341.32	2289.66
1340.43	2213.97
1339.53	2255.4
1338.63	2210.41
1337.74	2168.22
1336.84	2265.36
1335.94	2170.25
1335.04	2119.73
1334.15	2152.78
1333.25	2196.95
1332.35	2246.68
1331.45	2221.23
1330.55	2184.67
1329.66	2256.63
1328.76	2270.14
1327.86	2228.02
1326.96	2224.85
1326.06	2230.02
1325.16	2243.53
1324.26	2270.94
1323.36	2353.91
1322.46	2286.81
1321.56	2230.85
1320.66	2149.91
1319.76	2316.16
1318.86	2285.21
1317.96	2265.38
1317.06	2320.5
1316.16	2417.22
1315.26	2322.46
1314.36	2344.24
1313.46	2305
1312.55	2307.37
1311.65	2284.78
1310.75	2303.79
1309.85	2297.84
1308.95	2314.07
1308.04	2310.89
1307.14	2291.09
1306.24	2379.33
1305.34	2315.21
1304.43	2461.56
1303.53	2394.68
1302.63	2435.78
1301.72	2360.64
1300.82	2504.1
1299.92	2315.54
1299.01	2400.88
1298.11	2430.88
1297.21	2466.4
1296.3	2468.73
1295.4	2515.29
1294.49	2478.92
1293.59	2517.17
1292.68	2500.15
1291.78	2527.33
1290.87	2601.45
1289.97	2606.52
1289.06	2581.22
1288.16	2555.92
1287.25	2533.39
1286.34	2624
1285.44	2560.09
1284.53	2512.75
1283.62	2531.62
1282.72	2542.2
1281.81	2547.27
1280.9	2571.63
1280	2607
1279.09	2477.04
1278.18	2487.62
1277.27	2542.27
1276.37	2519.8
1275.46	2436.75
1274.55	2466.61
1273.64	2455.16
1272.73	2498.76
1271.82	2358
1270.92	2423.61
1270.01	2436.93
1269.1	2307.25
1268.19	2378.34
1267.28	2366.92
1266.37	2289.55
1265.46	2374.33
1264.55	2288.74
1263.64	2247.13
1262.73	2312.65
1261.82	2320.49
1260.91	2182.8
1260	2292.22
1259.09	2341.22
1258.18	2277.69
1257.27	2282.78
1256.35	2375.65
1255.44	2298.43
1254.53	2267.86
1253.62	2305.85
1252.71	2283.51
1251.79	2214.59
1250.88	2296.41
1249.97	2232.99
1249.06	2257.25
1248.14	2191.12
1247.23	2357.77
1246.32	2321.76
1245.41	2400.74
1244.49	2247.05
1243.58	2265.81
1242.66	2106.72
1241.75	2265.01
1240.84	2278.29
1239.92	2288.82
1239.01	2285.68
1238.09	2247.01
1237.18	2282.15
1236.26	2344.59
1235.35	2223.97
1234.43	2231.77
1233.52	2258.69
1232.6	2263.75
1231.69	2189.64
1230.77	2243.84
1229.86	2246.18
1228.94	2245.78
1228.02	2299.95
1227.11	2239.53
1226.19	2285.5
1225.27	2260.56
1224.36	2197.45
1223.44	2338.81
1222.52	2270.26
1221.6	2226.26
1220.69	2185
1219.77	2263.61
1218.85	2274.11
1217.93	2270.98
1217.01	2273.3
1216.1	2174.91
1215.18	2267.06
1214.26	2326.52
1213.34	2217.29
1212.42	2344.74
1211.5	2287.21
1210.58	2275.93
1209.66	2251.06
1208.74	2220.77
1207.82	2263.86
1206.9	2285.19
1205.98	2292.94
1205.06	2224.63
1204.14	2232.38
1203.22	2221.13
1202.3	2277.75
1201.38	2318.06
1200.46	2257.94
1199.54	2216.84
1198.61	2240.87
1197.69	2216.06
1196.77	2240.08
1195.85	2280.35
1194.93	2304.35
1194	2295.81
1193.08	2260.17
1192.16	2235.39
1191.24	2272.92
1190.31	2334.81
1189.39	2250.45
1188.47	2358.36
1187.54	2344.4
1186.62	2343.99
1185.7	2256.97
1184.77	2283.63
1183.85	2294.05
1182.92	2269.3
1182	2423.04
1181.07	2330.68
1180.15	2378.93
1179.23	2273.1
1178.3	2356.47
1177.37	2356.05
1176.45	2404.26
1175.52	2366.02
1174.6	2303.49
1173.67	2424.58
1172.75	2410.66
1171.82	2321.16
1170.89	2274.88
1169.97	2287.96
1169.04	2241.7
1168.11	2292.55
1167.19	2332.59
1166.26	2286.34
1165.33	2215.85
1164.4	2331.35
1163.48	2247.4
1162.55	2273.94
1161.62	2324.72
1160.69	2308.15
1159.76	2283.51
1158.83	2336.95
1157.91	2242.32
1156.98	2381.87
1156.05	2330.32
1155.12	2214.22
1154.19	2281.08
1153.26	2280.67
1152.33	2307.16
1151.4	2236.85
1150.47	2298.27
1149.54	2373.12
1148.61	2337.77
1147.68	2283.62
1146.75	2302.02
1145.82	2382.18
1144.89	2381.75
1143.96	2220.25
1143.02	2356.75
1142.09	2326.81
1141.16	2334.45
1140.23	2374.27
1139.3	2263.88
1138.36	2260.79
1137.43	2297.93
1136.5	2383.31
1135.57	2337.32
1134.63	2299.39
1133.7	2301.66
1132.77	2384.3
1131.83	2402.62
1130.9	2455.76
1129.97	2487.45
1129.03	2401.34
1128.1	2368.8
1127.17	2266.68
1126.23	2392.04
1125.3	2268.55
1124.36	2439.33
1123.43	2489.71
1122.49	2358.25
1121.56	2384.56
1120.62	2424.23
1119.69	2431.82
1118.75	2442.07
1117.81	2404.24
1116.88	2507.98
1115.94	2542.24
1115.01	2475.04
1114.07	2434.56
1113.13	2500.85
1112.2	2374.99
1111.26	2483.95
1110.32	2424.83
1109.38	2587.09
1108.45	2514.63
1107.51	2511.51
1106.57	2460.42
1105.63	2388.02
1104.69	2443.55
1103.76	2400.49
1102.82	2389.41
1101.88	2388.98
1100.94	2436.49
1100	2462.68
1099.06	2379.72
1098.12	2477.77
1097.18	2479.99
1096.24	2577.98
1095.3	2548.26
1094.36	2483.98
1093.42	2491.52
1092.48	2501.71
1091.54	2535.82
1090.6	2535.36
1089.66	2441.91
1088.72	2380.37
1087.78	2379.95
1086.84	2435.29
1085.9	2437.52
1084.95	2405.22
1084.01	2370.29
1083.07	2343.33
1082.13	2398.63
1081.19	2318.62
1080.24	2379.21
1079.3	2421.21
1078.36	2338.59
1077.41	2287.8
1076.47	2324.5
1075.53	2440.69
1074.58	2376.66
1073.64	2408.03
1072.7	2537.38
1071.75	2436.3
1070.81	2356.43
1069.86	2427.49
1068.92	2297.36
1067.98	2363.11
1067.03	2317.71
1066.09	2391.36
1065.14	2430.61
1064.19	2321.76
1063.25	2400.66
1062.3	2339.43
1061.36	2365.44
1060.41	2386.16
1059.46	2401.58
1058.52	2303.42
1057.57	2363.75
1056.63	2307.88
1055.68	2294.26
1054.73	2402.08
1053.78	2296.08
1052.84	2335.25
1051.89	2340.11
1050.94	2300.13
1049.99	2370.92
1049.05	2381.05
1048.1	2298.89
1047.15	2440.82
1046.2	2358.69
1045.25	2350.36
1044.3	2376.28
1043.35	2436.44
1042.4	2367.53
1041.45	2488.23
1040.5	2395.64
1039.55	2389.95
1038.6	2407.94
1037.65	2399.62
1036.7	2367.62
1035.75	2388.24
1034.8	2450.93
1033.85	2371.61
1032.9	2384.33
1031.95	2391.79
1031	2375.59
1030.05	2480.26
1029.1	2353.73
1028.14	2413.71
1027.19	2415.91
1026.24	2407.6
1025.29	2375.66
1024.33	2335.87
1023.38	2366.94
1022.43	2340.28
1021.48	2457.9
1020.52	2494.18
1019.57	2470.13
1018.62	2359.58
1017.66	2482.36
1016.71	2356.11
1015.75	2316.38
1014.8	2402.42
1013.85	2443.9
1012.89	2432.99
1011.94	2388.04
1010.98	2382.38
1010.03	2455.24
1009.07	2405.07
1008.12	2430.81
1007.16	2398.98
1006.2	2335.77
1005.25	2377.2
1004.29	2395.07
1003.34	2493.99
1002.38	2396.83
1001.42	2396.4
1000.47	2432.55
999.508	2515.71
998.551	2452.57
997.594	2493.91
996.636	2483.02
995.679	2456.47
994.721	2427.32
993.763	2479.07
992.805	2452.54
991.846	2412.97
990.888	2368.2
989.929	2414.71
988.97	2489.89
988.011	2406.02
987.052	2371.71
986.093	2410.37
985.133	2475.07
984.173	2419.92
983.213	2388.24
982.253	2369.58
981.293	2509.74
980.333	2410.37
979.372	2482.81
978.411	2432.93
977.45	2442.9
976.489	2361.82
975.528	2447.22
974.566	2449.38
973.605	2425.54
972.643	2367.92
971.681	2396.08
970.719	2403.45
969.756	2426.39
968.794	2498.68
967.831	2376.18
966.868	2419.89
965.905	2473.97
964.942	2416.43
963.979	2413.4
963.015	2436.31
962.052	2477.38
961.088	2453.59
960.124	2396.1
959.159	2535.67
958.195	2369.31
957.23	2394.81
956.266	2438.43
955.301	2492.4
954.336	2533.39
953.37	2481.14
952.405	2410.78
951.439	2381.86
950.473	2394.38
949.507	2357.71
948.541	2442.68
947.575	2400.84
946.608	2452.14
945.642	2446.53
944.675	2422.82
943.708	2461.16
942.741	2473.64
941.773	2460.27
940.806	2400.4
939.838	2423.22
938.87	2443.44
937.902	2481.74
936.934	2455.47
935.965	2491.17
934.997	2501.05
934.028	2402.53
933.059	2453.7
932.09	2520.33
931.121	2514.72
930.151	2444.64
929.182	2472.56
928.212	2381.89
927.242	2353.11
926.272	2422.26
925.301	2455.32
924.331	2465.18
923.36	2441.55
922.389	2533.81
921.418	2438.1
920.447	2468.55
919.475	2506.7
918.504	2521.69
917.532	2441.48
916.56	2492.48
915.588	2512.61
914.616	2512.15
913.643	2511.7
912.671	2439.28
911.698	2528.78
910.725	2505.2
909.752	2481.63
908.779	2447.79
907.805	2519.25
906.831	2485.42
905.858	2510.64
904.883	2553.82
903.909	2489.2
902.935	2475.92
901.96	2501.13
900.986	2585.31
900.011	2495.1
899.036	2697.19
898.06	2589.04
897.085	2685.96
896.109	2495.85
895.133	2661.93
894.157	2494.95
893.181	2525.23
892.205	2583.67
891.229	2606.24
890.252	2585.29
889.275	2620.66
888.298	2602.27
887.321	2635.06
886.343	2583.42
885.366	2628.99
884.388	2559.48
883.41	2628.04
882.432	2671.01
881.454	2552.98
880.475	2611.28
879.497	2575.04
878.518	2638.43
877.539	2581.77
876.56	2588.96
875.58	2616.57
874.601	2565.05
873.621	2661.56
872.641	2594.74
871.661	2487.13
870.681	2662.66
869.701	2644.33
868.72	2697.39
867.739	2592.39
866.758	2698.96
865.777	2729.05
864.796	2697.98
863.815	2804.48
862.833	2806.51
861.851	2772.9
860.869	2993.89
859.887	2990.8
858.905	2992.8
857.922	3027.88
856.939	3057.86
855.956	3003.89
854.973	3016.06
853.99	2982.46
853.007	2847.19
852.023	2879.71
851.039	2795.33
850.055	2949.81
849.071	2771.45
848.087	2809.05
847.102	2684.11
846.118	2792.79
845.133	2660.29
844.148	2713.1
843.163	2763.36
842.177	2734.95
841.192	2681.18
840.206	2635.05
839.22	2632.03
838.234	2634.09
837.248	2765.42
836.261	2653.41
835.274	2665.59
834.288	2774.04
833.301	2773.54
832.313	2681.87
831.326	2757.34
830.339	2718.87
829.351	2677.88
828.363	2652.08
827.375	2633.89
826.387	2724.48
825.398	2797.33
824.409	2743.72
823.421	2690.12
822.432	2732.61
821.443	2732.11
820.453	2713.93
819.464	2766.49
818.474	2781.14
817.484	2712.45
816.494	2747.3
815.504	2713.98
814.513	2713.49
813.523	2740.76
812.532	2737.73
811.541	2661.55
810.55	2731.69
809.559	2756.41
808.567	2713.05
807.575	2667.18
806.583	2732.22
805.591	2683.85
804.599	2708.55
803.607	2723.18
802.614	2773.05
801.621	2596.27
800.628	2641.12
799.635	2733.78
798.642	2783.62
797.649	2785.63
796.655	2797.7
795.661	2890.26
794.667	2716.2
793.673	2798.68
792.678	2838.4
791.684	2770.01
790.689	2754.43
789.694	2676.03
788.699	2728.3
787.704	2752.92
786.708	2682.1
785.713	2731.83
784.717	2666.06
783.721	2753.42
782.724	2687.68
781.728	2667.11
780.731	2664.12
779.735	2653.6
778.738	2735.87
777.741	2610.01
776.743	2724.84
775.746	2776.98
774.748	2756.42
773.75	2708.32
772.752	2640.19
771.754	2694.81
770.756	2669.28
769.757	2746.4
768.758	2755.91
767.759	2737.89
766.76	2597.27
765.761	2636.82
764.761	2773.91
763.762	2673.37
762.762	2727.89
761.762	2754.89
760.762	2746.89
759.761	2788.87
758.761	2803.35
757.76	2825.32
756.759	2777.35
755.758	2724.4
754.756	2808.79
753.755	2673.48
752.753	2745.37
751.751	2769.82
750.749	2759.33
749.747	2688.98
748.745	2773.29
747.742	2762.81
746.739	2702.47
745.736	2739.36
744.733	2736.37
743.73	2748.33
742.726	2742.84
741.723	2792.16
740.719	2799.12
739.715	2825.99
738.71	2775.69
737.706	2795.09
736.701	2844.35
735.697	2828.9
734.692	2743.8
733.686	2845.27
732.681	2732.85
731.675	2814.4
730.67	2796.48
729.664	2905.32
728.658	2909.76
727.651	2799.91
726.645	2824.24
725.638	2674.71
724.631	2855.49
723.624	2862.41
722.617	2814.73
721.61	2692.61
720.602	2848.43
719.595	2860.31
718.587	2884.59
717.578	2752.63
716.57	2856.26
715.562	2828.47
714.553	2832.91
713.544	2822.48
712.535	2876.47
711.526	2823.92
710.516	2890.27
709.507	2872.41
708.497	2802.56
707.487	2841.65
706.477	2791.63
705.467	2907.42
704.456	2884.62
703.445	3084.44
702.434	2980.01
701.423	2962.15
700.412	3030.83
699.401	2909.16
698.389	2903.68
697.377	2900.68
696.365	2877.91
695.353	2921.84
694.34	2955.88
693.328	2915.83
692.315	2856.05
691.302	2897.49
690.289	2983.32
689.276	2861.88
688.262	2851.49
687.249	2794.24
686.235	2946.61
685.221	2911.55
684.206	2896.23
683.192	2935.12
682.177	2853.27
681.162	2899.56
680.147	3029.57
679.132	2987.15
678.117	2902.88
677.101	2929.43
676.086	2980.58
675.07	2940.65
674.054	2888.45
673.037	2914.97
672.021	2860.33
671.004	2948.33
669.987	2950.24
668.97	3018.53
667.953	2934.41
666.936	2872.44
665.918	2773.65
664.9	2859.11
663.882	2932.25
662.864	2926.8
661.846	2855.07
660.827	2972.36
659.808	2812.3
658.789	2966.36
657.77	2970.72
656.751	2977.53
655.731	3026.03
654.712	2991.15
653.692	3010.2
652.672	2882.21
651.652	2908.63
650.631	3023.24
649.611	3017.79
648.59	3024.58
647.569	2940.77
646.548	3018.57
645.526	2966.61
644.505	2931.8
643.483	3004.66
642.461	3072.61
641.439	2991.33
640.417	3020.12
639.394	2987.78
638.371	3014.12
637.348	3094.22
636.325	3069.21
635.302	3058.87
634.279	3136.47
633.255	3152.99
632.231	3176.83
631.207	3229.95
630.183	3244
629.159	3079.89
628.134	3047.6
627.109	3066.56
626.084	3034.28
625.059	2916.67
624.034	2999.03
623.008	3056.98
621.983	3012.55
620.957	3048.54
619.931	3072.34
618.904	3081.52
617.878	2968.92
616.851	3004.9
615.824	3021.38
614.797	2979.44
613.77	3039.74
612.743	3082.97
611.715	3009.42
610.687	2933.46
609.659	3086.13
608.631	2985.87
607.603	2951.28
606.574	3026.09
605.546	3025.53
604.517	2922.92
603.487	2907.8
602.458	3018.99
601.429	3103.42
600.399	3059.15
599.369	3065.87
598.339	2958.51
597.309	2962.82
596.278	3049.61
595.248	3061.17
594.217	2980.58
593.186	3125.51
592.155	3037.66
591.123	3063.76
590.091	3048.65
589.06	3048.08
588.028	2933.66
586.996	2988.83
585.963	3070.61
584.931	3014.35
583.898	3108.2
582.865	3042.28
581.832	3107.05
580.798	3176.64
579.765	3130.09
578.731	3127.09
577.697	3058.81
576.663	3050.99
575.629	2924.73
574.594	3078.86
573.56	3085.54
572.525	3094.63
571.49	3084.4
570.455	3093.48
569.419	3078.42
568.384	3034.4
567.348	3014.53
566.312	3054.99
565.276	3100.27
564.239	3041.8
563.203	3089.47
562.166	3069.61
561.129	3143.78
560.092	3029.9
559.054	3092
558.017	3144.44
556.979	2999.31
555.941	3008.39
554.903	3017.46
553.865	3149.33
552.826	3050.05
551.787	3035.04
550.749	3048.91
549.709	3057.97
548.67	3018.92
547.631	3066.46
546.591	3113.98
545.551	3103.79
544.511	2937.35
543.471	3136.28
542.43	3078.03
541.39	3115.9
540.349	3076.89
539.308	3169.97
538.267	3128.57
537.225	3245.61
536.184	3122.6
535.142	3126.82
534.1	3107.05
533.058	3015.32
532.015	2940.41
530.973	2997.41
529.93	2982.47
528.887	3032.25
527.844	2969.38
526.801	2935.28
525.757	2982.65
524.713	3116.23
523.669	3055.78
522.625	3100.7
521.581	3054.64
520.537	3094.76
519.492	3063.08
518.447	3100.79
517.402	3085.86
516.357	3118.77
515.311	3034.49
514.265	3091.31
513.22	2866.04
512.174	2910.92
511.127	2941.44
510.081	2943.28
509.034	3014.39
507.987	2846.66
506.94	2967.9
505.893	2962.57
504.846	2899.96
503.798	2961.47
502.75	3037.27
501.702	3051.01
500.654	3067.14
499.606	3078.49
