3200.54	21.049
3199.95	33.6783
3199.35	37.8824
3198.76	37.8767
3198.16	58.9104
3197.57	25.2435
3196.98	21.0331
3196.38	63.0896
3195.79	42.0534
3195.19	33.6376
3194.6	37.8366
3194	37.8309
3193.41	21.014
3192.81	42.0216
3192.22	42.0153
3191.62	33.6071
3191.03	46.2028
3190.43	54.5951
3189.84	75.5817
3189.24	62.9752
3188.65	33.5817
3188.05	16.7883
3187.45	46.1609
3186.86	41.9581
3186.26	37.7566
3185.67	41.9454
3185.07	50.3269
3184.47	62.8991
3183.88	50.3116
3183.28	50.304
3182.69	33.5309
3182.09	50.2888
3181.49	71.2317
3180.9	46.0841
3180.3	62.8325
3179.7	16.7528
3179.1	25.1254
3178.51	41.8693
3177.91	46.0492
3177.31	50.2279
3176.72	33.4802
3176.12	46.0283
3175.52	66.9402
3174.92	41.8313
3174.33	37.6424
3173.73	62.7279
3173.13	37.631
3172.53	37.6253
3171.93	66.8794
3171.34	41.7933
3170.74	50.1443
3170.14	62.6709
3169.54	33.4194
3168.94	50.1215
3168.34	50.1139
3167.74	50.1064
3167.15	33.3992
3166.55	62.614
3165.95	16.6945
3165.35	50.076
3164.75	41.7237
3164.15	41.7173
3163.55	58.3954
3162.95	33.3638
3162.35	37.5285
3161.75	41.6921
3161.15	54.1915
3160.55	45.8474
3159.95	45.8404
3159.35	37.5001
3158.75	54.1586
3158.15	58.3158
3157.55	54.1422
3156.95	49.9698
3156.35	70.7798
3155.75	58.2804
3155.15	33.2981
3154.55	29.1314
3153.95	33.288
3153.35	37.4433
3152.75	58.2363
3152.15	20.7955
3151.54	49.9016
3150.94	49.8941
3150.34	83.1442
3149.74	37.4092
3149.14	54.0273
3148.54	58.1744
3147.94	54.0109
3147.33	54.0027
3146.73	62.3014
3146.13	33.2224
3145.53	66.4346
3144.93	33.2123
3144.32	33.2072
3143.72	41.5027
3143.12	45.6461
3142.52	45.6392
3141.91	53.929
3141.31	37.3298
3140.71	16.5885
3140.1	62.1974
3139.5	37.3128
3138.9	53.8881
3138.29	49.7353
3137.69	49.7277
3137.09	53.8635
3136.48	66.2835
3135.88	49.7051
3135.28	66.2634
3134.67	53.8308
3134.07	53.8226
3133.47	41.3957
3132.86	62.0842
3132.26	57.9364
3131.65	74.4784
3131.05	62.0559
3130.45	33.0914
3129.84	53.7654
3129.24	33.0814
3128.63	49.6145
3128.03	24.8035
3127.42	53.7327
3126.82	20.6633
3126.21	66.1125
3125.61	74.3652
3125	82.6155
3124.4	70.2125
3123.79	37.1657
3123.19	24.7733
3122.58	53.6674
3121.97	66.0422
3121.37	66.0321
3120.76	78.4012
3120.16	66.012
3119.55	66.002
3118.94	41.245
3118.34	49.4864
3117.73	70.0951
3117.13	70.0845
3116.52	61.8298
3115.91	57.6991
3115.31	45.3281
3114.7	65.9217
3114.09	70.0312
3113.48	53.5451
3112.88	65.8916
3112.27	90.5872
3111.66	53.5207
3111.06	86.4433
3110.45	65.8515
3109.84	53.4962
3109.23	37.0302
3108.63	57.5938
3108.02	57.585
3107.41	69.914
3106.8	65.7914
3106.19	49.336
3105.59	82.2142
3104.98	49.321
3104.37	57.5324
3103.76	78.0678
3103.15	61.6231
3102.54	61.6137
3101.93	57.4974
3101.33	57.4886
3100.72	78.0084
3100.11	61.5762
3099.5	77.9846
3098.89	53.3498
3098.28	65.6513
3097.67	82.0516
3097.06	57.4274
3096.45	82.0266
3095.84	65.6113
3095.23	94.3018
3094.62	102.486
3094.01	65.5813
3093.4	49.1785
3092.79	86.0492
3092.18	94.23
3091.57	73.734
3090.96	86.0098
3090.35	65.5213
3089.74	98.267
3089.13	81.8767
3088.52	90.0506
3087.91	81.8517
3087.3	94.1151
3086.69	114.557
3086.08	85.905
3085.46	130.883
3084.85	114.505
3084.24	114.488
3083.63	126.735
3083.02	118.54
3082.41	106.261
3081.79	138.936
3081.18	122.572
3080.57	163.404
3079.96	106.196
3079.35	151.103
3078.73	146.996
3078.12	118.396
3077.51	142.87
3076.9	138.766
3076.28	163.23
3075.67	114.243
3075.06	138.703
3074.45	106.051
3073.83	138.661
3073.22	118.251
3072.61	110.079
3071.99	118.215
3071.38	118.197
3070.77	114.104
3070.15	77.4158
3069.54	69.2562
3068.93	101.832
3068.31	118.107
3067.7	85.5126
3067.08	73.2853
3066.47	85.4865
3065.86	101.754
3065.24	85.4604
3064.63	97.6541
3064.01	105.776
3063.4	109.827
3062.78	89.4752
3062.17	81.3287
3061.55	56.9214
3060.94	105.695
3060.32	85.356
3059.71	93.4708
3059.09	81.2666
3058.48	73.1287
3057.86	81.2417
3057.25	73.1064
3056.63	81.2169
3056.02	109.626
3055.4	101.49
3054.78	73.0617
3054.17	85.2256
3053.55	73.0393
3052.94	60.8568
3052.32	81.13
3051.7	97.3411
3051.09	72.9947
3050.47	52.7103
3049.85	93.2425
3049.24	77.0146
3048.62	64.8445
3048	93.1997
3047.39	64.8246
3046.77	97.2221
3046.15	105.308
3045.53	80.9936
3044.92	64.785
3044.3	97.1626
3043.68	80.9565
3043.06	72.8497
3042.45	64.7454
3041.83	129.471
3041.21	76.8616
3040.59	88.984
3039.97	60.6616
3039.35	97.0437
3038.74	109.157
3038.12	80.845
3037.5	84.8743
3036.88	56.5742
3036.26	80.8079
3035.64	96.9546
3035.02	76.744
3034.41	68.6552
3033.79	100.948
3033.17	84.7834
3032.55	80.7337
3031.93	100.902
3031.31	72.6381
3030.69	72.6269
3030.07	116.992
3029.45	80.6719
3028.83	92.7585
3028.21	72.5825
3027.59	60.4761
3026.97	116.903
3026.35	64.4881
3025.73	80.5978
3025.11	60.4391
3024.49	92.659
3023.87	76.5327
3023.25	92.6306
3022.63	68.4556
3022	84.5499
3021.38	84.5369
3020.76	104.649
3020.14	76.4623
3019.52	116.688
3018.9	104.601
3018.28	76.4272
3017.66	88.4811
3017.03	96.51
3016.41	128.66
3015.79	80.4003
3015.17	104.504
3014.55	108.507
3013.92	112.509
3013.3	116.509
3012.68	96.4064
3012.06	116.473
3011.43	104.408
3010.81	80.3017
3010.19	96.3473
3009.57	112.388
3008.94	116.384
3008.32	140.442
3007.7	100.3
3007.07	120.342
3006.45	96.2586
3005.83	116.295
3005.2	116.277
3004.58	136.304
3003.96	112.233
3003.33	120.231
3002.71	96.17
3002.08	88.1423
3001.46	112.164
3000.84	104.136
3000.21	136.157
2999.59	116.116
2998.96	112.095
2998.34	116.081
2997.71	124.067
2997.09	108.042
2996.46	120.028
2995.84	124.01
2995.21	147.989
2994.59	143.967
2993.96	135.948
2993.34	123.934
2992.71	103.929
2992.09	119.899
2991.46	123.877
2990.84	131.848
2990.21	123.839
2989.58	127.814
2988.96	111.82
2988.33	159.718
2987.71	83.8391
2987.08	143.702
2986.45	143.68
2985.83	127.696
2985.2	119.697
2984.57	131.646
2983.95	111.682
2983.32	115.653
2982.69	159.497
2982.07	107.644
2981.44	115.6
2980.81	119.568
2980.18	131.504
2979.56	115.547
2978.93	135.448
2978.3	139.41
2977.67	107.528
2977.05	151.313
2976.42	115.458
2975.79	151.266
2975.16	111.442
2974.53	127.343
2973.91	143.239
2973.28	155.151
2972.65	139.217
2972.02	139.196
2971.39	139.174
2970.76	135.177
2970.13	131.181
2969.5	123.212
2968.88	151.01
2968.25	182.774
2967.62	135.073
2966.99	146.969
2966.36	150.918
2965.73	178.691
2965.1	150.871
2964.47	158.787
2963.84	150.825
2963.21	146.833
2962.58	182.521
2961.95	146.788
2961.32	190.398
2960.69	182.437
2960.06	186.374
2959.43	206.169
2958.8	162.531
2958.17	174.397
2957.53	134.741
2956.9	162.456
2956.27	190.163
2955.64	130.717
2955.01	178.223
2954.38	150.477
2953.75	150.453
2953.12	122.719
2952.48	154.365
2951.85	138.511
2951.22	154.317
2950.59	154.294
2949.96	146.359
2949.33	158.201
2948.69	134.45
2948.06	158.152
2947.43	181.847
2946.8	158.104
2946.16	146.223
2945.53	134.347
2944.9	158.03
2944.26	118.505
2943.63	146.133
2943	157.957
2942.37	153.985
2941.73	130.275
2941.1	142.096
2940.47	130.234
2939.83	138.106
2939.2	142.03
2938.56	138.064
2937.93	141.986
2937.3	134.077
2936.66	102.514
2936.03	118.267
2935.39	141.899
2934.76	173.405
2934.13	118.212
2933.49	157.592
2932.86	126.054
2932.22	157.544
2931.59	129.953
2930.95	94.497
2930.32	102.356
2929.68	153.51
2929.05	122.002
2928.41	129.853
2927.78	133.767
2927.14	133.747
2926.5	176.99
2925.87	121.908
2925.23	180.868
2924.6	149.389
2923.96	121.851
2923.32	141.483
2922.69	157.179
2922.05	125.724
2921.42	141.417
2920.78	133.54
2920.14	168.863
2919.51	137.425
2918.87	129.553
2918.23	157.009
2917.6	125.588
2916.96	113.796
2916.32	121.626
2915.68	149.066
2915.05	133.355
2914.41	133.334
2913.77	164.681
2913.13	160.735
2912.5	101.914
2911.86	156.767
2911.22	148.905
2910.58	160.636
2909.94	148.859
2909.31	125.336
2908.67	140.981
2908.03	152.706
2907.39	187.916
2906.75	156.573
2906.11	125.239
2905.47	164.351
2904.83	160.413
2904.2	156.476
2903.56	203.387
2902.92	168.16
2902.28	132.943
2901.64	179.836
2901	164.173
2900.36	164.147
2899.72	179.752
2899.08	171.911
2898.44	160.165
2897.8	140.611
2897.16	175.736
2896.52	160.09
2895.88	187.394
2895.24	144.427
2894.6	175.627
2893.96	159.991
2893.32	156.065
2892.67	226.259
2892.03	120.913
2891.39	175.491
2890.75	124.774
2890.11	163.741
2889.47	175.41
2888.83	148.101
2888.19	144.181
2887.54	148.055
2886.9	186.988
2886.26	167.484
2885.62	155.775
2884.98	167.432
2884.33	147.94
2883.69	147.917
2883.05	163.462
2882.41	186.785
2881.77	151.739
2881.12	120.595
2880.48	202.256
2879.84	186.669
2879.19	171.087
2878.55	198.275
2877.91	151.598
2877.26	155.461
2876.62	163.209
2875.98	170.954
2875.33	213.66
2874.69	178.67
2874.05	174.758
2873.4	166.966
2872.76	174.704
2872.11	178.559
2871.47	174.65
2870.83	155.22
2870.18	155.196
2869.54	174.569
2868.89	190.057
2868.25	159.002
2867.6	178.365
2866.96	147.322
2866.31	158.928
2865.67	162.779
2865.02	147.254
2864.38	209.223
2863.73	154.956
2863.09	174.298
2862.44	189.762
2861.8	166.5
2861.15	166.474
2860.5	174.19
2859.86	170.293
2859.21	154.787
2858.57	174.109
2857.92	150.871
2857.27	185.658
2856.63	181.762
2855.98	166.267
2855.33	173.974
2854.69	181.678
2854.04	154.595
2853.39	170.028
2852.75	173.866
2852.1	166.112
2851.45	189.262
2850.81	154.475
2850.16	177.619
2849.51	181.452
2848.86	150.543
2848.21	169.817
2847.57	196.803
2846.92	192.914
2846.27	235.319
2845.62	200.568
2844.97	204.394
2844.33	165.803
2843.68	173.488
2843.03	169.606
2842.38	208.121
2841.73	165.7
2841.08	196.497
2840.43	200.319
2839.78	207.991
2839.14	211.81
2838.49	180.973
2837.84	188.645
2837.19	196.314
2836.54	200.132
2835.89	180.86
2835.24	207.765
2834.59	192.345
2833.94	211.546
2833.29	211.514
2832.64	188.41
2831.99	199.914
2831.34	211.415
2830.69	180.636
2830.04	222.877
2829.39	172.895
2828.74	234.332
2828.08	188.205
2827.43	211.218
2826.78	195.826
2826.13	165.082
2825.48	207.28
2824.83	195.734
2824.18	153.493
2823.53	230.204
2822.87	214.824
2822.22	149.586
2821.57	230.096
2820.92	210.889
2820.27	184.02
2819.61	218.49
2818.96	210.79
2818.31	218.421
2817.66	203.062
2817	210.692
2816.35	222.15
2815.7	225.945
2815.05	233.567
2814.39	202.904
2813.74	241.15
2813.09	187.532
2812.43	225.769
2811.78	179.822
2811.13	191.27
2810.47	233.313
2809.82	195.034
2809.16	210.298
2808.51	210.265
2807.86	210.233
2807.2	214.022
2806.55	229.273
2805.89	244.52
2805.24	210.102
2804.58	206.249
2803.93	210.036
2803.28	236.731
2802.62	198.518
2801.97	209.938
2801.31	244.253
2800.66	217.504
2800	221.285
2799.34	190.734
2798.69	156.377
2798.03	202.114
2797.38	190.644
2796.72	251.611
2796.07	247.76
2795.41	186.744
2794.75	224.82
2794.1	213.355
2793.44	213.322
2792.79	251.376
2792.13	236.104
2791.47	197.992
2790.82	239.837
2790.16	209.349
2789.5	270.208
2788.84	216.894
2788.19	224.469
2787.53	224.434
2786.87	251.023
2786.22	228.167
2785.56	212.922
2784.9	247.104
2784.24	216.657
2783.59	212.823
2782.93	231.789
2782.27	212.756
2781.61	220.32
2780.95	216.488
2780.29	208.859
2779.64	205.03
2778.98	235.368
2778.32	246.718
2777.66	250.474
2777	216.285
2776.34	231.427
2775.68	235.184
2775.02	219.976
2774.36	238.902
2773.71	238.865
2773.05	242.619
2772.39	238.79
2771.73	216.015
2771.07	253.872
2770.41	219.736
2769.75	265.157
2769.09	212.092
2768.43	268.861
2767.77	219.598
2767.11	223.349
2766.45	223.315
2765.79	272.477
2765.12	227.028
2764.46	264.825
2763.8	223.175
2763.14	204.23
2762.48	264.701
2761.82	279.783
2761.16	241.936
2760.5	196.543
2759.83	241.861
2759.17	245.601
2758.51	256.897
2757.85	264.411
2757.19	279.477
2756.53	230.343
2755.86	275.613
2755.2	245.371
2754.54	211.363
2753.88	249.068
2753.21	260.348
2752.55	260.308
2751.89	267.811
2751.23	301.711
2750.56	290.352
2749.9	256.374
2749.24	233.716
2748.57	218.604
2747.91	248.717
2747.25	282.589
2746.58	244.872
2745.92	222.233
2745.25	248.561
2744.59	274.881
2743.93	301.192
2743.26	271.03
2742.6	259.697
2741.93	233.314
2741.27	285.953
2740.61	248.289
2739.94	248.25
2739.28	293.34
2738.61	240.652
2737.95	304.527
2737.28	255.612
2736.62	300.673
2735.95	270.563
2735.29	281.793
2734.62	266.722
2733.95	229.119
2733.29	292.926
2732.62	266.596
2731.96	266.555
2731.29	292.789
2730.62	236.446
2729.96	288.944
2729.29	273.891
2728.63	273.848
2727.96	270.055
2727.29	273.762
2726.63	284.968
2725.96	284.923
2725.29	329.86
2724.62	307.321
2723.96	281.042
2723.29	277.251
2722.62	310.922
2721.96	288.401
2721.29	277.121
2720.62	269.589
2719.95	295.752
2719.28	280.733
2718.62	325.6
2717.95	295.613
2717.28	295.567
2716.61	224.446
2715.94	284.253
2715.27	284.209
2714.61	284.164
2713.94	276.643
2713.27	302.764
2712.6	302.716
2711.93	321.352
2711.26	313.829
2710.59	310.045
2709.92	283.852
2709.25	287.541
2708.58	272.561
2707.91	309.85
2707.24	298.603
2706.57	309.752
2705.9	317.166
2705.23	272.347
2704.56	313.337
2703.89	287.18
2703.22	257.303
2702.55	302.004
2701.88	287.045
2701.21	309.363
2700.54	309.314
2699.87	305.54
2699.2	283.139
2698.53	290.544
2697.86	271.877
2697.19	305.348
2696.51	297.853
2695.84	260.581
2695.17	312.648
2694.5	334.927
2693.83	316.27
2693.15	301.339
2692.48	301.292
2691.81	297.525
2691.14	290.042
2690.47	345.764
2689.79	338.275
2689.12	315.922
2688.45	308.44
2687.77	334.4
2687.1	315.773
2686.43	308.294
2685.76	352.811
2685.08	378.748
2684.41	293.298
2683.74	322.948
2683.06	315.475
2682.39	293.16
2681.71	348.768
2681.04	296.777
2680.37	326.403
2679.69	356.02
2679.02	307.761
2678.34	359.615
2677.67	378.093
2676.99	315.028
2676.32	318.684
2675.65	351.979
2674.97	281.539
2674.3	296.31
2673.62	344.406
2672.95	348.054
2672.27	325.787
2671.59	303.526
2670.92	333.086
2670.24	355.236
2669.57	336.681
2668.89	358.823
2668.22	336.575
2667.54	355.012
2666.86	310.586
2666.19	362.294
2665.51	303.096
2664.83	317.831
2664.16	343.647
2663.48	391.622
2662.8	339.844
2662.13	361.951
2661.45	332.352
2660.77	332.299
2660.1	317.48
2659.42	339.576
2658.74	383.808
2658.06	317.33
2657.39	343.105
2656.71	339.362
2656.03	328.244
2655.35	398.256
2654.68	357.636
2654	364.953
2653.32	339.095
2652.64	368.523
2651.96	331.618
2651.28	331.566
2650.6	327.83
2649.93	408.802
2649.25	349.821
2648.57	338.72
2647.89	342.348
2647.21	386.461
2646.53	342.24
2645.85	349.544
2645.17	382.599
2644.49	415.643
2643.81	319.957
2643.13	364.032
2642.45	375.004
2641.77	374.945
2641.09	393.262
2640.41	367.477
2639.73	363.745
2639.05	337.972
2638.37	389.341
2637.69	348.882
2637.01	356.171
2636.33	414.855
2635.65	385.424
2634.96	385.363
2634.28	377.963
2633.6	374.234
2632.92	326.486
2632.24	359.445
2631.56	377.724
2630.88	436.331
2630.19	414.265
2629.51	373.88
2628.83	432.459
2628.15	410.405
2627.46	366.375
2626.78	388.296
2626.1	369.922
2625.42	373.525
2624.73	435.71
2624.05	417.337
2623.37	355.046
2622.69	398.907
2622	413.48
2621.32	365.854
2620.64	376.77
2619.95	365.738
2619.27	394.934
2618.58	413.153
2617.9	413.088
2617.22	409.367
2616.53	416.611
2615.85	416.545
2615.16	398.213
2614.48	409.108
2613.79	405.391
2613.11	390.72
2612.43	427.169
2611.74	394.247
2611.06	459.882
2610.37	383.174
2609.69	412.303
2609	379.405
2608.31	463.238
2607.63	397.52
2606.94	397.457
2606.26	382.81
2605.57	426.493
2604.89	470.161
2604.2	451.866
2603.51	371.637
2602.83	444.437
2602.14	429.797
2601.45	426.087
2600.77	436.943
2600.08	407.749
2599.39	422.245
2598.71	425.817
2598.02	393
2597.33	418.406
2596.65	378.324
2595.96	385.539
2595.27	425.48
2594.58	439.956
2593.9	418.074
2593.21	447.087
2592.52	472.456
2591.83	432.41
2591.14	468.673
2590.46	410.478
2589.77	432.204
2589.08	453.924
2588.39	435.698
2587.7	450.15
2587.01	460.968
2586.32	424.603
2585.64	413.651
2584.95	475.26
2584.26	417.147
2583.57	438.841
2582.88	453.276
2582.19	464.081
2581.5	474.883
2580.81	376.946
2580.12	442.117
2579.43	434.8
2578.74	489.072
2578.05	460.017
2577.36	474.431
2576.67	456.25
2575.98	441.696
2575.29	466.965
2574.6	503.084
2573.91	405.298
2573.22	477.597
2572.52	481.139
2571.83	455.743
2571.14	444.822
2570.45	484.525
2569.76	488.064
2569.07	466.298
2568.38	451.767
2567.68	462.536
2566.99	404.655
2566.3	466.002
2565.61	465.928
2564.92	487.521
2564.22	476.612
2563.53	433.214
2562.84	469.241
2562.14	469.166
2561.45	404.141
2560.76	422.115
2560.07	537.48
2559.37	486.901
2558.68	472.4
2557.99	501.169
2557.29	436.2
2556.6	482.987
2555.91	461.288
2555.21	468.421
2554.52	439.525
2553.82	439.455
2553.13	486.205
2552.44	529.339
2551.74	518.454
2551.05	460.774
2550.35	525.487
2549.66	482.22
2548.96	482.143
2548.27	496.456
2547.57	510.765
2546.88	438.756
2546.18	532.177
2545.49	496.14
2544.79	488.872
2544.1	445.665
2543.4	485.123
2542.7	510.196
2542.01	528.077
2541.31	510.034
2540.62	502.77
2539.92	495.509
2539.22	527.74
2538.53	455.866
2537.83	513.217
2537.13	484.428
2536.44	462.824
2535.74	538.082
2535.04	498.543
2534.35	541.496
2533.65	537.825
2532.95	501.89
2532.25	483.888
2531.56	483.811
2530.86	512.399
2530.16	505.153
2529.46	465.669
2528.76	494.247
2528.07	512.073
2527.37	537.054
2526.67	529.809
2525.97	501.09
2525.27	483.117
2524.57	472.306
2523.88	543.781
2523.18	532.963
2522.48	536.455
2521.78	450.55
2521.08	511.257
2520.38	568.37
2519.68	532.538
2518.98	539.601
2518.28	539.514
2517.58	532.284
2516.88	525.055
2516.18	492.83
2515.48	503.464
2514.78	542.654
2514.08	535.429
2513.38	549.619
2512.68	545.963
2511.98	520.901
2511.28	549.356
2510.58	581.368
2509.88	556.313
2509.17	541.962
2508.47	538.31
2507.77	556.046
2507.07	513.192
2506.37	516.673
2505.67	541.529
2504.97	584.188
2504.26	591.218
2503.56	573.319
2502.86	548.304
2502.16	516.178
2501.45	548.129
2500.75	569.394
2500.05	597.768
2499.35	558.539
2498.64	565.564
2497.94	590.369
2497.24	640.057
2496.53	515.519
2495.83	575.867
2495.13	565.112
2494.42	550.808
2493.72	582.697
2493.02	561.289
2492.31	550.544
2491.61	568.212
2490.9	564.571
2490.2	560.93
2489.5	550.192
2488.79	543.005
2488.09	553.564
2487.38	510.901
2486.68	581.766
2485.97	602.954
2485.27	588.672
2484.56	531.848
2483.86	556.578
2483.15	574.212
2482.45	630.823
2481.74	598.832
2481.04	591.65
2480.33	559.675
2479.62	598.544
2478.92	552.414
2478.21	637.299
2477.51	555.777
2476.8	584.004
2476.09	612.221
2475.39	587.355
2474.68	636.789
2473.97	583.63
2473.27	601.219
2472.56	601.123
2471.85	608.098
2471.14	608
2470.44	576.094
2469.73	576.002
2469.02	561.777
2468.31	586.415
2467.61	579.257
2466.9	572.101
2466.19	674.407
2465.48	628.404
2464.77	543.588
2464.07	642.32
2463.36	659.86
2462.65	592.72
2461.94	634.956
2461.23	610.165
2460.52	634.752
2459.81	627.599
2459.1	648.65
2458.4	623.873
2457.69	606.152
2456.98	602.532
2456.27	644.711
2455.56	609.383
2454.85	633.939
2454.14	623.273
2453.43	672.464
2452.72	605.472
2452.01	647.611
2451.3	668.621
2450.59	548.885
2449.88	619.156
2449.16	608.504
2448.45	675.226
2447.74	639.955
2447.03	643.368
2446.32	650.295
2445.61	646.676
2444.9	639.545
2444.19	597.281
2443.47	649.878
2442.76	628.7
2442.05	656.693
2441.34	639.032
2440.63	617.866
2439.91	645.847
2439.2	666.8
2438.49	698.273
2437.78	613.961
2437.06	677.002
2436.35	673.386
2435.64	708.345
2434.93	599.542
2434.21	676.567
2433.5	585.33
2432.79	641.306
2432.07	683.249
2431.36	644.603
2430.64	658.511
2429.93	658.405
2429.22	714.325
2428.5	640.688
2427.79	637.085
2427.07	682.481
2426.36	675.373
2425.65	696.257
2424.93	671.658
2424.22	650.564
2423.5	660.95
2422.79	716.789
2422.07	685.21
2421.36	632.668
2420.64	678
2419.92	674.396
2419.21	688.263
2418.49	709.111
2417.78	695.027
2417.06	670.471
2416.35	694.803
2415.63	635.346
2414.91	698.07
2414.2	704.937
2413.48	729.249
2412.76	687.267
2412.05	763.895
2411.33	690.534
2410.61	679.962
2409.9	707.744
2409.18	700.658
2408.46	704.031
2407.74	700.433
2407.03	658.51
2406.31	717.625
2405.59	707.061
2404.87	710.429
2404.16	755.58
2403.44	696.275
2402.72	661.355
2402	776.097
2401.28	692.459
2400.56	702.785
2399.85	695.715
2399.13	692.125
2398.41	716.355
2397.69	723.194
2396.97	736.983
2396.25	702.106
2395.53	764.547
2394.81	715.779
2394.09	719.138
2393.37	750.283
2392.65	739.744
2391.93	763.931
2391.21	704.787
2390.49	763.685
2389.77	728.855
2389.05	725.267
2388.33	811.891
2387.61	832.574
2386.89	700.637
2386.17	787.223
2385.45	769.759
2384.73	759.234
2384	797.241
2383.28	790.181
2382.56	717.285
2381.84	769.138
2381.12	748.23
2380.4	789.671
2379.67	775.692
2378.95	720.169
2378.23	765.057
2377.51	730.321
2376.79	761.349
2376.06	775.067
2375.34	830.295
2374.62	750.604
2373.9	774.692
2373.17	809.145
2372.45	774.442
2371.73	801.971
2371	770.735
2370.28	791.345
2369.56	822.313
2368.83	739.271
2368.11	797.87
2367.38	842.635
2366.66	811.424
2365.94	766.413
2365.21	773.192
2364.49	779.97
2363.76	835.054
2363.04	821.119
2362.31	751.996
2361.59	786.364
2360.86	720.717
2360.14	789.558
2359.41	858.376
2358.69	747.942
2357.96	789.175
2357.24	761.483
2356.51	761.36
2355.79	781.904
2355.06	888.54
2354.33	764.434
2353.61	805.625
2352.88	836.475
2352.15	819.131
2351.43	794.911
2350.7	829.188
2349.98	818.734
2349.25	791.086
2348.52	863.176
2347.79	873.351
2347.07	852.583
2346.34	831.821
2345.61	800.756
2344.88	876.223
2344.16	900.13
2343.43	824.413
2342.7	776.197
2341.97	824.147
2341.25	896.115
2340.52	892.537
2339.79	813.45
2339.06	754.979
2338.33	806.324
2337.6	861.084
2336.87	857.514
2336.14	836.798
2335.42	846.95
2334.69	815.957
2333.96	788.402
2333.23	873.957
2332.5	908.083
2331.77	856.543
2331.04	842.702
2330.31	852.841
2329.58	866.401
2328.85	849.141
2328.12	818.192
2327.39	824.906
2326.66	848.728
2325.93	834.904
2325.2	858.717
2324.47	923.57
2323.73	865.279
2323	865.138
2322.27	861.579
2321.54	861.44
2320.81	878.389
2320.08	871.413
2319.35	864.438
2318.61	922.373
2317.88	884.651
2317.15	867.433
2316.42	870.707
2315.69	938.845
2314.95	928.453
2314.22	938.541
2313.49	863.317
2312.76	941.648
2312.02	893.738
2311.29	910.647
2310.56	913.909
2309.82	900.123
2309.09	951.112
2308.36	865.746
2307.62	909.909
2306.89	977.908
2306.16	865.325
2305.42	943.528
2304.69	943.375
2303.95	953.438
2303.22	915.832
2302.48	932.704
2301.75	983.605
2301.02	952.819
2300.28	905.031
2299.55	993.331
2298.81	928.546
2298.08	897.789
2297.34	962.246
2296.6	904.297
2295.87	951.737
2295.13	961.778
2294.4	982.009
2293.66	947.876
2292.93	957.912
2292.19	984.927
2291.45	916.852
2290.72	940.47
2289.98	967.474
2289.24	936.77
2288.51	936.618
2287.77	953.431
2287.03	973.63
2286.3	956.513
2285.56	1058.1
2284.82	983.328
2284.08	972.998
2283.35	999.957
2282.61	938.79
2281.87	1003.02
2281.13	996.082
2280.4	1006.08
2279.66	948.341
2278.92	975.278
2278.18	1025.91
2277.44	937.722
2276.7	1012.03
2275.97	839.276
2275.23	991.403
2274.49	994.625
2273.75	1007.99
2273.01	963.864
2272.27	1034.72
2271.53	953.407
2270.79	1047.9
2270.05	1027.45
2269.31	993.493
2268.57	979.817
2267.83	1091.14
2267.09	1026.78
2266.35	1043.5
2265.61	942.038
2264.87	1002.65
2264.13	1046.37
2263.39	995.575
2262.65	1012.28
2261.91	1005.37
2261.17	1038.94
2260.42	1011.79
2259.68	1085.81
2258.94	1035.06
2258.2	1011.3
2257.46	1054.95
2256.72	1044.67
2255.97	1017.54
2255.23	1047.69
2254.49	1017.21
2253.75	1027.15
2253	1070.75
2252.26	1094.14
2251.52	1067.04
2250.78	1060.13
2250.03	1022.95
2249.29	1049.69
2248.55	1039.43
2247.8	1099.8
2247.06	1065.99
2246.32	1126.34
2245.57	1105.99
2244.83	1092.36
2244.09	1129.15
2243.34	1098.73
2242.6	1088.47
2241.85	1007.68
2241.11	1118.34
2240.36	1158.45
2239.62	1111.26
2238.88	976.809
2238.13	1084.05
2237.39	1097.29
2236.64	1110.53
2235.89	1056.68
2235.15	1033.03
2234.4	1099.93
2233.66	1116.52
2232.91	1059.34
2232.17	1069.23
2231.42	1035.54
2230.67	1112.44
2229.93	1078.75
2229.18	1122.12
2228.44	1088.45
2227.69	1084.92
2226.94	1131.62
2226.2	1081.22
2225.45	1137.94
2224.7	1164.53
2223.95	1137.57
2223.21	1087.21
2222.46	1137.2
2221.71	1133.67
2220.96	1086.67
2220.22	1170.07
2219.47	1129.77
2218.72	1109.53
2217.97	1179.52
2217.22	1139.24
2216.48	1162.44
2215.73	1095.45
2214.98	1195.45
2214.23	1191.91
2213.48	1088.24
2212.73	1118.1
2211.98	1167.97
2211.23	1104.39
2210.48	1214.29
2209.73	1150.72
2208.98	1203.89
2208.23	1180.35
2207.48	1203.5
2206.73	1189.97
2205.98	1109.79
2205.23	1186.25
2204.48	1232.69
2203.73	1169.2
2202.98	1232.29
2202.23	1172.15
2201.48	1218.57
2200.73	1245
2199.98	1151.61
2199.23	1168.06
2198.48	1207.79
2197.72	1250.84
2196.97	1124.24
2196.22	1207.2
2195.47	1167.1
2194.72	1233.4
2193.97	1156.75
2193.21	1153.23
2192.46	1202.89
2191.71	1186.08
2190.96	1225.75
2190.2	1245.47
2189.45	1245.27
2188.7	1241.75
2187.94	1231.58
2187.19	1334.27
2186.44	1227.86
2185.68	1317.25
2184.93	1190.97
2184.18	1184.14
2183.42	1174
2182.67	1269.96
2181.91	1206.76
2181.16	1173.42
2180.41	1242.82
2179.65	1259.19
2178.9	1222.54
2178.14	1315.09
2177.39	1232.07
2176.63	1308.04
2175.88	1178.7
2175.12	1330.78
2174.37	1277.6
2173.61	1290.63
2172.86	1230.86
2172.1	1306.75
2171.34	1227.15
2170.59	1316.24
2169.83	1282.96
2169.08	1355.48
2168.32	1206.51
2167.56	1288.94
2166.81	1229.25
2166.05	1182.79
2165.29	1360.98
2164.54	1327.73
2163.78	1287.88
2163.02	1231.54
2162.27	1257.75
2161.51	1280.65
2160.75	1326.64
2159.99	1309.92
2159.23	1286.62
2158.48	1223.73
2157.72	1398.32
2156.96	1332.15
2156.2	1298.96
2155.44	1278.97
2154.69	1278.76
2153.93	1285.14
2153.17	1321.17
2152.41	1403.31
2151.65	1343.79
2150.89	1284.29
2150.13	1320.3
2149.37	1385.92
2148.61	1247.46
2147.85	1352.56
2147.09	1299.69
2146.33	1345.54
2145.57	1286.11
2144.81	1335.23
2144.05	1351.45
2143.29	1341.36
2142.53	1298.41
2141.77	1413.23
2141.01	1320.99
2140.25	1340.48
2139.49	1366.54
2138.73	1415.58
2137.97	1362.81
2137.2	1405.27
2136.44	1349.23
2135.68	1408.09
2134.92	1315.97
2134.16	1410.91
2133.4	1377.87
2132.63	1364.52
2131.87	1403.65
2131.11	1373.91
2130.35	1442.53
2129.58	1380.01
2128.82	1451.89
2128.06	1382.84
2127.29	1392.44
2126.53	1418.41
2125.77	1411.63
2125	1447.42
2124.24	1450.46
2123.48	1391.29
2122.71	1446.71
2121.95	1430.1
2121.19	1413.51
2120.42	1432.91
2119.66	1494.82
2118.89	1468.41
2118.13	1409.31
2117.36	1451.58
2116.6	1425.19
2115.83	1434.76
2115.07	1460.66
2114.3	1398.35
2113.54	1434.05
2112.77	1424.02
2112.01	1407.45
2111.24	1436.61
2110.48	1472.28
2109.71	1416.55
2108.94	1504.43
2108.18	1484.6
2107.41	1605.06
2106.64	1546.09
2105.88	1474.08
2105.11	1464.06
2104.34	1457.3
2103.58	1450.54
2102.81	1453.56
2102.04	1492.42
2101.28	1492.18
2100.51	1465.87
2099.74	1468.89
2098.97	1481.67
2098.21	1494.45
2097.44	1516.99
2096.67	1480.94
2095.9	1496.96
2095.13	1496.72
2094.36	1476.95
2093.6	1427.92
2092.83	1476.46
2092.06	1609.53
2091.29	1641.78
2090.52	1508.24
2089.75	1475.49
2088.98	1562.98
2088.21	1559.47
2087.44	1601.44
2086.67	1552.46
2085.9	1607.41
2085.13	1561.69
2084.36	1522.48
2083.59	1541.7
2082.82	1612.84
2082.05	1638.53
2081.28	1563.65
2080.51	1505
2079.74	1569.61
2078.97	1592.05
2078.2	1565.85
2077.43	1568.84
2076.65	1646.36
2075.88	1659.05
2075.11	1512.98
2074.34	1515.97
2073.57	1557.83
2072.8	1606.14
2072.02	1625.3
2071.25	1502.02
2070.48	1585.93
2069.71	1650.38
2068.93	1540.1
2068.16	1623.96
2067.39	1656.03
2066.61	1555.51
2065.84	1619.92
2065.07	1648.75
2064.29	1706.66
2063.52	1644.97
2062.75	1605.92
2061.97	1550.74
2061.2	1618.31
2060.43	1592.21
2059.65	1633.92
2058.88	1669.17
2058.1	1630.16
2057.33	1565.34
2056.55	1600.57
2055.78	1690.65
2055	1651.66
2054.23	1583.65
2053.45	1686.58
2052.68	1670.18
2051.9	1582.87
2051.13	1598.72
2050.35	1614.57
2049.57	1710.97
2048.8	1649.47
2048.02	1707.18
2047.25	1735.88
2046.47	1693.73
2045.69	1715.99
2044.92	1735.02
2044.14	1712.2
2043.36	1615.38
2042.59	1656.94
2041.81	1637.36
2041.03	1672.47
2040.25	1726.86
2039.48	1723.36
2038.7	1652.35
2037.92	1729.22
2037.14	1642.17
2036.37	1712.58
2035.59	1696.23
2034.81	1660.62
2034.03	1750.27
2033.25	1618.33
2032.47	1746.48
2031.69	1656.31
2030.92	1784.41
2030.14	1684.64
2029.36	1645.86
2028.58	1703.33
2027.8	1738.33
2027.02	1821.41
2026.24	1769.81
2025.46	1775.93
2024.68	1660.25
2023.9	1740.09
2023.12	1755.82
2022.34	1758.73
2021.56	1787.27
2020.78	1687.7
2020	1751.45
2019.21	1712.75
2018.43	1834.1
2017.65	1772.98
2016.87	1702.29
2016.09	1823.58
2015.31	1794.49
2014.53	1771.81
2013.74	1707.56
2012.96	1761.63
2012.18	1774.12
2011.4	1770.63
2010.62	1888.57
2009.83	1728.51
2009.05	1795.31
2008.27	1862.08
2007.49	1817.06
2006.7	1797.6
2005.92	1784.54
2005.14	1771.47
2004.35	1812.66
2003.57	1805.98
2002.79	1824.82
2002	1792.62
2001.22	1865.68
2000.43	1779.27
1999.65	1801.29
1998.87	1880.68
1998.08	1877.18
1997.3	1704.8
1996.51	1857.44
1995.73	1857.14
1994.94	1834.53
1994.16	1897.92
1993.37	1824.37
1992.59	1859.08
1991.8	1782.39
1991.02	1893.47
1990.23	1893.16
1989.44	1921.47
1988.66	1879.8
1987.87	1882.67
1987.09	1888.72
1986.3	1891.58
1985.51	1926.23
1984.73	1897.31
1983.94	1966.9
1983.15	1928.45
1982.37	1975.77
1981.58	1797.59
1980.79	1832.22
1980	1885.89
1979.22	1961.76
1978.43	1990
1977.64	1942.07
1976.85	1903.67
1976.06	1998.52
1975.28	1969.64
1974.49	1918.58
1973.7	1988.01
1972.91	2016.21
1972.12	2003.2
1971.33	2002.87
1970.54	1939.16
1969.76	1926.17
1968.97	1995.53
1968.18	1969.86
1967.39	1988.53
1966.6	1966.04
1965.81	1934.06
1965.02	2003.36
1964.23	2009.36
1963.44	2002.69
1962.65	2059.3
1961.86	1938.77
1961.07	1979.56
1960.28	1953.93
1959.48	2057.93
1958.69	2057.58
1957.9	1956.12
1957.11	2050.58
1956.32	1999.69
1955.53	2106.75
1954.74	1957.97
1953.94	2052.37
1953.15	2023.61
1952.36	2026.43
1951.57	2007.16
1950.78	2044.69
1949.98	1924.46
1949.19	2015.62
1948.4	2031.05
1947.61	2119
1946.81	2042.98
1946.02	2093.08
1945.23	2036
1944.43	2111.29
1943.64	2044.77
1942.85	2094.83
1942.05	2078.73
1941.26	2169.71
1940.46	2065.44
1939.67	2096.58
1938.88	2049.02
1938.08	2161.97
1937.29	2016.87
1936.49	2151.81
1935.7	2069.67
1934.9	2034.73
1934.11	2084.7
1933.31	2122.07
1932.52	2131.15
1931.72	2171.65
1930.93	2048.74
1930.13	2145.79
1929.33	2114.02
1928.54	2129.37
1927.74	2163.56
1926.95	2185.17
1926.15	2169.11
1925.35	2115.39
1924.56	2083.66
1923.76	2211.95
1922.96	2142.56
1922.17	2167.3
1921.37	2132.44
1920.57	2113.27
1919.77	2181.89
1918.98	2165.85
1918.18	2209.36
1917.38	2121.26
1916.58	2192.96
1915.78	2242.71
1914.99	2176.56
1914.19	2166.81
1913.39	2182.1
1912.59	2247.47
1911.79	2231.44
1910.99	2268.62
1910.19	2190.02
1909.39	2220.94
1908.59	2283.12
1907.8	2276.48
1907	2207.32
1906.2	2253.84
1905.4	2194.08
1904.6	2221.83
1903.8	2255.83
1903	2296.06
1902.2	2283.18
1901.39	2185.99
1900.59	2194.99
1899.79	2232.09
1898.99	2287.9
1898.19	2265.67
1897.39	2259.05
1896.59	2308.59
1895.79	2277.01
1894.99	2354.59
1894.18	2273.13
1893.38	2266.51
1892.58	2306.65
1891.78	2309.38
1890.98	2259.14
1890.17	2249.41
1889.37	2267.73
1888.57	2211.29
1887.76	2201.57
1886.96	2319.51
1886.16	2272.43
1885.36	2318.74
1884.55	2265.45
1883.75	2252.62
1882.94	2298.91
1882.14	2242.53
1881.34	2145.75
1880.53	2266.66
1879.73	2303.58
1878.92	2337.38
1878.12	2389.82
1877.32	2364.56
1876.51	2243.01
1875.71	2407.26
1874.9	2459.65
1874.1	2390.92
1873.29	2266.34
1872.49	2315.62
1871.68	2265.58
1870.87	2420.35
1870.07	2364.1
1869.26	2404.03
1868.46	2322.99
1867.65	2440.43
1866.84	2347.01
1866.04	2355.91
1865.23	2433
1864.42	2444.99
1863.62	2398.1
1862.81	2441.07
1862	2332.25
1861.2	2344.25
1860.39	2374.82
1859.58	2492.06
1858.77	2355.45
1857.96	2398.38
1857.16	2385.6
1856.35	2468.73
1855.54	2372.43
1854.73	2390.58
1853.92	2411.82
1853.12	2411.42
1852.31	2389.38
1851.5	2453.88
1850.69	2524.53
1849.88	2483.95
1849.07	2458.82
1848.26	2507.82
1847.45	2491.96
1846.64	2466.84
1845.83	2491.12
1845.02	2432.06
1844.21	2536.57
1843.4	2425.07
1842.59	2332.12
1841.78	2492.11
1840.97	2516.36
1840.16	2583.77
1839.35	2438.44
1838.54	2548.99
1837.72	2502.34
1836.91	2477.27
1836.1	2461.45
1835.29	2553.44
1834.48	2546.85
1833.67	2497.15
1832.85	2542.91
1832.04	2468.61
1831.23	2538.98
1830.42	2547.78
1829.6	2498.13
1828.79	2433.11
1827.98	2574.17
1827.17	2629.09
1826.35	2521.04
1825.54	2585.17
1824.73	2621.61
1823.91	2572.01
1823.1	2510.13
1822.29	2604.93
1821.47	2570.71
1820.66	2690.03
1819.84	2554.49
1819.03	2627.73
1818.21	2584.32
1817.4	2519.44
1816.58	2598.79
1815.77	2583.01
1814.95	2594.85
1814.14	2459.47
1813.32	2590.9
1812.51	2575.14
1811.69	2568.57
1810.88	2512.98
1810.06	2616.73
1809.25	2604.04
1808.43	2646.48
1807.61	2639.91
1806.8	2697.64
1805.98	2623.71
1805.16	2675.31
1804.35	2714.64
1803.53	2723.36
1802.71	2753.5
1801.89	2615.38
1801.08	2587.41
1800.26	2715.41
1799.44	2604.88
1798.62	2735.89
1797.81	2662.08
1796.99	2710.52
1796.17	2593.96
1795.35	2706.55
1794.53	2718.31
1793.71	2705.64
1792.9	2641.06
1792.08	2683.35
1791.26	2743.94
1790.44	2798.41
1789.62	2727.76
1788.8	2745.6
1787.98	2769.54
1787.16	2659.29
1786.34	2759.46
1785.52	2661.44
1784.7	2700.61
1783.88	2678.82
1783.06	2772.83
1782.24	2845.48
1781.42	2747.52
1780.6	2734.88
1779.78	2789.22
1778.95	2773.53
1778.13	2846.12
1777.31	2842.59
1776.49	2887.75
1775.67	2872.05
1774.85	2835.06
1774.02	2697.72
1773.2	2846.27
1772.38	2775.86
1771.56	2875.7
1770.74	2902.57
1769.91	2816.99
1769.09	2849.94
1768.27	2873.76
1767.44	2782.15
1766.62	2994.26
1765.8	2896.59
1764.97	2899.14
1764.15	2925.96
1763.33	2904.22
1762.5	2855.18
1761.68	2809.2
1760.85	2927.01
1760.03	2972.01
1759.21	2929.05
1758.38	2831.55
1757.56	3015.97
1756.73	2991.21
1755.91	2881.62
1755.08	3011.4
1754.26	2980.6
1753.43	2946.78
1752.6	2982.62
1751.78	2957.9
1750.95	3014.91
1750.13	2947.81
1749.3	3080.46
1748.47	3095.06
1747.65	3118.74
1746.82	3075.87
1745.99	3208.4
1745.17	3195.76
1744.34	3219.4
1743.51	3258.15
1742.69	3396.6
1741.86	3504.8
1741.03	3688.47
1740.2	3530.79
1739.38	3554.35
1738.55	3611.11
1737.72	3758.42
1736.89	3739.68
1736.06	3844.66
1735.23	4055.22
1734.4	3954.98
1733.58	4053.85
1732.75	4209.98
1731.92	4420.33
1731.09	4395.46
1730.26	4605.71
1729.43	4571.78
1728.6	4676.46
1727.77	4781.11
1726.94	5084.53
1726.11	4969.22
1725.28	5094.85
1724.45	5109.03
1723.62	5123.22
1722.79	4962.84
1721.96	4760.39
1721.13	4609.15
1720.3	4421.86
1719.46	4427.13
1718.63	4390.29
1717.8	4167.06
1716.97	4172.37
1716.14	4108.54
1715.31	4023.7
1714.47	3848.76
1713.64	3773.01
1712.81	3670.25
1711.98	3687.64
1711.14	3518.88
1710.31	3461.24
1709.48	3457.65
1708.65	3367.04
1707.81	3357.46
1706.98	3230.89
1706.15	3275.34
1705.31	3205.8
1704.48	3307.2
1703.64	3303.64
1702.81	3246.13
1701.98	3200.63
1701.14	3167.12
1700.31	3133.63
1699.47	3294.84
1698.64	3126.57
1697.8	3194.91
1696.97	3224.31
1696.13	3268.66
1695.3	3238.17
1694.46	3165.81
1693.63	3177.24
1692.79	3224.55
1691.95	3125.31
1691.12	3184.58
1690.28	3219.92
1689.45	3162.57
1688.61	3299.52
1687.77	3173.45
1686.94	3154.98
1686.1	3148.47
1685.26	3216.63
1684.42	3201.15
1683.59	3245.39
1682.75	3220.96
1681.91	3148.78
1681.07	3204.94
1680.24	3284.95
1679.4	3209.81
1678.56	3107.86
1677.72	3163.99
1676.88	3264.82
1676.04	3136.08
1675.21	3227.94
1674.37	3173.75
1673.53	3256.64
1672.69	3276.93
1671.85	3222.76
1671.01	3284.75
1670.17	3185.93
1669.33	3343.17
1668.49	3184.85
1667.65	3273.58
1666.81	3207.56
1665.97	3257.59
1665.13	3280.83
1664.29	3235.66
1663.45	3255.92
1662.61	3222.67
1661.77	3284.54
1660.92	3304.78
1660.08	3235.87
1659.24	3250.18
1658.4	3350.62
1657.56	3284.71
1656.72	3230.7
1655.87	3408.28
1655.03	3475.97
1654.19	3321.05
1653.35	3228.49
1652.5	3426.72
1651.66	3470.63
1650.82	3392.92
1649.98	3469.44
1649.13	3477.75
1648.29	3275.58
1647.45	3295.76
1646.6	3339.65
1645.76	3499.07
1644.91	3362.21
1644.07	3340.9
1643.23	3387.71
1642.38	3425.62
1641.54	3374.71
1640.69	3459.97
1639.85	3417.95
1639	3556.43
1638.16	3502.57
1637.31	3490.14
1636.47	3448.14
1635.62	3545.12
1634.78	3476.52
1633.93	3490.71
1633.08	3383.72
1632.24	3560.43
1631.39	3500.73
1630.55	3532.63
1629.7	3493.63
1628.85	3566.85
1628.01	3607.57
1627.16	3539.07
1626.31	3629.95
1625.46	3644.08
1624.62	3599.2
1623.77	3828.66
1622.92	3872.24
1622.07	4033.75
1621.23	4044.86
1620.38	4209.23
1619.53	4408.92
1618.68	4832.48
1617.83	5120.37
1616.98	5699.78
1616.13	6013.93
1615.29	6663.66
1614.44	7080.59
1613.59	7382.57
1612.74	7531.4
1611.89	7179.94
1611.04	6802.12
1610.19	6642.11
1609.34	6123.34
1608.49	5939.98
1607.64	5586.15
1606.79	5241.26
1605.94	5078.71
1605.09	4842.76
1604.24	4548.12
1603.38	4376.96
1602.53	4323.35
1601.68	4111.17
1600.83	4045.88
1599.98	4159.67
1599.13	3821.43
1598.27	3826.64
1597.42	3916.94
1596.57	3713.85
1595.72	3757.21
1594.87	3785.89
1594.01	3870.27
1593.16	3679.06
1592.31	3652.05
1591.45	3768.64
1590.6	3732.84
1589.75	3679.46
1588.89	3737.41
1588.04	3669.42
1587.19	3835.68
1586.33	3729.63
1585.48	3690.94
1584.62	3769.32
1583.77	3759.9
1582.92	3674.42
1582.06	3621.13
1581.21	3708.25
1580.35	3669.6
1579.5	3689.43
1578.64	3671.26
1577.78	3828.44
1576.93	3792.72
1576.07	3803.76
1575.22	3712.55
1574.36	3726.52
1573.51	3664.56
1572.65	3643.49
1571.79	3602
1570.94	3662.67
1570.08	3723.32
1569.22	3708.09
1568.37	3765.79
1567.51	3601.82
1566.65	3747
1565.79	3685.13
1564.94	3704.91
1564.08	3785.87
1563.22	3691.98
1562.36	3679.69
1561.5	3769.36
1560.65	3803.66
1559.79	3733.12
1558.93	3848.93
1558.07	3790.05
1557.21	3620.59
1556.35	3669.44
1555.49	3738.63
1554.63	3685.63
1553.77	3685
1552.91	3710.53
1552.05	3698.27
1551.19	3712.16
1550.33	3787.09
1549.47	3617.9
1548.61	3756.73
1547.75	3648.61
1546.89	3880.33
1546.03	3760.6
1545.17	3818.02
1544.31	3689.64
1543.45	3752.86
1542.58	3749.31
1541.72	3739.96
1540.86	3774.12
1540	3753.17
1539.14	3787.32
1538.28	3891.05
1537.41	3786.02
1536.55	3930.29
1535.69	3761.53
1534.82	3784.06
1533.96	3734.16
1533.1	3736.42
1532.24	3889.26
1531.37	3874.11
1530.51	3798.17
1529.64	3806.2
1528.78	3872.11
1527.92	3865.65
1527.05	3769.52
1526.19	3621.35
1525.32	3967.76
1524.46	3871.66
1523.59	3836.3
1522.73	3890.56
1521.86	3860.99
1521	3921
1520.13	3787.43
1519.27	3882.1
1518.4	3927.63
1517.54	3898.08
1516.67	4001.34
1515.8	3940.03
1514.94	3924.92
1514.07	4033.9
1513.21	3894.72
1512.34	3905.59
1511.47	3754.94
1510.6	3907.12
1509.74	3866.08
1508.87	3954.77
1508	3870.51
1507.14	3944.76
1506.27	3961.37
1505.4	3871.39
1504.53	3994.56
1503.66	4062.98
1502.8	3906.81
1501.93	4004
1501.06	3948.63
1500.19	4011.25
1499.32	3941.51
1498.45	4004.11
1497.58	3888.38
1496.71	3864.71
1495.84	3967.54
1494.97	3989.85
1494.1	3859.83
1493.23	3928.13
1492.36	4007.89
1491.49	3915.28
1490.62	3957.68
1489.75	3979.97
1488.88	3985.02
1488.01	3984.33
1487.14	3929.11
1486.27	4023.13
1485.4	4039.65
1484.52	4076.24
1483.65	3998.1
1482.78	3908.51
1481.91	4013.92
1481.04	4013.22
1480.17	4018.26
1479.29	4126.46
1478.42	3985.35
1477.55	3961.75
1476.67	4161.55
1475.8	4094.97
1474.93	4054.17
1474.06	4162.25
1473.18	4021.29
1472.31	4137.92
1471.43	4188.7
1470.56	4125.04
1469.69	4061.4
1468.81	4123.61
1467.94	4271.57
1467.06	4102.17
1466.19	4041.44
1465.31	4129.33
1464.44	4182.9
1463.56	4202.17
1462.69	4170.03
1461.81	4286.39
1460.94	4274.22
1460.06	4316.3
1459.19	4178.55
1458.31	4263.44
1457.43	4279.82
1456.56	4233.43
1455.68	4255.52
1454.8	4214.86
1453.93	4219.83
1453.05	4210.54
1452.17	4460.64
1451.3	4311.67
1450.42	4214.05
1449.54	4221.87
1448.66	4175.56
1447.78	4243.19
1446.91	4239.6
1446.03	4250.25
1445.15	4218.21
1444.27	4317.08
1443.39	4250.89
1442.51	4301.36
1441.64	4144.17
1440.76	4302.71
1439.88	4219.5
1439	4255.73
1438.12	4280.57
1437.24	4265.62
1436.36	4239.3
1435.48	4303.91
1434.6	4286.12
1433.72	4248.46
1432.84	4290.31
1431.96	4195.88
1431.08	4240.57
1430.2	4239.83
1429.31	4230.58
1428.43	4269.56
1427.55	4336.9
1426.67	4253.9
1425.79	4278.68
1424.91	4309.12
1424.02	4331.05
1423.14	4236.77
1422.26	4340.88
1421.38	4447.77
1420.49	4339.37
1419.61	4369.76
1418.73	4383.16
1417.85	4555.09
1416.96	4574.11
1416.08	4519.55
1415.2	4439.53
1414.31	4594.36
1413.43	4454.96
1412.54	4595.59
1411.66	4416.65
1410.78	4534.62
1409.89	4573.4
1409.01	4414.35
1408.12	4439.01
1407.24	4579.49
1406.35	4567.4
1405.47	4385.86
1404.58	4435.92
1403.7	4471.85
1402.81	4564.22
1401.92	4467.47
1401.04	4373.58
1400.15	4429.24
1399.27	4451.03
1398.38	4441.8
1397.49	4415.65
1396.61	4366.95
1395.72	4532.5
1394.83	4438.71
1393.94	4398.48
1393.06	4383.63
1392.17	4442.02
1391.28	4452.51
1390.39	4448.92
1389.51	4504.45
1388.62	4399.52
1387.73	4528.21
1386.84	4445.82
1385.95	4411.28
1385.06	4421.77
1384.17	4398.5
1383.29	4313.38
1382.4	4284.51
1381.51	4368.09
1380.62	4434.78
1379.73	4434
1378.84	4461.32
1377.95	4570.09
1377.06	4324.96
1376.17	4489.88
1375.28	4489.09
1374.39	4538.84
1373.5	4431.4
1372.6	4495.16
1371.71	4511.21
1370.82	4409.44
1369.93	4442.33
1369.04	4570.54
1368.15	4463.21
1367.26	4549.32
1366.36	4433.62
1365.47	4345.99
1364.58	4499.31
1363.69	4392.09
1362.79	4494.94
1361.9	4496.96
1361.01	4330.99
1360.11	4456.2
1359.22	4427.43
1358.33	4552.58
1357.43	4551.78
1356.54	4489.45
1355.65	4441.12
1354.75	4624.89
1353.86	4531.83
1352.96	4648.43
1352.07	4711.9
1351.17	4490.33
1350.28	4551.01
1349.39	4594.91
1348.49	4379.06
1347.59	4579.34
1346.7	4623.21
1345.8	4614.02
1344.91	4618.8
1344.01	4534.28
1343.12	4513.96
1342.22	4688.9
1341.32	4615.57
1340.43	4525.53
1339.53	4605.59
1338.63	4646.6
1337.74	4656.93
1336.84	4449.92
1335.94	4457.5
1335.04	4565.35
1334.15	4592.4
1333.25	4664
1332.35	4596.36
1331.45	4623.4
1330.55	4547.44
1329.66	4627.34
1328.76	4582.02
1327.86	4603.47
1326.96	4547.04
1326.06	4713.08
1325.16	4765.08
1324.26	4650.28
1323.36	4716.16
1322.46	4801.48
1321.56	4800.63
1320.66	4741.46
1319.76	4662.87
1318.86	4698.15
1317.96	4780.61
1317.06	4765.9
1316.16	4820.57
1315.26	4844.7
1314.36	4896.56
1313.46	5001.1
1312.55	4764.5
1311.65	4888.44
1310.75	4951.34
1309.85	4931.07
1308.95	4919.12
1308.04	5078.97
1307.14	5044.83
1306.24	5007.94
1305.34	5281.23
1304.43	5119.71
1303.53	5113.28
1302.63	5079.16
1301.72	5092.11
1300.82	5077.38
1299.92	5079.26
1299.01	5252.62
1298.11	5284.89
1297.21	5248.02
1296.3	5343.85
1295.4	5497.7
1294.49	5745.46
1293.59	5586.95
1292.68	5735.15
1291.78	5770.05
1290.87	5882.27
1289.97	5779.07
1289.06	5860.88
1288.16	5868.13
1287.25	5927.81
1286.34	5661.89
1285.44	5859.52
1284.53	5720.58
1283.62	5692
1282.72	5633.09
1281.81	5565.94
1280.9	5644.9
1280	5597.06
1279.09	5585.05
1278.18	5578.56
1277.27	5453.63
1276.37	5505
1275.46	5407.66
1274.55	5365.42
1273.64	5334.2
1272.73	5179.15
1271.82	5114.96
1270.92	5116.81
1270.01	5082.9
1269.1	4941.76
1268.19	5017.88
1267.28	5000.5
1266.37	5032.6
1265.46	4995.99
1264.55	5022.59
1263.64	4895.34
1262.73	4921.94
1261.82	4945.79
1260.91	5010.82
1260	4872.68
1259.09	4915.74
1258.18	4936.82
1257.27	4963.39
1256.35	5006.41
1255.44	4860.16
1254.53	4840.11
1253.62	4820.07
1252.71	4835.67
1251.79	4834.82
1250.88	4839.44
1249.97	4794.75
1249.06	4974.71
1248.14	4842.37
1247.23	4920.93
1246.32	4837.92
1245.41	4916.46
1244.49	4970.33
1243.58	4881.89
1242.66	4952.16
1241.75	4877.43
1240.84	4862.89
1239.92	4826.49
1239.01	4891.26
1238.09	4822.05
1237.18	4804.81
1236.26	4866.81
1235.35	4909.66
1234.43	4873.29
1233.52	4724.94
1232.6	4784.19
1231.69	4794.26
1230.77	4932.63
1229.86	4822.59
1228.94	4829.93
1228.02	4758.14
1227.11	4817.31
1226.19	4723.74
1225.27	4995.59
1224.36	4956.54
1223.44	4901.14
1222.52	4796.71
1221.6	4787.69
1220.69	4786.85
1219.77	4807.79
1218.85	4722.52
1217.93	4825.16
1217.01	4949.54
1216.1	4771.74
1215.18	4857.98
1214.26	4892.5
1213.34	4834.5
1212.42	4934.29
1211.5	4917.1
1210.58	4834.66
1209.66	4836.52
1208.74	4857.42
1207.82	4837.53
1206.9	4817.66
1205.98	4846.69
1205.06	4873
1204.14	4796.09
1203.22	4955.45
1202.3	4973.58
1201.38	4942.84
1200.46	4931.11
1199.54	4916.67
1198.61	5059.59
1197.69	4993.59
1196.77	5046.95
1195.85	4978.27
1194.93	4925.88
1194	5006.33
1193.08	5146.36
1192.16	4858.24
1191.24	4965.74
1190.31	4967.57
1189.39	4999.19
1188.47	5098.49
1187.54	5043.44
1186.62	5172.47
1185.7	5244.63
1184.77	5192.29
1183.85	5083.16
1182.92	5130.95
1182	5211.17
1181.07	5126.43
1180.15	5212.02
1179.23	5200.29
1178.3	5145.32
1177.37	5371.37
1176.45	5219.14
1175.52	4994.04
1174.6	5168.68
1173.67	5173.17
1172.75	5042.67
1171.82	5074.17
1170.89	5200.1
1169.97	5185.69
1169.04	5163.19
1168.11	5038.21
1167.19	5112.82
1166.26	5090.35
1165.33	5078.66
1164.4	5147.84
1163.48	5179.26
1162.55	4984.36
1161.62	5107.39
1160.69	5022.99
1159.76	5094.8
1158.83	4975.44
1157.91	5168.37
1156.98	5086.71
1156.05	4951.26
1155.12	5111.81
1154.19	4987.17
1153.26	5032
1152.33	5152.11
1151.4	4976.45
1150.47	5037.39
1149.54	5055.31
1148.61	5172.64
1147.68	5117.99
1146.75	5213.78
1145.82	5161.83
1144.89	5150.17
1143.96	4998.92
1143.02	5175.19
1142.09	5206.47
1141.16	5130.42
1140.23	5110.73
1139.3	5139.32
1138.36	5245.69
1137.43	5196.49
1136.5	5294.76
1135.57	5240.21
1134.63	5271.44
1133.7	5377.68
1132.77	5379.4
1131.83	5330.23
1130.9	5211.45
1129.97	5205.17
1129.03	5279.21
1128.1	5291.65
1127.17	5373.67
1126.23	5367.36
1125.3	5510.87
1124.36	5365.45
1123.43	5407.29
1122.49	5574.77
1121.56	5370.61
1120.62	5380.35
1119.69	5718.78
1118.75	5691.04
1117.81	5601.87
1116.88	5683.68
1115.94	5533.12
1115.01	5446.7
1114.07	5472.42
1113.13	5642.26
1112.2	5545.19
1111.26	5445.49
1110.32	5561.89
1109.38	5656.92
1108.45	5461.25
1107.51	5516.27
1106.57	5592.59
1105.63	5591.59
1104.69	5454.7
1103.76	5530.99
1102.82	5641.88
1101.88	5664.85
1100.94	5536.02
1100	5758.67
1099.06	5736.35
1098.12	5631.54
1097.18	5864.69
1096.24	5898.23
1095.3	5984.96
1094.36	5920.07
1093.42	5868.49
1092.48	5878.08
1091.54	5749.44
1090.6	5716.53
1089.66	5858.99
1088.72	5727.77
1087.78	5689.57
1086.84	5693.86
1085.9	5690.19
1084.95	5667.94
1084.01	5579.34
1083.07	5652.65
1082.13	5609.19
1081.19	5507.38
1080.24	5556.79
1079.3	5394.03
1078.36	5507.08
1077.41	5423.92
1076.47	5340.78
1075.53	5448.48
1074.58	5481.95
1073.64	5435.94
1072.7	5458.81
1071.75	5481.67
1070.81	5335.07
1069.86	5389.71
1068.92	5505.2
1067.98	5501.57
1067.03	5466.19
1066.09	5436.12
1065.14	5482.75
1064.19	5434.18
1063.25	5343.31
1062.3	5474.53
1061.36	5436.55
1060.41	5488.43
1059.46	5521.79
1058.52	5507.6
1057.57	5390.41
1056.63	5653.5
1055.68	5517.85
1054.73	5403.36
1053.78	5552.82
1052.84	5356.57
1051.89	5490.16
1050.94	5460.16
1049.99	5477.65
1049.05	5489.85
1048.1	5293.78
1047.15	5524.79
1046.2	5457.92
1045.25	5567.61
1044.3	5585.05
1043.35	5644.64
1042.4	5509.32
1041.45	5503.07
1040.5	5538.94
1039.55	5609.01
1038.6	5663.27
1037.65	5496.5
1036.7	5579.7
1035.75	5418.25
1034.8	5511.95
1033.85	5652.95
1032.9	5638.79
1031.95	5564.19
1031	5618.38
1030.05	5491.26
1029.1	5626.87
1028.14	5649.5
1027.19	5543.45
1026.24	5500.45
1025.29	5586.09
1024.33	5674.33
1023.38	5618.21
1022.43	5722.14
1021.48	5605.7
1020.52	5554.86
1019.57	5577.47
1018.62	5678.72
1017.66	5703.91
1016.71	5684.54
1015.75	5848.61
1014.8	5596.05
1013.85	5705.06
1012.89	5601.9
1011.94	5860.12
1010.98	5838.13
1010.03	5706.21
1009.07	5705.18
1008.12	5829.76
1007.16	5828.71
1006.2	5976.76
1005.25	5761.24
1004.29	5958.92
1003.34	5845.44
1002.38	5833.94
1001.42	6021.05
1000.47	5826.62
999.508	5909.17
998.551	5989.08
997.594	5941
996.636	5979.09
995.679	5962.36
994.721	5862.11
993.763	5897.59
992.805	5953.93
991.846	5986.77
990.888	5936.14
989.929	5929.86
988.97	5866.22
988.011	5797.39
987.052	5866.72
986.093	5870.88
985.133	5825.53
984.173	5798.44
983.213	5724.47
982.253	5926.55
981.293	5836.97
980.333	5833.31
979.372	5827.06
978.411	5849.43
977.45	5882.2
976.489	5836.92
975.528	5937.3
974.566	5894.63
973.605	5677.79
972.643	5713.16
971.681	5732.92
970.719	5809.84
969.756	5759.44
968.794	5851.91
967.831	5996.28
966.868	5761.52
965.905	5968.17
964.942	5850.29
963.979	5755.82
963.015	5993.48
962.052	5743.37
961.088	5801.99
960.124	5800.95
959.159	5856.94
958.195	5850.7
957.23	5914.44
956.266	5856.37
955.301	5821.63
954.336	5921.61
953.37	5967.16
952.405	5875.46
951.439	5996.08
950.473	5948.41
949.507	6048.27
948.541	5835
947.575	5940.02
946.608	5827.72
945.642	5945.64
944.675	5890.27
943.708	5927.98
942.741	5929.5
941.773	6008.54
940.806	5878.27
939.838	5869.46
938.87	5935.56
937.902	5833.77
936.934	5972.15
935.965	5986.56
934.997	5920.95
934.028	5919.88
933.059	5960.1
932.09	6067.37
931.121	5929.58
930.151	6083.23
929.182	6022.83
928.212	5959.88
927.242	6005.2
926.272	6040.19
925.301	5925.74
924.331	6032.86
923.36	5830.88
922.389	6004.93
921.418	6173.76
920.447	6064.54
919.475	5921.89
918.504	6124.1
917.532	6110.13
916.56	6173.34
915.588	6071.92
914.616	6024.54
913.643	6187.99
912.671	6019.8
911.698	6116.37
910.725	6161.51
909.752	6139.84
908.779	6071.95
907.805	6129.92
906.831	6169.9
905.858	6271.46
904.883	6167.66
903.909	6297.43
902.935	6232.14
901.96	6279.76
900.986	6183.72
900.011	6139.01
899.036	6253.28
898.06	6257.27
897.085	6289.46
896.109	6247.32
895.133	6261.56
894.157	6239.94
893.181	6323.33
892.205	6291.45
891.229	6231.43
890.252	6258.46
889.275	6334.11
888.298	6279.23
887.321	6377.86
886.343	6371.59
885.366	6393.46
884.388	6486.9
883.41	6444.83
882.432	6374.65
881.454	6450.16
880.475	6448.99
879.497	6437.61
878.518	6400.68
877.539	6460.81
876.56	6457.09
875.58	6440.6
874.601	6482.82
873.621	6384.68
872.641	6579.98
871.661	6530.32
870.681	6534.23
869.701	6540.7
868.72	6682.29
867.739	6678.53
866.758	6664.57
865.777	6688.85
864.796	6843.04
863.815	6905.48
862.833	7151.26
861.851	7379.13
860.869	7438.89
859.887	7727.72
858.905	7889.19
857.922	7783.44
856.939	7835.45
855.956	7694.13
854.973	7440.97
853.99	7307.41
853.007	7410.31
852.023	7200.55
851.039	6970.53
850.055	6971.81
849.071	6896.88
848.087	7015
847.102	6907.07
846.118	6829.65
845.133	6660.87
844.148	6842.4
843.163	6691.44
842.177	6832.3
841.192	6658.57
840.206	6680.19
839.22	6742.36
838.234	6700.58
837.248	6765.26
836.261	6733.62
835.274	6663.99
834.288	6584.24
833.301	6636.23
832.313	6619.83
831.326	6780.68
830.339	6711.09
829.351	6742.78
828.363	6771.92
827.375	6664.42
826.387	6670.8
825.398	6699.94
824.409	6625.38
823.421	6657.05
822.432	6744.31
821.443	6684.96
820.453	6676.16
819.464	6844.22
818.474	6734.35
817.484	6760.91
816.494	6815.23
815.504	6680.19
814.513	6812.75
813.523	6771.13
812.532	6737.1
811.541	6897.33
810.55	6797.7
809.559	6660.28
808.567	6694.37
807.575	6761.22
806.583	6626.4
805.591	6778.92
804.599	6760.05
803.607	6771.41
802.614	6795.36
801.621	6716.06
800.628	6792.89
799.635	6831.93
798.642	6762.73
797.649	6781.63
796.655	6843.29
795.661	6869.71
794.667	7031.93
793.673	6879.78
792.678	7016.8
791.684	6811.92
790.689	7041.89
789.694	6779.28
788.699	6858.44
787.704	6811.98
786.708	6770.55
785.713	6806.98
784.717	6840.89
783.721	6794.46
782.724	6725.46
781.728	6771.91
780.731	6748.09
779.735	6842.17
778.738	6891.08
777.741	6774.49
776.743	6778.27
775.746	6919.89
774.748	6898.58
773.75	6937.4
772.752	6845.96
771.754	6877.27
770.756	6901.05
769.757	6884.77
768.758	6700.79
767.759	6987.37
766.76	6896.01
765.761	6949.79
764.761	6936.02
763.762	6897.24
762.762	6918.48
761.762	7094.71
760.762	6783.48
759.761	6882.2
758.761	6781
757.76	6867.2
756.759	6858.45
755.758	7099.42
754.756	7030.71
753.755	6862.18
752.753	7060.59
751.751	6981.94
750.749	6910.81
749.747	6976.89
748.745	6791.06
747.742	7074.08
746.739	6953.12
745.736	7011.67
744.733	6905.72
743.73	6944.32
742.726	6913.16
741.723	7083.76
740.719	6885.73
739.715	6986.55
738.71	7176.96
737.706	7073.6
736.701	7132.02
735.697	6971.48
734.692	7037.37
733.686	7053.49
732.681	7228.76
731.675	7103.12
730.67	7047.13
729.664	6961.34
728.658	7151.4
727.651	7167.48
726.645	6979.88
725.638	7100.29
724.631	7173.48
723.624	7065.41
722.617	7071.56
721.61	7196.83
720.602	7235.21
719.595	7142.1
718.587	7068.86
717.578	7122.12
716.57	7237.35
715.562	7159.18
714.553	7222.3
713.544	7121.86
712.535	7145.33
711.526	7161.36
710.516	7212.05
709.507	7374.16
708.497	7298.54
707.487	7250.17
706.477	7285.96
705.467	7371.23
704.456	7562.84
703.445	7469.94
702.434	7636.73
701.423	7766.38
700.412	7443.57
699.401	7410.08
698.389	7475.44
697.377	7486.42
696.365	7425.76
695.353	7441.69
694.34	7262.52
693.328	7367.35
692.315	7287.01
691.302	7349.84
690.289	7407.71
689.276	7411.29
688.262	7441.99
687.249	7487.48
686.235	7251.86
685.221	7450.22
684.206	7310.81
683.192	7462.27
682.177	7490.46
681.162	7272.3
680.147	7258.64
679.132	7294.25
678.117	7519.43
677.101	7394.96
676.086	7501.89
675.07	7416.85
674.054	7442.55
673.037	7426.42
672.021	7402.92
671.004	7463.03
669.987	7525.58
668.97	7430.79
667.953	7505.61
666.936	7423.14
665.918	7495.48
664.9	7526.03
663.882	7301.17
662.864	7498.71
661.846	7531.7
660.827	7554.85
659.808	7362.05
658.789	7547.17
657.77	7464.82
656.751	7590.99
655.731	7557.71
654.712	7477.86
653.692	7550.02
652.672	7529.03
651.652	7397.77
650.631	7521.35
649.611	7610.6
648.59	7545.52
647.569	7536.79
646.548	7741.04
645.526	7575.62
644.505	7782.24
643.483	7626.66
642.461	7608.13
641.439	7812.18
640.417	7668.91
639.394	7701.72
638.371	7761.41
637.348	7706.21
636.325	7885.62
635.302	7906.16
634.279	8095.23
633.255	8450.31
632.231	8692.94
631.207	8644.95
630.183	8489.57
629.159	8353.78
628.134	7888.63
627.109	7838.39
626.084	7712.54
625.059	7737.95
624.034	7719.45
623.008	7769.22
621.983	7904.28
620.957	7832.15
619.931	7608.99
618.904	7834.13
617.878	7679.24
616.851	7872.63
615.824	7817.61
614.797	7913.54
613.77	7807.43
612.743	7788.95
611.715	7731.56
610.687	7790.94
609.659	7680.06
608.631	7761.31
607.603	7764.74
606.574	7700.11
605.546	7888.24
604.517	7507.75
603.487	7693.41
602.458	7789.14
601.429	7850.84
600.399	7769.27
599.369	7818.81
598.339	7994.53
597.309	7825.62
596.278	7802.34
595.248	7832.43
594.217	8008.02
593.186	7967.74
592.155	7905.66
591.123	7775.74
590.091	7800.95
589.06	7775.28
588.028	7771.42
586.996	7823.27
585.963	7739.48
584.931	7747.74
583.898	7755.99
582.865	7916.71
581.832	7796.67
580.798	7795.23
579.765	7832.49
578.731	7893.92
577.697	8127
576.663	7997.37
575.629	7889.53
574.594	7999.24
573.56	7978.43
572.525	7877.9
571.49	7931.99
570.455	7846
569.419	7810.75
568.384	7826.2
567.348	7935.77
566.312	7799.17
565.276	8055.87
564.239	7955.48
563.203	7954.01
562.166	7815.09
561.129	8074.01
560.092	8084.57
559.054	8097.53
558.017	8197.23
556.979	8082.48
555.941	8143.6
554.903	8130.05
553.865	7940.74
552.826	8088.52
551.787	7872.81
550.749	7883.38
549.709	7958.91
548.67	7707.26
547.631	7794.81
546.591	7875.12
545.551	7957.81
544.511	7934.7
543.471	8026.95
542.43	8006.24
541.39	8110.46
540.349	8190.62
539.308	8157.88
538.267	8086.73
537.225	8114.04
536.184	7886.91
535.142	7861.45
534.1	8131.11
533.058	7961.68
532.015	8070.53
530.973	7937.14
529.93	7801.41
528.887	7905.43
527.844	7927.92
526.801	7847.38
525.757	7807.59
524.713	7791.76
523.669	7790.31
522.625	8061.82
521.581	8124.96
520.537	7800.33
519.492	8114.76
518.447	8228.09
517.402	8116.53
516.357	8138.93
515.311	8135.03
514.265	7927.9
513.22	7916.87
512.174	7819.8
511.127	7706.04
510.081	7761.94
509.034	7626.74
507.987	7501.13
506.94	7740.89
505.893	7577.12
504.846	7618.67
503.798	7796.23
502.75	7735.13
501.702	7914.98
500.654	7985.06
499.606	8033.65
