3200.54	29.4685
3199.95	37.8881
3199.35	29.4641
3198.76	25.2511
3198.16	71.534
3197.57	63.1087
3196.98	33.6529
3196.38	33.6478
3195.79	21.0267
3195.19	50.4564
3194.6	37.8366
3194	25.2206
3193.41	54.6364
3192.81	33.6173
3192.22	50.4183
3191.62	54.6116
3191.03	29.4018
3190.43	54.5951
3189.84	46.1888
3189.24	46.1818
3188.65	29.384
3188.05	41.9708
3187.45	58.7502
3186.86	29.3707
3186.26	37.7566
3185.67	62.9181
3185.07	33.5512
3184.47	50.3192
3183.88	16.7705
3183.28	20.96
3182.69	50.2964
3182.09	50.2888
3181.49	50.2812
3180.9	33.5157
3180.3	62.8325
3179.7	50.2584
3179.1	58.6259
3178.51	46.0562
3177.91	33.4904
3177.31	54.4136
3176.72	66.9604
3176.12	46.0283
3175.52	58.5726
3174.92	62.7469
3174.33	37.6424
3173.73	50.1823
3173.13	29.2686
3172.53	29.2642
3171.93	41.7996
3171.34	33.4346
3170.74	25.0722
3170.14	37.6025
3169.54	37.5968
3168.94	33.4144
3168.34	54.2901
3167.74	75.1595
3167.15	54.2737
3166.55	45.9169
3165.95	58.4308
3165.35	37.557
3164.75	41.7237
3164.15	33.3739
3163.55	45.8821
3162.95	33.3638
3162.35	41.6984
3161.75	54.1997
3161.15	37.5172
3160.55	29.1756
3159.95	45.8404
3159.35	50.0001
3158.75	54.1586
3158.15	70.812
3157.55	45.8126
3156.95	37.4774
3156.35	41.6352
3155.75	41.6289
3155.15	62.4339
3154.55	45.7779
3153.95	66.5759
3153.35	41.6036
3152.75	62.396
3152.15	41.591
3151.54	33.2678
3150.94	45.7362
3150.34	41.5721
3149.74	45.7224
3149.14	41.5595
3148.54	33.2425
3147.94	54.0109
3147.33	49.8487
3146.73	66.4548
3146.13	24.9168
3145.53	45.6738
3144.93	70.5761
3144.32	66.4145
3143.72	33.2022
3143.12	74.6936
3142.52	29.0431
3141.91	33.1871
3141.31	66.3641
3140.71	62.2069
3140.1	45.6114
3139.5	78.7714
3138.9	45.5976
3138.29	49.7353
3137.69	49.7277
3137.09	20.7167
3136.48	74.5689
3135.88	49.7051
3135.28	24.8488
3134.67	53.8308
3134.07	37.2618
3133.47	62.0936
3132.86	66.2231
3132.26	33.1065
3131.65	53.7899
3131.05	74.467
3130.45	74.4557
3129.84	53.7654
3129.24	53.7572
3128.63	49.6145
3128.03	49.607
3127.42	53.7327
3126.82	57.8572
3126.21	66.1125
3125.61	61.971
3125	57.8308
3124.4	57.822
3123.79	78.4608
3123.19	49.5467
3122.58	20.6413
3121.97	45.404
3121.37	37.1431
3120.76	45.3902
3120.16	66.012
3119.55	57.7517
3118.94	37.1205
3118.34	57.7342
3117.73	53.6022
3117.13	53.594
3116.52	65.9518
3115.91	45.335
3115.31	61.811
3114.7	74.1619
3114.09	94.748
3113.48	53.5451
3112.88	49.4187
3112.27	65.8816
3111.66	61.7546
3111.06	24.6981
3110.45	53.5044
3109.84	69.9566
3109.23	57.6025
3108.63	90.5045
3108.02	94.6039
3107.41	69.914
3106.8	61.6794
3106.19	37.002
3105.59	82.2142
3104.98	86.3118
3104.37	78.0797
3103.76	65.7413
3103.15	53.4067
3102.54	65.7213
3101.93	90.353
3101.33	69.8076
3100.72	78.0084
3100.11	53.366
3099.5	61.5668
3098.89	73.8689
3098.28	49.2385
3097.67	65.6413
3097.06	73.8352
3096.45	69.7226
3095.84	49.2084
3095.23	73.8014
3094.62	57.3924
3094.01	114.767
3093.4	73.7677
3092.79	53.2685
3092.18	65.5513
3091.57	69.6376
3090.96	98.297
3090.35	81.9017
3089.74	90.0781
3089.13	110.534
3088.52	102.33
3087.91	69.574
3087.3	85.9312
3086.69	110.466
3086.08	81.8143
3085.46	102.252
3084.85	110.416
3084.24	98.1322
3083.63	106.294
3083.02	102.19
3082.41	118.522
3081.79	130.763
3081.18	114.4
3080.57	126.638
3079.96	122.534
3079.35	77.5933
3078.73	155.163
3078.12	167.387
3077.51	122.46
3076.9	130.604
3076.28	138.745
3075.67	114.243
3075.06	142.782
3074.45	89.7352
3073.83	81.565
3073.22	118.251
3072.61	85.6171
3071.99	105.986
3071.38	105.97
3070.77	93.7282
3070.15	101.863
3069.54	97.7735
3068.93	77.3922
3068.31	77.3803
3067.7	93.6566
3067.08	89.5709
3066.47	97.6988
3065.86	85.4734
3065.24	73.2517
3064.63	93.5851
3064.01	73.2294
3063.4	85.4212
3062.78	69.1399
3062.17	81.3287
3061.55	77.2504
3060.94	97.5646
3060.32	105.679
3059.71	73.1511
3059.09	65.0132
3058.48	81.2541
3057.86	85.3038
3057.25	97.4752
3056.63	81.2169
3056.02	93.3851
3055.4	56.8344
3054.78	69.0027
3054.17	93.3423
3053.55	101.444
3052.94	48.6855
3052.32	97.356
3051.7	77.0617
3051.09	77.0499
3050.47	72.9835
3049.85	56.7563
3049.24	77.0146
3048.62	72.95
3048	89.1475
3047.39	64.8246
3046.77	68.8657
3046.15	89.1066
3045.53	117.441
3044.92	64.785
3044.3	93.1142
3043.68	89.0521
3043.06	64.7553
3042.45	76.8851
3041.83	89.0112
3041.21	60.6802
3040.59	93.0287
3039.97	105.147
3039.35	64.6958
3038.74	80.8574
3038.12	84.8873
3037.5	80.8327
3036.88	76.7793
3036.26	92.9291
3035.64	84.8353
3035.02	80.7832
3034.41	88.8479
3033.79	88.8343
3033.17	80.7461
3032.55	76.697
3031.93	84.7574
3031.31	76.6735
3030.69	80.6966
3030.07	112.958
3029.45	84.7055
3028.83	52.4287
3028.21	100.809
3027.59	76.6031
3026.97	72.5602
3026.35	76.5796
3025.73	60.4483
3025.11	56.4098
3024.49	84.6017
3023.87	100.701
3023.25	76.521
3022.63	56.3752
3022	80.5237
3021.38	100.639
3020.76	72.4491
3020.14	96.584
3019.52	96.5692
3018.9	80.462
3018.28	104.585
3017.66	80.4373
3017.03	100.531
3016.41	112.578
3015.79	84.4203
3015.17	92.4462
3014.55	92.432
3013.92	100.454
3013.3	84.3686
3012.68	108.457
3012.06	80.3264
3011.43	144.565
3010.81	76.2866
3010.19	116.42
3009.57	92.3187
3008.94	88.2913
3008.32	88.2777
3007.7	112.336
3007.07	96.2734
3006.45	104.28
3005.83	108.274
3005.2	100.239
3004.58	80.1786
3003.96	112.233
3003.33	104.2
3002.71	96.17
3002.08	88.1423
3001.46	104.152
3000.84	104.136
3000.21	64.074
2999.59	120.12
2998.96	88.0747
2998.34	116.081
2997.71	132.071
2997.09	120.047
2996.46	100.023
2995.84	104.008
2995.21	83.9939
2994.59	99.9773
2993.96	99.962
2993.34	119.936
2992.71	119.918
2992.09	115.902
2991.46	99.9006
2990.84	95.8898
2990.21	135.823
2989.58	99.8545
2988.96	127.794
2988.33	119.789
2987.71	87.8315
2987.08	119.752
2986.45	87.8045
2985.83	75.8195
2985.2	147.626
2984.57	99.7318
2983.95	99.7165
2983.32	103.689
2982.69	95.6984
2982.07	127.578
2981.44	127.559
2980.81	119.568
2980.18	123.534
2979.56	83.6717
2978.93	119.513
2978.3	107.545
2977.67	119.476
2977.05	103.53
2976.42	127.402
2975.79	127.382
2975.16	115.422
2974.53	163.158
2973.91	131.302
2973.28	123.326
2972.65	107.396
2972.02	155.104
2971.39	135.198
2970.76	166.983
2970.13	119.256
2969.5	103.339
2968.88	143.063
2968.25	150.987
2967.62	115.209
2966.99	135.052
2966.36	142.975
2965.73	150.894
2965.1	131.02
2964.47	182.605
2963.84	142.886
2963.21	158.738
2962.58	158.714
2961.95	162.657
2961.32	162.632
2960.69	146.743
2960.06	142.754
2959.43	138.768
2958.8	142.711
2958.17	150.616
2957.53	154.555
2956.9	174.343
2956.27	174.317
2955.64	114.873
2955.01	158.421
2954.38	150.477
2953.75	158.372
2953.12	138.554
2952.48	114.784
2951.85	158.299
2951.22	162.231
2950.59	130.556
2949.96	94.9353
2949.33	150.291
2948.69	181.903
2948.06	166.06
2947.43	126.502
2946.8	146.246
2946.16	130.415
2945.53	106.687
2944.9	126.424
2944.26	134.305
2943.63	142.184
2943	165.855
2942.37	114.501
2941.73	177.647
2941.1	114.466
2940.47	134.181
2939.83	153.89
2939.2	130.194
2938.56	126.23
2937.93	161.707
2937.3	149.851
2936.66	149.828
2936.03	137.978
2935.39	114.307
2934.76	110.349
2934.13	145.795
2933.49	141.833
2932.86	141.811
2932.22	98.4647
2931.59	145.705
2930.95	137.808
2930.32	129.913
2929.68	133.829
2929.05	149.551
2928.41	121.983
2927.78	125.899
2927.14	114.078
2926.5	110.127
2925.87	114.043
2925.23	137.617
2924.6	102.214
2923.96	141.505
2923.32	137.553
2922.69	145.391
2922.05	133.582
2921.42	125.704
2920.78	133.54
2920.14	98.1762
2919.51	109.94
2918.87	129.553
2918.23	117.757
2917.6	117.739
2916.96	113.796
2916.32	125.549
2915.68	141.221
2915.05	125.51
2914.41	141.177
2913.77	141.155
2913.13	129.372
2912.5	121.513
2911.86	141.09
2911.22	121.475
2910.58	90.1129
2909.94	109.686
2909.31	176.253
2908.67	172.31
2908.03	184.03
2907.39	148.767
2906.75	148.744
2906.11	152.635
2905.47	156.524
2904.83	133.025
2904.2	187.771
2903.56	160.363
2902.92	164.249
2902.28	144.673
2901.64	109.465
2901	140.719
2900.36	156.331
2899.72	148.491
2899.08	168.003
2898.44	140.632
2897.8	160.14
2897.16	136.684
2896.52	156.186
2895.88	128.833
2895.24	136.62
2894.6	144.405
2893.96	117.067
2893.32	140.458
2892.67	156.041
2892.03	117.012
2891.39	148.193
2890.75	128.674
2890.11	152.045
2889.47	128.634
2888.83	136.409
2888.19	128.594
2887.54	171.432
2886.9	132.45
2886.26	151.904
2885.62	136.303
2884.98	151.857
2884.33	163.513
2883.69	151.81
2883.05	140.111
2882.41	163.437
2881.77	120.613
2881.12	124.485
2880.48	124.466
2879.84	136.113
2879.19	159.422
2878.55	128.295
2877.91	155.485
2877.26	128.256
2876.62	139.894
2875.98	167.069
2875.33	139.85
2874.69	159.249
2874.05	139.807
2873.4	143.668
2872.76	159.175
2872.11	128.097
2871.47	131.958
2870.83	135.818
2870.18	155.196
2869.54	131.896
2868.89	131.876
2868.25	166.758
2867.6	151.223
2866.96	166.707
2866.31	124.042
2865.67	162.779
2865.02	155.004
2864.38	127.858
2863.73	127.838
2863.09	170.425
2862.44	166.526
2861.8	154.884
2861.15	147.117
2860.5	178.061
2859.86	154.811
2859.21	147.048
2858.57	150.894
2857.92	143.134
2857.27	185.658
2856.63	170.16
2855.98	181.734
2855.33	185.572
2854.69	154.619
2854.04	173.92
2853.39	162.3
2852.75	150.684
2852.1	135.208
2851.45	177.674
2850.81	169.923
2850.16	169.896
2849.51	150.567
2848.86	181.424
2848.21	154.379
2847.57	142.779
2846.92	162.048
2846.27	146.592
2845.62	169.712
2844.97	165.829
2844.33	146.524
2843.68	185.054
2843.03	154.187
2842.38	169.58
2841.73	161.846
2841.08	161.821
2840.43	161.796
2839.78	157.919
2839.14	154.044
2838.49	157.87
2837.84	204.044
2837.19	153.972
2836.54	173.191
2835.89	184.709
2835.24	169.29
2834.59	150.029
2833.94	196.161
2833.29	184.594
2832.64	180.72
2831.99	153.78
2831.34	184.508
2830.69	149.889
2830.04	169.079
2829.39	153.684
2828.74	176.71
2828.08	176.682
2827.43	203.537
2826.78	149.749
2826.13	172.761
2825.48	161.218
2824.83	153.517
2824.18	157.331
2823.53	164.98
2822.87	172.626
2822.22	195.612
2821.57	145.728
2820.92	164.877
2820.27	141.849
2819.61	153.326
2818.96	164.8
2818.31	183.934
2817.66	157.086
2817	183.877
2816.35	195.338
2815.7	183.819
2815.05	191.449
2814.39	183.762
2813.74	187.561
2813.09	210.495
2812.43	218.115
2811.78	218.081
2811.13	191.27
2810.47	168.291
2809.82	183.562
2809.16	179.709
2808.51	210.265
2807.86	191.121
2807.2	175.804
2806.55	198.704
2805.89	191.031
2805.24	183.361
2804.58	183.333
2803.93	179.485
2803.28	160.366
2802.62	175.612
2801.97	194.67
2801.31	183.19
2800.66	190.793
2800	217.47
2799.34	213.622
2798.69	183.076
2798.03	224.995
2797.38	224.96
2796.72	141.055
2796.07	198.208
2795.41	224.855
2794.75	190.525
2794.1	198.115
2793.44	179.038
2792.79	198.054
2792.13	213.255
2791.47	213.222
2790.82	213.189
2790.16	220.768
2789.5	205.511
2788.84	201.673
2788.19	167.401
2787.53	190.198
2786.87	201.579
2786.22	216.759
2785.56	193.912
2784.9	216.691
2784.24	205.254
2783.59	216.623
2782.93	178.591
2782.27	186.162
2781.61	243.112
2780.95	208.892
2780.29	208.859
2779.64	205.03
2778.98	227.775
2778.32	220.148
2777.66	185.958
2777	239.052
2776.34	231.427
2775.68	223.804
2775.02	201.013
2774.36	193.397
2773.71	212.324
2773.05	200.919
2772.39	197.097
2771.73	219.804
2771.07	227.348
2770.41	185.639
2769.75	227.277
2769.09	219.667
2768.43	238.566
2767.77	223.384
2767.11	204.422
2766.45	181.68
2765.79	230.848
2765.12	200.542
2764.46	208.077
2763.8	238.305
2763.14	219.358
2762.48	226.886
2761.82	204.166
2761.16	219.255
2760.5	238.119
2759.83	241.861
2759.17	230.487
2758.51	241.785
2757.85	245.525
2757.19	219.049
2756.53	245.448
2755.86	203.878
2755.2	222.721
2754.54	188.717
2753.88	256.615
2753.21	233.936
2752.55	226.354
2751.89	215.003
2751.23	267.769
2750.56	241.331
2749.9	271.455
2749.24	252.565
2748.57	248.756
2747.91	237.412
2747.25	237.374
2746.58	218.501
2745.92	244.833
2745.25	218.433
2744.59	203.336
2743.93	240.953
2743.26	248.444
2742.6	252.169
2741.93	255.893
2741.27	221.99
2740.61	214.431
2739.94	225.682
2739.28	248.211
2738.61	240.652
2737.95	229.335
2737.28	221.781
2736.62	210.471
2735.95	244.259
2735.29	225.434
2734.62	236.669
2733.95	236.632
2733.29	255.372
2732.62	244.067
2731.96	255.292
2731.29	217.715
2730.62	206.421
2729.96	247.666
2729.29	292.651
2728.63	266.346
2727.96	273.805
2727.29	266.262
2726.63	243.723
2725.96	247.433
2725.29	209.911
2724.62	262.347
2723.96	266.053
2723.29	213.558
2722.62	243.493
2721.96	220.982
2721.29	269.631
2720.62	250.867
2719.95	243.34
2719.28	262.018
2718.62	232.036
2717.95	235.742
2717.28	273.118
2716.61	235.668
2715.94	209.45
2715.27	261.771
2714.61	246.774
2713.94	224.305
2713.27	265.386
2712.6	276.556
2711.93	239.146
2711.26	254.052
2710.59	242.806
2709.92	246.503
2709.25	231.527
2708.58	220.289
2707.91	250.12
2707.24	272.476
2706.57	242.577
2705.9	261.196
2705.23	257.424
2704.56	279.765
2703.89	242.425
2703.22	238.658
2702.55	253.534
2701.88	301.956
2701.21	253.454
2700.54	219.874
2699.87	294.361
2699.2	249.609
2698.53	264.47
2697.86	294.223
2697.19	297.9
2696.51	275.514
2695.84	241.968
2695.17	286.594
2694.5	308.877
2693.83	327.432
2693.15	279.018
2692.48	260.376
2691.81	282.649
2691.14	256.575
2690.47	319.739
2689.79	286.233
2689.12	271.321
2688.45	297.291
2687.77	282.382
2687.1	289.768
2686.43	286.008
2685.76	263.68
2685.08	263.639
2684.41	293.298
2683.74	282.116
2683.06	322.897
2682.39	300.581
2681.71	319.086
2681.04	307.906
2680.37	248.512
2679.69	233.638
2679.02	285.513
2678.34	270.638
2677.67	278.009
2676.99	277.966
2676.32	277.922
2675.65	281.583
2674.97	263.016
2674.3	274.087
2673.62	277.747
2672.95	311.027
2672.27	307.276
2671.59	240.6
2670.92	288.675
2670.24	259.026
2669.57	295.983
2668.89	321.831
2668.22	266.301
2667.54	321.73
2666.86	329.074
2666.19	262.478
2665.51	284.614
2664.83	343.701
2664.16	317.781
2663.48	277.091
2662.8	302.905
2662.13	288.083
2661.45	295.424
2660.77	284.3
2660.1	306.405
2659.42	313.739
2658.74	313.69
2658.06	302.57
2657.39	339.416
2656.71	284.031
2656.03	291.363
2655.35	306.067
2654.68	346.576
2654	317.03
2653.32	302.236
2652.64	309.559
2651.96	313.195
2651.28	331.566
2650.6	353.614
2649.93	305.681
2649.25	316.68
2648.57	342.402
2647.89	298.174
2647.21	312.849
2646.53	287.04
2645.85	301.712
2645.17	297.986
2644.49	312.652
2643.81	316.28
2643.13	345.647
2642.45	345.592
2641.77	334.51
2641.09	301.379
2640.41	312.355
2639.73	304.958
2639.05	341.645
2638.37	341.592
2637.69	348.882
2637.01	312.109
2636.33	345.101
2635.65	289.986
2634.96	286.27
2634.28	337.598
2633.6	381.572
2632.92	315.481
2632.24	330.103
2631.56	348.386
2630.88	322.665
2630.19	329.946
2629.51	315.232
2628.83	362.826
2628.15	311.468
2627.46	318.746
2626.78	304.043
2626.1	318.645
2625.42	336.905
2624.73	347.836
2624.05	358.763
2623.37	300.142
2622.69	358.65
2622	358.593
2621.32	347.561
2620.64	358.48
2619.95	354.766
2619.27	314.485
2618.58	361.966
2617.9	383.842
2617.22	343.576
2616.53	350.831
2615.85	401.93
2615.16	368.986
2614.48	310.484
2613.79	332.348
2613.11	335.947
2612.43	365.101
2611.74	372.345
2611.06	372.286
2610.37	441.563
2609.69	397.709
2609	339.276
2608.31	382.992
2607.63	368.344
2606.94	419.335
2606.26	364.581
2605.57	360.878
2604.89	368.111
2604.2	386.273
2603.51	353.42
2602.83	313.292
2602.14	316.884
2601.45	386.028
2600.77	342.272
2600.08	378.624
2599.39	389.484
2598.71	360.307
2598.02	356.611
2597.33	356.554
2596.65	421.977
2595.96	410.999
2595.27	370.931
2594.58	352.692
2593.9	381.72
2593.21	385.294
2592.52	359.793
2591.83	348.835
2591.14	374.212
2590.46	377.785
2589.77	392.253
2589.08	355.877
2588.39	392.128
2587.7	359.394
2587.01	384.745
2586.32	399.2
2585.64	413.651
2584.95	362.794
2584.26	420.774
2583.57	351.798
2582.88	424.267
2582.19	348.061
2581.5	358.881
2580.81	387.82
2580.12	355.143
2579.43	376.827
2578.74	434.731
2578.05	383.951
2577.36	383.891
2576.67	409.177
2575.98	351.184
2575.29	409.047
2574.6	390.885
2573.91	401.679
2573.22	379.907
2572.52	368.994
2571.83	401.488
2571.14	412.274
2570.45	386.897
2569.76	368.759
2569.07	408.462
2568.38	354.186
2567.68	408.333
2566.99	375.751
2566.3	375.691
2565.61	375.631
2564.92	422.518
2564.22	397.176
2563.53	371.842
2562.84	389.831
2562.14	407.814
2561.45	396.924
2560.76	414.9
2560.07	396.798
2559.37	425.588
2558.68	403.884
2557.99	414.636
2557.29	447.015
2556.6	407.295
2555.91	382.004
2555.21	399.959
2554.52	407.101
2553.82	396.23
2553.13	450.19
2552.44	428.512
2551.74	381.639
2551.05	406.777
2550.35	439.106
2549.66	406.648
2548.96	402.985
2548.27	399.323
2547.57	413.648
2546.88	492.702
2546.18	355.983
2545.49	442.212
2544.79	373.843
2544.1	402.536
2543.4	391.692
2542.7	449.116
2542.01	384.382
2541.31	409.464
2540.62	409.398
2539.92	384.199
2539.22	466.709
2538.53	387.666
2537.83	412.727
2537.13	455.721
2536.44	409.007
2535.74	473.512
2535.04	426.81
2534.35	405.226
2533.65	441.016
2532.95	430.191
2532.25	405.032
2531.56	473.06
2530.86	451.485
2530.16	426.334
2529.46	494.326
2528.76	433.362
2528.07	408.226
2527.37	451.125
2526.67	443.894
2525.97	443.823
2525.27	458.067
2524.57	457.994
2523.88	457.921
2523.18	432.809
2522.48	439.893
2521.78	482.732
2521.08	464.779
2520.38	428.958
2519.68	396.723
2518.98	446.689
2518.28	443.045
2517.58	464.409
2516.88	403.614
2516.18	460.689
2515.48	507.034
2514.78	456.972
2514.08	442.621
2513.38	431.844
2512.68	421.069
2511.98	449.545
2511.28	478.011
2510.58	456.535
2509.88	463.594
2509.17	459.954
2508.47	506.226
2507.77	466.936
2507.07	466.862
2506.37	452.534
2505.67	473.838
2504.97	445.265
2504.26	484.371
2503.56	462.928
2502.86	452.173
2502.16	455.661
2501.45	466.266
2500.75	455.515
2500.05	455.442
2499.35	476.715
2498.64	515.766
2497.94	462.337
2497.24	448.04
2496.53	494.187
2495.83	476.334
2495.13	458.487
2494.42	515.272
2493.72	497.424
2493.02	500.897
2492.31	529.232
2491.61	458.121
2490.9	443.845
2490.2	472.175
2489.5	511.146
2488.79	454.279
2488.09	482.594
2487.38	425.75
2486.68	510.819
2485.97	482.363
2485.27	496.471
2484.56	496.391
2483.86	475.041
2483.15	524.589
2482.45	492.609
2481.74	467.727
2481.04	467.652
2480.33	439.239
2479.62	488.752
2478.92	492.215
2478.21	499.217
2477.51	513.297
2476.8	530.912
2476.09	467.128
2475.39	481.206
2474.68	481.129
2473.97	512.887
2473.27	541.097
2472.56	466.754
2471.85	445.467
2471.14	526.698
2470.44	537.217
2469.73	519.462
2469.02	519.379
2468.31	533.426
2467.61	487.424
2466.9	550.913
2466.19	451.958
2465.48	469.538
2464.77	504.76
2464.07	561.147
2463.36	529.299
2462.65	479.821
2461.94	455.052
2461.23	529.045
2460.52	528.96
2459.81	486.565
2459.1	486.487
2458.4	542.805
2457.69	503.952
2456.98	539.107
2456.27	535.498
2455.56	521.322
2454.85	510.673
2454.14	496.506
2453.43	545.717
2452.72	492.826
2452.01	520.904
2451.3	577.126
2450.59	489.071
2449.88	534.725
2449.16	580.365
2448.45	545.104
2447.74	530.952
2447.03	562.508
2446.32	537.812
2445.61	558.813
2444.9	484.93
2444.19	512.959
2443.47	530.441
2442.76	502.258
2442.05	540.806
2441.34	551.253
2440.63	544.143
2439.91	519.485
2439.2	561.516
2438.49	600.024
2437.78	561.335
2437.06	512.136
2436.35	547.126
2435.64	575.092
2434.93	539.938
2434.21	522.324
2433.5	564.3
2432.79	592.244
2432.07	557.111
2431.36	543.008
2430.64	525.407
2429.93	577.855
2429.22	560.255
2428.5	546.16
2427.79	563.575
2427.07	601.983
2426.36	573.892
2425.65	545.809
2424.93	612.188
2424.22	608.592
2423.5	545.546
2422.79	569.934
2422.07	594.315
2421.36	552.274
2420.64	566.165
2419.92	618.488
2419.21	562.489
2418.49	530.96
2417.78	551.83
2417.06	653.011
2416.35	523.721
2415.63	596.946
2414.91	593.36
2414.2	575.815
2413.48	603.636
2412.76	568.653
2412.05	551.121
2411.33	599.858
2410.61	571.865
2409.9	596.178
2409.18	582.139
2408.46	627.354
2407.74	574.982
2407.03	567.921
2406.31	599.182
2405.59	647.849
2404.87	557.199
2404.16	567.556
2403.44	598.797
2402.72	616.104
2402	650.808
2401.28	598.507
2400.56	567.099
2399.85	587.879
2399.13	626.042
2398.41	643.329
2397.69	591.072
2396.97	573.595
2396.25	559.6
2395.53	622.063
2394.81	621.963
2394.09	597.544
2393.37	618.289
2392.65	600.825
2391.93	600.728
2391.21	579.8
2390.49	628.305
2389.77	610.85
2389.05	589.93
2388.33	593.305
2387.61	568.926
2386.89	693.7
2386.17	627.697
2385.45	644.933
2384.73	617.094
2384	675.921
2383.28	672.347
2382.56	630.657
2381.84	654.807
2381.12	658.165
2380.4	554.155
2379.67	578.306
2378.95	609.374
2378.23	661.203
2377.51	609.178
2376.79	584.855
2376.06	615.901
2375.34	660.776
2374.62	643.375
2373.9	594.852
2373.17	584.383
2372.45	643.063
2371.73	677.527
2371	632.487
2370.28	660.03
2369.56	611.552
2368.83	642.544
2368.11	645.895
2367.38	604.349
2366.66	666.403
2365.94	576.536
2365.21	659.285
2364.49	704.044
2363.76	659.072
2363.04	665.865
2362.31	658.859
2361.59	693.242
2360.86	600.023
2360.14	655.092
2359.41	665.328
2358.69	627.306
2357.96	647.882
2357.24	637.44
2356.51	661.453
2355.79	668.235
2355.06	650.907
2354.33	650.802
2353.61	657.583
2352.88	729.764
2352.15	719.321
2351.43	677.911
2350.7	701.886
2349.98	657.051
2349.25	615.671
2348.52	708.423
2347.79	687.678
2347.07	666.94
2346.34	656.52
2345.61	718.275
2344.88	594.457
2344.16	666.509
2343.43	693.881
2342.7	697.204
2341.97	673.053
2341.25	683.244
2340.52	710.597
2339.79	676.159
2339.06	679.481
2338.33	682.802
2337.6	751.304
2336.87	710.022
2336.14	682.471
2335.42	720.079
2334.69	767.96
2333.96	781.547
2333.23	733.438
2332.5	723.039
2331.77	695.513
2331.04	657.719
2330.31	643.912
2329.58	756.816
2328.85	719.03
2328.12	742.878
2327.39	773.563
2326.66	681.036
2325.93	739.095
2325.2	677.394
2324.47	735.435
2323.73	752.416
2323	759.133
2322.27	752.172
2321.54	693.938
2320.81	751.929
2320.08	734.72
2319.35	738.018
2318.61	751.563
2317.88	707.038
2317.15	693.263
2316.42	751.198
2315.69	730.592
2314.95	744.127
2314.22	699.639
2313.49	737.062
2312.76	699.413
2312.02	753.879
2311.29	760.578
2310.56	753.634
2309.82	739.874
2309.09	729.527
2308.36	729.408
2307.62	736.106
2306.89	678.062
2306.16	763.121
2305.42	766.404
2304.69	773.091
2303.95	786.586
2303.22	779.649
2302.48	735.27
2301.75	731.747
2301.02	789.478
2300.28	717.9
2299.55	758.606
2298.81	744.878
2298.08	788.966
2297.34	771.837
2296.6	805.708
2295.87	747.793
2295.13	751.07
2294.4	825.703
2293.66	761.018
2292.93	777.879
2292.19	760.771
2291.45	747.065
2290.72	770.71
2289.98	719.665
2289.24	794.218
2288.51	794.089
2287.77	766.816
2287.03	722.59
2286.3	786.918
2285.56	766.442
2284.82	742.582
2284.08	793.315
2283.35	786.407
2282.61	732.053
2281.87	759.043
2281.13	758.919
2280.4	792.671
2279.66	802.703
2278.92	734.845
2278.18	829.528
2277.44	737.991
2276.7	758.179
2275.97	781.745
2275.23	832.373
2274.49	801.789
2273.75	754.304
2273.01	879.314
2272.27	845.357
2271.53	855.362
2270.79	797.757
2270.05	865.223
2269.31	800.877
2268.57	831.155
2267.83	776.969
2267.09	884.926
2266.35	820.618
2265.61	918.402
2264.87	820.351
2264.13	830.343
2263.39	847.082
2262.65	860.442
2261.91	826.564
2261.17	829.803
2260.42	802.687
2259.68	829.533
2258.94	873.228
2258.2	889.94
2257.46	835.868
2256.72	818.883
2255.97	872.659
2255.23	848.935
2254.49	892.584
2253.75	865.497
2253	851.888
2252.26	834.916
2251.52	908.833
2250.78	854.837
2250.03	847.968
2249.29	847.829
2248.55	844.327
2247.8	854.28
2247.06	887.768
2246.32	820.379
2245.57	931.18
2244.83	857.084
2244.09	863.665
2243.34	897.125
2242.6	849.946
2241.85	779.27
2241.11	853.027
2240.36	836.099
2239.62	856.106
2238.88	855.967
2238.13	889.389
2237.39	852.332
2236.64	845.483
2235.89	902.372
2235.15	872.039
2234.4	845.069
2233.66	915.342
2232.91	942.011
2232.17	894.932
2231.42	938.353
2230.67	871.185
2229.93	904.545
2229.18	874.251
2228.44	880.806
2227.69	947.633
2226.94	883.866
2226.2	927.239
2225.45	903.659
2224.7	910.204
2223.95	930.13
2223.21	856.383
2222.46	893.035
2221.71	943.052
2220.96	909.461
2220.22	936.057
2219.47	899.137
2218.72	885.622
2217.97	912.209
2217.22	928.764
2216.48	941.974
2215.73	975.218
2214.98	971.719
2214.23	944.851
2213.48	951.373
2212.73	967.905
2211.98	927.702
2211.23	910.868
2210.48	890.703
2209.73	897.229
2208.98	887.077
2208.23	916.941
2207.48	1006.8
2206.73	956.64
2205.98	999.809
2205.23	996.313
2204.48	946.176
2203.73	962.677
2202.98	905.901
2202.23	972.352
2201.48	998.828
2200.73	965.376
2199.98	988.517
2199.23	1001.67
2198.48	971.557
2197.72	984.705
2196.97	901.39
2196.22	1060.87
2195.47	980.896
2194.72	980.736
2193.97	1047.05
2193.21	943.857
2192.46	953.671
2191.71	986.739
2190.96	946.715
2190.2	1042.88
2189.45	919.84
2188.7	1059.14
2187.94	1005.85
2187.19	942.621
2186.44	972.334
2185.68	1048.49
2184.93	1101.4
2184.18	932.053
2183.42	1014.81
2182.67	925.116
2181.91	958.118
2181.16	987.793
2180.41	1017.46
2179.65	947.706
2178.9	1013.81
2178.14	967.271
2177.39	1030.04
2176.63	980.2
2175.88	980.039
2175.12	966.637
2174.37	966.478
2173.61	963.01
2172.86	1081.97
2172.1	1032.17
2171.34	1038.61
2170.59	1045.06
2169.83	972.141
2169.08	1064.55
2168.32	1070.99
2167.56	1077.42
2166.81	1087.16
2166.05	1047.33
2165.29	1119.84
2164.54	1030.48
2163.78	1043.52
2163.02	1000.42
2162.27	1056.38
2161.51	1085.91
2160.75	1019.73
2159.99	1059.16
2159.23	1065.58
2158.48	1062.11
2157.72	1022.36
2156.96	1012.3
2156.2	1054.99
2155.44	1147.12
2154.69	1077.72
2153.93	1077.54
2153.17	1087.25
2152.41	1064.01
2151.65	1073.71
2150.89	1090
2150.13	1073.36
2149.37	1069.89
2148.61	1142.13
2147.85	1059.67
2147.09	1066.08
2146.33	1062.61
2145.57	1003.23
2144.81	1128.04
2144.05	1025.92
2143.29	1101.37
2142.53	1081.46
2141.77	1078
2141.01	1094.25
2140.25	1107.21
2139.49	1093.89
2138.73	1116.7
2137.97	1109.95
2137.2	1132.75
2136.44	1080.04
2135.68	1040.48
2134.92	1168.29
2134.16	1095.91
2133.4	1144.94
2132.63	1138.19
2131.87	1082.25
2131.11	1141.1
2130.35	1127.8
2129.58	1071.89
2128.82	1107.76
2128.06	1107.58
2127.29	1081.19
2126.53	1120.32
2125.77	1126.68
2125	1185.44
2124.24	1093.57
2123.48	1073.75
2122.71	1122.67
2121.95	1178.12
2121.19	1161.56
2120.42	1122.12
2119.66	1157.91
2118.89	1196.96
2118.13	1101.94
2117.36	1242.34
2116.6	1215.99
2115.83	1189.64
2115.07	1173.11
2114.3	1179.45
2113.54	1179.25
2112.77	1159.46
2112.01	1120.08
2111.24	1168.88
2110.48	1207.86
2109.71	1109.74
2108.94	1174.82
2108.18	1128.95
2107.41	1259.26
2106.64	1219.91
2105.88	1170.79
2105.11	1170.6
2104.34	1170.4
2103.58	1241.92
2102.81	1140.69
2102.04	1199.15
2101.28	1228.28
2100.51	1250.88
2099.74	1227.87
2098.97	1152.77
2098.21	1110.25
2097.44	1168.67
2096.67	1249.84
2095.9	1135.74
2095.13	1145.31
2094.36	1190.67
2093.6	1128.67
2092.83	1268.33
2092.06	1238.85
2091.29	1219.14
2090.52	1290.45
2089.75	1156.99
2088.98	1179.55
2088.21	1215.09
2087.44	1149.92
2086.67	1182.21
2085.9	1126.81
2085.13	1230.52
2084.36	1236.81
2083.59	1262.57
2082.82	1158.52
2082.05	1232.95
2081.28	1232.75
2080.51	1148.21
2079.74	1255.04
2078.97	1238.62
2078.2	1264.35
2077.43	1241.46
2076.65	1241.25
2075.88	1270.21
2075.11	1266.76
2074.34	1188.81
2073.57	1301.97
2072.8	1334.13
2072.02	1269.16
2071.25	1217.16
2070.48	1242.85
2069.71	1307.36
2068.93	1271.56
2068.16	1313.4
2067.39	1258.2
2066.61	1296.8
2065.84	1345.08
2065.07	1276.97
2064.29	1334.94
2063.52	1321.79
2062.75	1273.11
2061.97	1324.59
2061.2	1382.51
2060.43	1324.15
2059.65	1301.33
2058.88	1272.05
2058.1	1291.21
2057.33	1300.68
2056.55	1290.78
2055.78	1306.7
2055	1345.2
2054.23	1319.17
2053.45	1354.43
2052.68	1296.17
2051.9	1266.94
2051.13	1337.64
2050.35	1414.76
2049.57	1385.53
2048.8	1291.87
2048.02	1359.3
2047.25	1433.15
2046.47	1310.55
2045.69	1355.41
2044.92	1339.09
2044.14	1367.83
2043.36	1290.37
2042.59	1328.77
2041.81	1344.63
2041.03	1270.44
2040.25	1334.54
2039.48	1376.12
2038.7	1395.18
2037.92	1404.59
2037.14	1336.87
2036.37	1333.44
2035.59	1439.23
2034.81	1361.9
2034.03	1448.39
2033.25	1467.41
2032.47	1332.33
2031.69	1383.47
2030.92	1303
2030.14	1383.01
2029.36	1402.03
2028.58	1372.93
2027.8	1350.25
2027.02	1388.51
2026.24	1394.69
2025.46	1388.05
2024.68	1362.17
2023.9	1438.86
2023.12	1480.27
2022.34	1438.38
2021.56	1431.74
2020.78	1338.63
2020	1341.61
2019.21	1399.01
2018.43	1478.8
2017.65	1404.95
2016.87	1388.71
2016.09	1398.08
2015.31	1394.65
2014.53	1407.21
2013.74	1461.34
2012.96	1576.19
2012.18	1489.62
2011.4	1451.02
2010.62	1396.46
2009.83	1428.18
2009.05	1424.74
2008.27	1427.7
2007.49	1465.79
2006.7	1471.93
2005.92	1417.41
2005.14	1433.14
2004.35	1483.96
2003.57	1432.66
2002.79	1560.03
2002	1480.03
2001.22	1416
2000.43	1460.41
1999.65	1479.29
1998.87	1469.48
1998.08	1513.86
1997.3	1497.67
1996.51	1452.82
1995.73	1506.73
1994.94	1487.37
1994.16	1455.28
1993.37	1470.96
1992.59	1464.35
1991.8	1499.12
1991.02	1511.6
1990.23	1479.53
1989.44	1561.99
1988.66	1539.47
1987.87	1548.75
1987.09	1608.91
1986.3	1516.45
1985.51	1500.3
1984.73	1541.37
1983.94	1452.14
1983.15	1563.09
1982.37	1546.95
1981.58	1508.58
1980.79	1521.03
1980	1527.13
1979.22	1587.19
1978.43	1488.53
1977.64	1551.75
1976.85	1494.38
1976.06	1563.92
1975.28	1595.38
1974.49	1550.72
1973.7	1528.27
1972.91	1505.82
1972.12	1483.38
1971.33	1597.22
1970.54	1552.6
1969.76	1539.66
1968.97	1526.74
1968.18	1615.16
1967.39	1466.07
1966.6	1611.46
1965.81	1579.53
1965.02	1544.46
1964.23	1544.2
1963.44	1543.94
1962.65	1613.28
1961.86	1552.91
1961.07	1571.63
1960.28	1536.59
1959.48	1615.36
1958.69	1551.88
1957.9	1520.02
1957.11	1611.39
1956.32	1607.97
1955.53	1591.91
1954.74	1566.38
1953.94	1616.63
1953.15	1562.7
1952.36	1647.66
1951.57	1615.83
1950.78	1542.98
1949.98	1649.99
1949.19	1621.33
1948.4	1665.21
1947.61	1683.85
1946.81	1626.82
1946.02	1651.77
1945.23	1730.28
1944.43	1651.21
1943.64	1660.39
1942.85	1691.62
1942.05	1713.38
1941.26	1675.31
1940.46	1693.92
1939.67	1715.67
1938.88	1595.78
1938.08	1598.66
1937.29	1648.74
1936.49	1610.71
1935.7	1695.37
1934.9	1632.19
1934.11	1660.21
1933.31	1716.52
1932.52	1612.51
1931.72	1646.81
1930.93	1703.09
1930.13	1677.68
1929.33	1781.05
1928.54	1695.96
1927.74	1698.82
1926.95	1720.51
1926.15	1688.83
1925.35	1710.52
1924.56	1725.92
1923.76	1618.96
1922.96	1744.17
1922.17	1709.37
1921.37	1640.1
1920.57	1765.24
1919.77	1739.87
1918.98	1777.19
1918.18	1805.09
1917.38	1817.33
1916.58	1757.5
1915.78	1772.87
1914.99	1781.96
1914.19	1706.52
1913.39	1762.58
1912.59	1696.56
1911.79	1793.29
1910.99	1839.93
1910.19	1723.86
1909.39	1789.26
1908.59	1676.37
1907.8	1760.52
1907	1697.7
1906.2	1841.21
1905.4	1753.39
1904.6	1762.47
1903.8	1827.78
1903	1821.23
1902.2	1889.64
1901.39	1798.76
1900.59	1810.95
1899.79	1801.28
1898.99	1785.37
1898.19	1863.09
1897.39	1809.74
1896.59	1837.51
1895.79	1781.06
1894.99	1687.2
1894.18	1755.51
1893.38	1767.69
1892.58	1839.09
1891.78	1854.36
1890.98	1869.63
1890.17	1778.97
1889.37	1918.85
1888.57	1831.32
1887.76	1865.26
1886.96	1784
1886.16	1821.06
1885.36	1733.61
1884.55	1832.89
1883.75	1860.59
1882.94	1826.06
1882.14	1760.44
1881.34	1856.54
1880.53	1766.06
1879.73	1852.81
1878.92	1852.5
1878.12	1870.84
1877.32	1783.52
1876.51	1777.01
1875.71	1925.81
1874.9	1816.79
1874.1	1859.95
1873.29	1788.23
1872.49	1999.01
1871.68	1837.29
1870.87	1836.98
1870.07	1935.95
1869.26	1898.41
1868.46	1839.16
1867.65	1907.07
1866.84	1906.75
1866.04	1807.23
1865.23	1816.23
1864.42	1918.19
1863.62	1924.06
1862.81	1830.8
1862	1870.76
1861.2	1947.86
1860.39	1932.06
1859.58	1848.15
1858.77	1903.55
1857.96	1940.37
1857.16	1970.98
1856.35	1871.65
1855.54	1930.11
1854.73	1858.65
1853.92	1873.8
1853.12	1929.14
1852.31	1959.72
1851.5	1965.57
1850.69	1906.53
1849.88	1971.09
1849.07	1992.38
1848.26	2026.02
1847.45	1933.04
1846.64	1994.46
1845.83	1947.83
1845.02	2015.4
1844.21	1956.43
1843.4	2033.23
1842.59	1940.35
1841.78	1918.43
1840.97	2044.54
1840.16	1997.95
1839.35	2009.94
1838.54	1904.81
1837.72	1938.39
1836.91	1990.44
1836.1	1946.98
1835.29	2014.41
1834.48	2032.55
1833.67	1924.44
1832.85	1954.9
1832.04	1997.67
1831.23	1945.01
1830.42	1978.53
1829.6	1981.27
1828.79	2051.69
1827.98	1995.98
1827.17	2023.32
1826.35	2016.83
1825.54	2025.71
1824.73	1994.64
1823.91	2077.27
1823.1	2107.64
1822.29	1993.63
1821.47	1999.44
1820.66	2026.74
1819.84	2032.54
1819.03	2145.78
1818.21	2013.44
1817.4	2111.3
1816.58	2000.48
1815.77	2095.25
1814.95	2030.48
1814.14	2060.81
1813.32	2054.33
1812.51	2060.11
1811.69	2105.74
1810.88	2117.64
1810.06	2034.56
1809.25	2089.36
1808.43	2079.82
1807.61	2051.9
1806.8	2109.73
1805.98	2069.58
1805.16	2139.63
1804.35	2044.4
1803.53	2071.59
1802.71	2022.29
1801.89	2113.72
1801.08	2101.13
1800.26	2054.9
1799.44	2112.65
1798.62	2097.01
1797.81	2118.05
1796.99	2111.58
1796.17	2129.55
1795.35	2107.81
1794.53	2211.3
1793.71	2116.26
1792.9	2097.58
1792.08	2115.54
1791.26	2142.66
1790.44	2117.88
1789.62	2111.42
1788.8	2059.2
1787.98	2141.21
1787.16	2180.49
1786.34	2109.99
1785.52	2167.56
1784.7	2158.05
1783.88	2203.4
1783.06	2227.4
1782.24	2169.14
1781.42	2150.5
1780.6	2201.91
1779.78	2165
1778.95	2192.03
1778.13	2252.54
1777.31	2203.46
1776.49	2108.76
1775.67	2193.59
1774.85	2184.09
1774.02	2065.11
1773.2	2216.81
1772.38	2262.04
1771.56	2209.98
1770.74	2130.58
1769.91	2224.42
1769.09	2211.89
1768.27	2296.58
1767.44	2183.81
1766.62	2210.77
1765.8	2195.21
1764.97	2194.84
1764.15	2148.94
1763.33	2348.87
1762.5	2369.71
1761.68	2366.28
1760.85	2226.35
1760.03	2335.15
1759.21	2310.5
1758.38	2294.95
1757.56	2400.65
1756.73	2269.93
1755.91	2333.17
1755.08	2314.6
1754.26	2305.12
1753.43	2365.3
1752.6	2361.87
1751.78	2373.58
1750.95	2312.64
1750.13	2436.33
1749.3	2454.08
1748.47	2465.76
1747.65	2450.22
1746.82	2383.27
1745.99	2515.92
1745.17	2479.21
1744.34	2545.29
1743.51	2569.04
1742.69	2683.44
1741.86	2722.26
1741.03	2788.26
1740.2	2685.09
1739.38	2757.11
1738.55	2862.32
1737.72	2810.52
1736.89	2948.88
1736.06	2975.54
1735.23	2969
1734.4	2977.55
1733.58	3115.79
1732.75	3169.55
1731.92	3226.3
1731.09	3289.06
1730.26	3273.43
1729.43	3309.04
1728.6	3401.88
1727.77	3479.64
1726.94	3409.77
1726.11	3529.65
1725.28	3520.02
1724.45	3558.56
1723.62	3630.2
1722.79	3512.21
1721.96	3406.29
1721.13	3366.6
1720.3	3194.57
1719.46	3341.4
1718.63	3283.7
1717.8	3238.04
1716.97	3093.2
1716.14	3026.56
1715.31	3065.11
1714.47	3064.59
1713.64	3028.02
1712.81	2955.42
1711.98	2744.71
1711.14	2855.33
1710.31	2749.78
1709.48	2512.2
1708.65	2637.81
1707.81	2667.37
1706.98	2573.92
1706.15	2546.48
1705.31	2474.08
1704.48	2473.66
1703.64	2545.18
1702.81	2457.83
1701.98	2511.35
1701.14	2507.93
1700.31	2489.53
1699.47	2599.93
1698.64	2395.84
1697.8	2473.29
1696.97	2547.71
1696.13	2514.35
1695.3	2525.89
1694.46	2498.53
1693.63	2489.13
1692.79	2527.6
1691.95	2503.24
1691.12	2446
1690.28	2508.37
1689.45	2498.97
1688.61	2519.47
1687.77	2528
1686.94	2479.77
1686.1	2604.81
1685.26	2532.68
1684.42	2463.57
1683.59	2513.91
1682.75	2534.38
1681.91	2501.11
1681.07	2446.97
1680.24	2515.18
1679.4	2455.09
1678.56	2547.13
1677.72	2510.91
1676.88	2534.34
1676.04	2572.66
1675.21	2479.82
1674.37	2547.94
1673.53	2499.83
1672.69	2597.72
1671.85	2397.71
1671.01	2564.07
1670.17	2471.33
1669.33	2488.77
1668.49	2568.71
1667.65	2553.4
1666.81	2570.81
1665.97	2540.62
1665.13	2563.99
1664.29	2459.46
1663.45	2447.15
1662.61	2547.81
1661.77	2553.32
1660.92	2535.05
1660.08	2522.73
1659.24	2569.84
1658.4	2548.61
1657.56	2459.07
1656.72	2541.8
1655.87	2603.71
1655.03	2671.54
1654.19	2605.79
1653.35	2611.28
1652.5	2498.09
1651.66	2586.66
1650.82	2633.67
1649.98	2556.12
1649.13	2614.98
1648.29	2549.32
1647.45	2646.69
1646.6	2666.98
1645.76	2607.27
1644.91	2583.12
1644.07	2650.8
1643.23	2608.89
1642.38	2599.57
1641.54	2673.13
1640.69	2610.52
1639.85	2580.48
1639	2582.99
1638.16	2665.38
1637.31	2576.2
1636.47	2623.07
1635.62	2711.32
1634.78	2583.74
1633.93	2716.31
1633.08	2698.11
1632.24	2659.24
1631.39	2782.86
1630.55	2652.42
1629.7	2731.71
1628.85	2740.1
1628.01	2668.78
1627.16	2712.59
1626.31	2673.77
1625.46	2747.07
1624.62	2717.1
1623.77	2793.33
1622.92	2901.97
1622.07	2860.19
1621.23	3024.8
1620.38	2959.43
1619.53	3197.64
1618.68	3326.75
1617.83	3494.11
1616.98	3755.67
1616.13	4093.72
1615.29	4228.47
1614.44	4539.82
1613.59	4756.87
1612.74	4761.94
1611.89	4728.76
1611.04	4486.69
1610.19	4385.91
1609.34	4167.52
1608.49	4066.83
1607.64	3783.88
1606.79	3656.83
1605.94	3497.49
1605.09	3373.48
1604.24	3311.2
1603.38	3060.94
1602.53	3166.15
1601.68	3109.81
1600.83	2944.86
1599.98	3026.55
1599.13	2891.02
1598.27	2908.13
1597.42	2936.97
1596.57	2813.26
1595.72	2792.24
1594.87	3011.71
1594.01	2981.87
1593.16	2869.96
1592.31	2892.91
1591.45	2842.6
1590.6	2795.23
1589.75	2756.67
1588.89	2817.7
1588.04	2787.94
1587.19	2778.67
1586.33	2839.67
1585.48	2774.79
1584.62	2829.92
1583.77	2718.25
1582.92	2770.44
1582.06	2726.09
1581.21	2772.41
1580.35	2871.35
1579.5	2867.93
1578.64	2762.22
1577.78	2937.09
1576.93	2740.81
1576.07	2865.97
1575.22	2839.18
1574.36	2993.48
1573.51	2879.09
1572.65	2922.39
1571.79	2831.4
1570.94	2766.7
1570.08	2833.34
1569.22	2832.85
1568.37	2736.11
1567.51	2936.87
1566.65	2875.13
1565.79	2833.82
1564.94	2897.46
1564.08	2885.31
1563.22	2721.63
1562.36	2849.35
1561.5	2778.95
1560.65	2769.74
1559.79	2859.53
1558.93	2821.19
1558.07	2945.88
1557.21	2872.61
1556.35	2898.3
1555.49	2775.61
1554.63	2792.59
1553.77	2984.06
1552.91	2867.23
1552.05	2817.31
1551.19	2845.9
1550.33	2833.78
1549.47	2795.51
1548.61	2946.12
1547.75	2803.27
1546.89	2887.01
1546.03	2938.79
1545.17	2836.66
1544.31	2862.3
1543.45	2861.81
1542.58	2890.33
1541.72	2913.05
1540.86	2825.52
1540	2798.93
1539.14	2957.94
1538.28	2818.26
1537.41	2829.37
1536.55	2918.73
1535.69	2761.74
1534.82	2888.75
1533.96	2957.78
1533.1	2838.52
1532.24	2936.49
1531.37	2938.88
1530.51	2990.48
1529.64	2879.98
1528.78	2972.09
1527.92	2867.41
1527.05	2881.38
1526.19	2930.06
1525.32	2880.39
1524.46	2946.39
1523.59	2977.69
1522.73	2878.9
1521.86	2999.78
1521	2961.7
1520.13	2955.41
1519.27	2920.24
1518.4	2905.29
1517.54	2904.79
1516.67	3011.11
1515.8	2987.5
1514.94	2914.83
1514.07	2920.1
1513.21	2908.06
1512.34	2982.55
1511.47	2924.36
1510.6	2889.25
1509.74	2963.71
1508.87	3032.38
1508	3014.56
1507.14	2904.55
1506.27	2895.4
1505.4	2989.96
1504.53	3035.52
1503.66	2960.13
1502.8	3080.54
1501.93	3036.83
1501.06	2996.01
1500.19	3070.31
1499.32	2989.22
1498.45	3014.59
1497.58	2942.17
1496.71	2892.78
1495.84	2975.65
1494.97	2940.65
1494.1	3029.23
1493.23	3002.85
1492.36	3033.93
1491.49	3093.73
1490.62	2995.55
1489.75	2917.5
1488.88	2974.41
1488.01	3126.04
1487.14	2990.6
1486.27	2967.13
1485.4	3001.05
1484.52	2957.5
1483.65	3045.9
1482.78	2967.95
1481.91	3004.7
1481.04	3012.78
1480.17	3152.7
1479.29	3083.38
1478.42	3122.96
1477.55	2979.19
1476.67	3139.06
1475.8	3061.2
1474.93	3143.7
1474.06	3134.57
1473.18	3088.23
1472.31	3041.91
1471.43	3147.25
1470.56	3058.02
1469.69	3008.87
1468.81	3019.79
1467.94	3136.49
1467.06	3201.7
1466.19	3204
1465.31	3040.56
1464.44	3045.75
1463.56	3196.62
1462.69	3070.4
1461.81	3255.48
1460.94	3174.97
1460.06	3294.32
1459.19	3213.83
1458.31	3119.1
1457.43	3212.72
1456.56	3169.37
1455.68	3262.94
1454.8	3248.12
1453.93	3119.25
1453.05	3249.84
1452.17	3172.32
1451.3	3228.77
1450.42	3233.91
1449.54	3179.22
1448.66	3238.48
1447.78	3121.16
1446.91	3314.24
1446.03	3131.47
1445.15	3079.69
1444.27	3153.15
1443.39	3232.27
1442.51	3240.24
1441.64	3182.79
1440.76	3111.14
1439.88	3269.83
1439	3175.45
1438.12	3189.11
1437.24	3225.5
1436.36	3224.94
1435.48	3195.97
1434.6	3096
1433.72	3138.06
1432.84	3117.64
1431.96	3298.79
1431.08	3315.25
1430.2	3178.45
1429.31	3160.88
1428.43	3157.49
1427.55	3131.41
1426.67	3147.89
1425.79	3127.49
1424.91	3152.46
1424.02	3205.77
1423.14	3227.88
1422.26	3193.32
1421.38	3238.09
1420.49	3112.9
1419.61	3123.69
1418.73	3213.75
1417.85	3269.81
1416.96	3204.14
1416.08	3223.4
1415.2	3152.1
1414.31	3307.15
1413.43	3264.14
1412.54	3156.11
1411.66	3279.97
1410.78	3420.76
1409.89	3230.78
1409.01	3295.22
1408.12	3260.74
1407.24	3302.55
1406.35	3172.04
1405.47	3253.39
1404.58	3283.88
1403.7	3218.38
1402.81	3291.21
1401.92	3307.57
1401.04	3284.42
1400.15	3255.63
1399.27	3176.09
1398.38	3282.7
1397.49	3225.74
1396.61	3321.03
1395.72	3142.87
1394.83	3367.78
1393.94	3217.85
1393.06	3211.66
1392.17	3202.65
1391.28	3216.17
1390.39	3187.45
1389.51	3181.27
1388.62	3237.01
1387.73	3180.16
1386.84	3233.07
1385.95	3249.38
1385.06	3091.3
1384.17	3169.51
1383.29	3253.31
1382.4	3202.14
1381.51	3212.82
1380.62	3203.83
1379.73	3265.09
1378.84	3239.24
1377.95	3278
1377.06	3291.47
1376.17	3212.27
1375.28	3256.63
1374.39	3340.27
1373.5	3277.94
1372.6	3134.27
1371.71	3341.33
1370.82	3287.45
1369.93	3247.61
1369.04	3401.27
1368.15	3310.96
1367.26	3282.35
1366.36	3262.16
1365.47	3188.74
1364.58	3303.04
1363.69	3266.05
1362.79	3209.47
1361.9	3267.71
1361.01	3303.54
1360.11	3297.36
1359.22	3173.65
1358.33	3287.82
1357.43	3220.1
1356.54	3194.36
1355.65	3358.81
1354.75	3335.85
1353.86	3147.96
1352.96	3292.76
1352.07	3303.36
1351.17	3291.61
1350.28	3374.84
1349.39	3201.07
1348.49	3200.51
1347.59	3300.47
1346.7	3188.23
1345.8	3274.2
1344.91	3242.93
1344.01	3200.51
1343.12	3339.44
1342.22	3165.91
1341.32	3349.43
1340.43	3223.36
1339.53	3334.31
1338.63	3197.15
1337.74	3308.07
1336.84	3315.85
1335.94	3262.33
1335.04	3217.2
1334.15	3414.36
1333.25	3246.7
1332.35	3287.89
1331.45	3278.96
1330.55	3178.2
1329.66	3247.21
1328.76	3360.7
1327.86	3218.26
1326.96	3253.85
1326.06	3292.21
1325.16	3297.19
1324.26	3368.88
1323.36	3143.18
1322.46	3334.36
1321.56	3419.9
1320.66	3374.85
1319.76	3260.4
1318.86	3390.33
1317.96	3409.17
1317.06	3347.51
1316.16	3360.8
1315.26	3432.35
1314.36	3409.56
1313.46	3431.15
1312.55	3411.14
1311.65	3407.76
1310.75	3470.93
1309.85	3450.92
1308.95	3369.95
1308.04	3588.25
1307.14	3534.99
1306.24	3586.99
1305.34	3536.52
1304.43	3668.8
1303.53	3582.34
1302.63	3501.44
1301.72	3556.17
1300.82	3613.66
1299.92	3635.15
1299.01	3546
1298.11	3628.35
1297.21	3757.67
1296.3	3710.01
1295.4	3797.81
1294.49	3819.25
1293.59	3873.84
1292.68	3892.5
1291.78	3955.35
1290.87	3940.84
1289.97	3929.11
1289.06	3986.39
1288.16	3927.73
1287.25	3938.08
1286.34	3926.35
1285.44	3862.21
1284.53	3930.49
1283.62	3802.94
1282.72	3879.47
1281.81	3859.49
1280.9	3864.33
1280	3814.05
1279.09	3904.3
1278.18	3796.18
1277.27	3638.51
1276.37	3635.12
1275.46	3681.29
1274.55	3664.12
1273.64	3512.09
1272.73	3748.14
1271.82	3642.93
1270.92	3457.97
1270.01	3652.65
1269.1	3605.26
1268.19	3475.4
1267.28	3571
1266.37	3465.93
1265.46	3347.15
1264.55	3385.03
1263.64	3428.39
1262.73	3403.06
1261.82	3353.03
1260.91	3355.19
1260	3522.05
1259.09	3386.95
1258.18	3438.49
1257.27	3199.18
1256.35	3429.05
1255.44	3370.85
1254.53	3266.05
1253.62	3342.24
1252.71	3344.4
1251.79	3286.25
1250.88	3228.12
1249.97	3419.34
1249.06	3287.25
1248.14	3396.23
1247.23	3236.8
1246.32	3282.78
1245.41	3298.62
1244.49	3196.78
1243.58	3264.62
1242.66	3272.26
1241.75	3252.53
1240.84	3358.62
1239.92	3366.24
1239.01	3335.57
1238.09	3252.97
1237.18	3260.6
1236.26	3311.94
1235.35	3275.84
1234.43	3267.07
1233.52	3236.45
1232.6	3252.26
1231.69	3309.02
1230.77	3199.25
1229.86	3231.44
1228.94	3249.97
1228.02	3249.4
1227.11	3254.28
1226.19	3163.7
1225.27	3234.04
1224.36	3198.03
1223.44	3352.84
1222.52	3226.88
1221.6	3250.83
1220.69	3269.33
1219.77	3241.52
1218.85	3273.63
1217.93	3142.34
1217.01	3326.92
1216.1	3255.56
1215.18	3314.86
1214.26	3265.29
1213.34	3215.75
1212.42	3193.42
1211.5	3162.94
1210.58	3260.27
1209.66	3232.51
1208.74	3245.53
1207.82	3331.92
1206.9	3358.5
1205.98	3314.44
1205.06	3202.49
1204.14	3291.54
1203.22	3296.39
1202.3	3257.8
1201.38	3349.51
1200.46	3232.23
1199.54	3277.78
1198.61	3241.93
1197.69	3344.43
1196.77	3221.8
1195.85	3237.5
1194.93	3361.64
1194	3374.59
1193.08	3365.87
1192.16	3405.92
1191.24	3321.33
1190.31	3366.79
1189.39	3377.03
1188.47	3463.07
1187.54	3516.6
1186.62	3507.86
1185.7	3461.24
1184.77	3479.56
1183.85	3500.59
1182.92	3443.17
1182	3566.96
1181.07	3496.03
1180.15	3492.7
1179.23	3516.41
1178.3	3569.84
1177.37	3436.81
1176.45	3490.23
1175.52	3395.08
1174.6	3459.29
1173.67	3366.88
1172.75	3490.46
1171.82	3416.97
1170.89	3397.47
1169.97	3329.42
1169.04	3469.1
1168.11	3231.14
1167.19	3254.84
1166.26	3283.92
1165.33	3248.29
1164.4	3309.71
1163.48	3354.93
1162.55	3230.4
1161.62	3270.24
1160.69	3272.35
1159.76	3328.32
1158.83	3249.65
1157.91	3195.24
1156.98	3334.62
1156.05	3266.76
1155.12	3196.23
1154.19	3219.87
1153.26	3337.63
1152.33	3417.71
1151.4	3368.71
1150.47	3362.74
1149.54	3332.58
1148.61	3224.5
1147.68	3223.93
1146.75	3228.73
1145.82	3308.73
1144.89	3377.96
1143.96	3326.35
1143.02	3204.97
1142.09	3392.26
1141.16	3185.04
1140.23	3342.76
1139.3	3387.77
1138.36	3357.67
1137.43	3327.58
1136.5	3348.43
1135.57	3420.21
1134.63	3395.48
1133.7	3368.08
1132.77	3429.1
1131.83	3465.99
1130.9	3521.61
1129.97	3448.69
1129.03	3517.69
1128.1	3476.91
1127.17	3470.94
1126.23	3489.05
1125.3	3590.09
1124.36	3466.42
1123.43	3554.05
1122.49	3593.52
1121.56	3539.42
1120.62	3624.32
1119.69	3618.33
1118.75	3655.09
1117.81	3646.43
1116.88	3600.37
1115.94	3695.87
1115.01	3585.74
1114.07	3585.1
1113.13	3645.85
1112.2	3591.83
1111.26	3497.81
1110.32	3499.86
1109.38	3544.58
1108.45	3631.94
1107.51	3588.64
1106.57	3569.34
1105.63	3467.43
1104.69	3557.41
1103.76	3495.5
1102.82	3625.4
1101.88	3510.23
1100.94	3613.46
1100	3676.71
1099.06	3622.82
1098.12	3683.39
1097.18	3680.07
1096.24	3777.85
1095.3	3628.22
1094.36	3680.76
1093.42	3727.97
1092.48	3732.62
1091.54	3644.24
1090.6	3630.3
1089.66	3603.08
1088.72	3581.19
1087.78	3474.3
1086.84	3502.89
1085.9	3369.51
1084.95	3506.95
1084.01	3405.47
1083.07	3444.67
1082.13	3536.92
1081.19	3459.35
1080.24	3376.51
1079.3	3508.51
1078.36	3393.87
1077.41	3329.64
1076.47	3466.87
1075.53	3362.9
1074.58	3293.41
1073.64	3390.84
1072.7	3496.18
1071.75	3347.26
1070.81	3394.32
1069.86	3314.3
1068.92	3308.41
1067.98	3363.39
1067.03	3320.46
1066.09	3348.97
1065.14	3345.72
1064.19	3329.26
1063.25	3386.83
1062.3	3280.49
1061.36	3330.12
1060.41	3271.39
1059.46	3313.08
1058.52	3352.11
1057.57	3359.43
1056.63	3300.74
1055.68	3284.31
1054.73	3262.6
1053.78	3386.06
1052.84	3401.29
1051.89	3408.6
1050.94	3349.96
1049.99	3254.41
1049.05	3332.94
1048.1	3414.07
1047.15	3308.02
1046.2	3431.29
1045.25	3338.46
1044.3	3316.78
1043.35	3305.66
1042.4	3386.7
1041.45	3338.7
1040.5	3356.53
1039.55	3303.29
1038.6	3407.96
1037.65	3349.47
1036.7	3464.62
1035.75	3442.96
1034.8	3418.67
1033.85	3423.32
1032.9	3291.27
1031.95	3330.1
1031	3416.23
1030.05	3355.18
1029.1	3420.26
1028.14	3367.12
1027.19	3366.51
1026.24	3334.4
1025.29	3344.31
1024.33	3456.56
1023.38	3343.11
1022.43	3311.03
1021.48	3336.66
1020.52	3291.48
1019.57	3411.51
1018.62	3384.68
1017.66	3350
1016.71	3304.85
1015.75	3367.14
1014.8	3528.97
1013.85	3360.7
1012.89	3318.19
1011.94	3390.91
1010.98	3510.73
1010.03	3366.14
1009.07	3326.28
1008.12	3406.8
1007.16	3385.26
1006.2	3316.64
1005.25	3389.27
1004.29	3488.02
1003.34	3422.04
1002.38	3429.27
1001.42	3554.09
1000.47	3433.26
999.508	3362.11
998.551	3445.09
997.594	3441.86
996.636	3477.8
995.679	3485
994.721	3447.84
993.763	3434.17
992.805	3342.24
991.846	3479.89
990.888	3385.37
989.929	3327.4
988.97	3324.19
988.011	3380.94
987.052	3351.67
986.093	3325.01
985.133	3379.12
984.173	3360.28
983.213	3401.35
982.253	3314.81
981.293	3423.56
980.333	3347.45
979.372	3331.24
978.411	3335.84
977.45	3335.24
976.489	3350.25
975.528	3357.45
974.566	3460.85
973.605	3332.84
972.643	3498.6
971.681	3448.59
970.719	3518.12
969.756	3346.03
968.794	3412.96
967.831	3417.54
966.868	3377.98
965.905	3377.37
964.942	3400.13
963.979	3316.47
963.015	3321.06
962.052	3411.26
961.088	3353.59
960.124	3319.27
959.159	3349.79
958.195	3437.32
957.23	3356.36
956.266	3392.03
955.301	3394.01
954.336	3344.18
953.37	3353.94
952.405	3412.89
951.439	3495.13
950.473	3336.6
949.507	3379.99
948.541	3425.96
947.575	3466.74
946.608	3357.47
945.642	3400.83
944.675	3459.69
943.708	3332.39
942.741	3349.88
941.773	3421.64
940.806	3421.02
939.838	3456.57
938.87	3437.87
937.902	3426.92
936.934	3361.75
935.965	3366.31
934.997	3430.23
934.028	3419.29
933.059	3447.05
932.09	3350.98
931.121	3505.13
930.151	3406.51
929.182	3436.83
928.212	3392.39
927.242	3481.98
926.272	3481.35
925.301	3439.5
924.331	3322.97
923.36	3407.36
922.389	3623.04
921.418	3419
920.447	3505.9
919.475	3433.21
918.504	3442.88
917.532	3545.16
916.56	3464.79
915.588	3495.02
914.616	3473.82
913.643	3408.92
912.671	3469.99
911.698	3556.74
910.725	3450.75
909.752	3532.34
908.779	3480.33
907.805	3528.49
906.831	3473.94
905.858	3478.44
904.883	3552.25
903.909	3477.18
902.935	3571.49
901.96	3519.54
900.986	3603.54
900.011	3633.66
899.036	3591.98
898.06	3586.2
897.085	3716.27
896.109	3697.66
895.133	3556.08
894.157	3611.79
893.181	3603.45
892.205	3664.25
891.229	3676.39
890.252	3596.38
889.275	3552.22
888.298	3705.1
887.321	3584.19
886.343	3627.02
885.366	3700.53
884.388	3566.9
883.41	3650.62
882.432	3818.65
881.454	3651.85
880.475	3587.32
879.497	3642.87
878.518	3823.55
877.539	3753.91
876.56	3577.06
875.58	3601.94
874.601	3685.51
873.621	3656.77
872.641	3737.75
871.661	3760.03
870.681	3619.08
869.701	3768.87
868.72	3740.14
867.739	3861.82
866.758	3726.05
865.777	3857.87
864.796	3956.53
863.815	4108.65
862.833	4118.09
861.851	4272.67
860.869	4320.26
859.887	4566.38
858.905	4603.72
857.922	4633.42
856.939	4713.99
855.956	4601.22
854.973	4567.32
853.99	4515.64
853.007	4240.27
852.023	4300.5
851.039	4200.62
850.055	4080.44
849.071	3975.55
848.087	3951.97
847.102	3925.86
846.118	3752.5
845.133	3835.59
844.148	3763.83
843.163	3775.83
842.177	3858.87
841.192	3804.9
840.206	3690.08
839.22	3912.55
838.234	3818.04
837.248	3812.27
836.261	3745.69
835.274	3707
834.288	3787.39
833.301	3794.3
832.313	3786.02
831.326	3767.61
830.339	3630.22
829.351	3662.46
828.363	3778.2
827.375	3764.87
826.387	3541.57
825.398	3836.85
824.409	3788.1
823.421	3650.88
822.432	3741.22
821.443	3720.32
820.453	3840.94
819.464	3759.39
818.474	3804.18
817.484	3763.08
816.494	3734.62
815.504	3683.44
814.513	3766.07
813.523	3677.06
812.532	3784.89
811.541	3758.97
810.55	3748.2
809.559	3681.94
808.567	3709.01
807.575	3783.96
806.583	3692.54
805.591	3729.66
804.599	3802.05
803.607	3730.83
802.614	3747.78
801.621	3744.58
800.628	3736.34
799.635	3735.66
798.642	3843.2
797.649	3701.59
796.655	3781.42
795.661	3896.44
794.667	4016.45
793.673	3907.59
792.678	3839
791.684	3805.63
790.689	3676.76
789.694	3811.78
788.699	3677.93
787.704	3807.87
786.708	3726.82
785.713	3688.47
784.717	3735.5
783.721	3744.86
782.724	3663.87
781.728	3633.09
780.731	3667.55
779.735	3641.8
778.738	3726.4
777.741	3773.35
776.743	3735.06
775.746	3824.61
774.748	3746.23
773.75	3783.13
772.752	3724.82
771.754	3704.11
770.756	3700.93
769.757	3725.29
768.758	3619.48
767.759	3623.82
766.76	3693.22
765.761	3815.13
764.761	3779.42
763.762	3743.71
762.762	3773.04
761.762	3742.35
760.762	3641.69
759.761	3606.03
758.761	3612.87
757.76	3777.08
756.759	3681.48
755.758	3725.76
754.756	3760.03
753.755	3624.55
752.753	3796.09
751.751	3688.1
750.749	3764.77
749.747	3641.85
748.745	3708.52
747.742	3825.04
746.739	3672.27
745.736	3761.33
744.733	3803.01
743.73	3867.09
742.726	3744.32
741.723	3706.27
740.719	3675.71
739.715	3772.14
738.71	3766.47
737.706	3753.34
736.701	3812.37
735.697	3769.38
734.692	3853.27
733.686	3825.2
732.681	3642.98
731.675	3759.16
730.67	3763.44
729.664	3792.58
728.658	3762.07
727.651	3686.84
726.645	3780.56
725.638	3665.63
724.631	3739.45
723.624	3763.59
722.617	3906.86
721.61	3789.51
720.602	3833.47
719.595	3765.79
718.587	3824.63
717.578	3831.37
716.57	3865.37
715.562	3772.95
714.553	3816.87
713.544	3766.61
712.535	3822.9
711.526	3911.37
710.516	3908.18
709.507	3974.32
708.497	3763.15
707.487	3915.93
706.477	3920.16
705.467	4025.84
704.456	4072.11
703.445	4202.46
702.434	4251.15
701.423	4035.25
700.412	4180.37
699.401	4070.85
698.389	3963.84
697.377	3861.81
696.365	3927.8
695.353	3897.44
694.34	3889.31
693.328	3839.22
692.315	3895.29
691.302	3852.62
690.289	3928.41
689.276	3806.8
688.262	3820.9
687.249	3886.78
686.235	3854.01
685.221	3870.56
684.206	3815.62
683.192	3856.82
682.177	3829.01
681.162	3870.18
680.147	3859.62
679.132	3853.98
678.117	3776.95
677.101	3965.81
676.086	3839.55
675.07	3880.68
674.054	3907.03
673.037	4024.39
672.021	3957.24
671.004	3747.5
669.987	3835.32
668.97	3800.2
667.953	3961.7
666.936	3781.6
665.918	3972.53
664.9	3954.6
663.882	3855.64
662.864	3958.06
661.846	3957.33
660.827	3868.24
659.808	3923.97
658.789	3906.08
657.77	3902.9
656.751	3921.81
655.731	3965.22
654.712	3998.82
653.692	3931.9
652.672	4039.01
651.652	3962.3
650.631	3902.77
649.611	3951.05
648.59	3911.13
647.569	3925.1
646.548	3953.76
645.526	3987.3
644.505	3925.38
643.483	4017.64
642.461	3977.75
641.439	4116.44
640.417	3849.13
639.394	4000.01
638.371	3979.71
637.348	4118.29
636.325	4166.4
635.302	4297.57
634.279	4545.93
633.255	4625.69
632.231	4795.77
631.207	4799.77
630.183	4606.05
629.159	4480.73
628.134	4355.46
627.109	4020.44
626.084	4041.65
625.059	4116.5
624.034	4086.48
623.008	3976.03
621.983	4067.91
620.957	4025.73
619.931	4063.97
618.904	3970.66
617.878	4064.91
616.851	4010.59
615.824	4107.23
614.797	3889.83
613.77	3952.39
612.743	4070.89
611.715	3890.11
610.687	4052.36
609.659	4054.04
608.631	3999.8
607.603	4028.23
606.574	4049.36
605.546	3975.71
604.517	4081.88
603.487	4129.71
602.458	4009.94
601.429	3955.77
600.399	4098.29
599.369	4065.97
598.339	4031.24
597.309	3981.97
596.278	3959.4
595.248	4176.97
594.217	4059.79
593.186	3971.75
592.155	4082.53
591.123	4006.64
590.091	4073.75
589.06	4012.42
588.028	4031.06
586.996	4052.11
585.963	4073.16
584.931	4140.2
583.898	4025.66
582.865	4068.48
581.832	4055.62
580.798	4120.2
579.765	4175.07
578.731	4087.23
577.697	4110.65
576.663	4136.49
575.629	4080.13
574.594	4091.45
573.56	4117.27
572.525	4075.44
571.49	4137.49
570.455	4139.13
569.419	3957.28
568.384	4098.98
567.348	4081.32
566.312	4080.57
565.276	4120.82
564.239	4052.52
563.203	4100
562.166	4046.19
561.129	4175.63
560.092	4155.57
559.054	4164.44
558.017	4101.02
556.979	4237.58
555.941	4101.91
554.903	4195.07
553.865	4189.47
552.826	4152.59
551.787	4199.95
550.749	3910.41
549.709	3998.7
548.67	4048.47
547.631	4071.77
546.591	3900.29
545.551	4041.41
544.511	4009.41
543.471	4008.67
542.43	4094.43
541.39	4132.11
540.349	4176.97
539.308	4147.38
538.267	4197.03
537.225	4160.24
536.184	4101.87
535.142	4201.89
534.1	4133.93
533.058	4092.39
532.015	4108.41
530.973	3913.42
529.93	4063.73
528.887	3969.49
527.844	3985.53
526.801	3941.66
525.757	3940.93
524.713	4021.63
523.669	3989.75
522.625	4010.56
521.581	3993.06
520.537	4171.82
519.492	4120.8
518.447	4167.88
517.402	4159.93
516.357	4156.76
515.311	4129.69
514.265	4105.01
513.22	4015.8
512.174	3998.33
511.127	4002.36
510.081	3941.89
509.034	3871.89
507.987	4007.29
506.94	3844.18
505.893	3826.76
504.846	3873.78
503.798	3916.01
502.75	3994.02
501.702	3995.66
500.654	3985.38
499.606	4142.02
