3200.54	88.4056
3199.95	88.4056
3199.35	84.1831
3198.76	101.004
3198.16	105.197
3197.57	84.1449
3196.98	58.8926
3196.38	117.767
3195.79	58.8747
3195.19	84.0941
3194.6	67.2651
3194	100.882
3193.41	92.4615
3192.81	109.256
3192.22	88.232
3191.62	75.616
3191.03	92.4056
3190.43	109.19
3189.84	88.1787
3189.24	67.1736
3188.65	75.5589
3188.05	92.3357
3187.45	83.9289
3186.86	88.112
3186.26	75.5131
3185.67	67.1126
3185.07	88.072
3184.47	88.0587
3183.88	79.6601
3183.28	92.224
3182.69	75.4446
3182.09	92.1961
3181.49	108.943
3180.9	96.3577
3180.3	96.3431
3179.7	92.1403
3179.1	79.5637
3178.51	92.1124
3177.91	96.2848
3177.31	75.3419
3176.72	83.7005
3176.12	79.5035
3175.52	75.3077
3174.92	58.5638
3174.33	79.4674
3173.73	54.3642
3173.13	66.8996
3172.53	50.1671
3171.93	58.5194
3171.34	87.7659
3170.74	75.2165
3170.14	104.452
3169.54	62.6614
3168.94	58.4751
3168.34	91.8756
3167.74	96.0372
3167.15	66.7983
3166.55	62.614
3165.95	91.8199
3165.35	70.941
3164.75	70.9302
3164.15	54.2325
3163.55	104.278
3162.95	91.7503
3162.35	91.7364
3161.75	70.8765
3161.15	70.8658
3160.55	87.5268
3159.95	41.6731
3159.35	95.8336
3158.75	70.8228
3158.15	74.9775
3157.55	79.1309
3156.95	70.7906
3156.35	54.1258
3155.75	99.9093
3155.15	45.7848
3154.55	74.9093
3153.95	87.3809
3153.35	41.6036
3152.75	91.5141
3152.15	74.8638
3151.54	62.3771
3150.94	108.104
3150.34	87.3014
3149.74	95.6013
3149.14	83.1189
3148.54	78.951
3147.94	99.7125
3147.33	99.6973
3146.73	91.3754
3146.13	74.7503
3145.53	74.739
3144.93	53.9699
3144.32	87.169
3143.72	99.6066
3143.12	78.8432
3142.52	53.9372
3141.91	95.4128
3141.31	82.9551
3140.71	74.6482
3140.1	74.6369
3139.5	99.5008
3138.9	87.05
3138.29	78.7475
3137.69	74.5916
3137.09	74.5803
3136.48	111.853
3135.88	70.4155
3135.28	78.6877
3134.67	37.2675
3134.07	78.6638
3133.47	78.6519
3132.86	91.0568
3132.26	66.213
3131.65	70.3407
3131.05	45.5076
3130.45	66.1829
3129.84	62.037
3129.24	70.2979
3128.63	99.229
3128.03	103.348
3127.42	111.599
3126.82	74.3879
3126.21	57.8484
3125.61	115.679
3125	95.0078
3124.4	86.7331
3123.79	90.8494
3123.19	90.8356
3122.58	74.3087
3121.97	74.2974
3121.37	74.2861
3120.76	70.1484
3120.16	82.515
3119.55	45.3764
3118.94	86.6144
3118.34	82.4774
3117.73	82.4648
3117.13	82.4523
3116.52	78.3178
3115.91	74.1845
3115.31	74.1732
3114.7	53.5614
3114.09	78.2701
3113.48	74.1394
3112.88	74.1281
3112.27	53.5288
3111.66	82.3395
3111.06	69.9779
3110.45	82.3144
3109.84	82.3019
3109.23	65.8315
3108.63	57.5938
3108.02	61.6982
3107.41	111.04
3106.8	69.9034
3106.19	90.4494
3105.59	65.7714
3104.98	82.2017
3104.37	73.9703
3103.76	86.2855
3103.15	49.2985
3102.54	73.9365
3101.93	98.567
3101.33	90.3393
3100.72	73.9027
3100.11	61.5762
3099.5	86.1935
3098.89	90.2842
3098.28	94.3737
3097.67	69.7438
3097.06	65.6313
3096.45	98.4319
3095.84	98.4169
3095.23	94.3018
3094.62	94.2875
3094.01	65.5813
3093.4	73.7677
3092.79	77.854
3092.18	73.7452
3091.57	61.445
3090.96	69.627
3090.35	73.7115
3089.74	81.8892
3089.13	90.0644
3088.52	85.9574
3087.91	69.574
3087.3	65.4714
3086.69	90.0094
3086.08	57.27
3085.46	69.5315
3084.85	81.7893
3084.24	69.5103
3083.63	81.7644
3083.02	89.9271
3082.41	57.2176
3081.79	73.5543
3081.18	61.2859
3080.57	93.9574
3079.96	106.196
3079.35	69.4255
3078.73	97.9976
3078.12	77.5696
3077.51	77.5577
3076.9	81.6273
3076.28	77.5341
3075.67	93.8427
3075.06	81.5899
3074.45	101.972
3073.83	69.3303
3073.22	85.6302
3072.61	65.2321
3071.99	57.0694
3071.38	61.1364
3070.77	105.954
3070.15	69.2668
3069.54	77.404
3068.93	57.0258
3068.31	57.0171
3067.7	81.4406
3067.08	81.4281
3066.47	56.991
3065.86	85.4734
3065.24	77.3213
3064.63	73.2405
3064.01	85.4343
3063.4	65.0828
3062.78	69.1399
3062.17	69.1294
3061.55	77.2504
3060.94	40.6519
3060.32	60.9685
3059.71	60.9592
3059.09	73.1399
3058.48	105.63
3057.86	73.1175
3057.25	60.922
3056.63	85.2777
3056.02	77.1442
3055.4	93.3709
3054.78	56.8258
3054.17	89.284
3053.55	52.7506
3052.94	56.7997
3052.32	64.904
3051.7	56.7823
3051.09	85.1605
3050.47	60.8196
3049.85	60.8103
3049.24	60.801
3048.62	93.2139
3048	93.1997
3047.39	72.9277
3046.77	60.7638
3046.15	72.9054
3045.53	56.6955
3044.92	93.1284
3044.3	72.872
3043.68	40.4782
3043.06	89.0385
3042.45	80.9317
3041.83	80.9193
3041.21	72.8162
3040.59	117.297
3039.97	64.7057
3039.35	64.6958
3038.74	72.7717
3038.12	56.5915
3037.5	76.791
3036.88	64.6562
3036.26	105.05
3035.64	64.6364
3035.02	80.7832
3034.41	92.8864
3033.79	60.5688
3033.17	60.5595
3032.55	96.8804
3031.93	56.5049
3031.31	64.5672
3030.69	80.6966
3030.07	80.6842
3029.45	60.5039
3028.83	64.5276
3028.21	64.5177
3027.59	80.6348
3026.97	72.5602
3026.35	44.3356
3025.73	60.4483
3025.11	88.644
3024.49	76.5444
3023.87	52.3645
3023.25	72.4935
3022.63	92.6164
3022	40.2618
3021.38	92.588
3020.76	80.499
3020.14	76.4623
3019.52	72.4269
3018.9	96.5544
3018.28	84.4721
3017.66	84.4592
3017.03	92.4887
3016.41	72.3714
3015.79	72.3603
3015.17	60.291
3014.55	56.263
3013.92	84.3815
3013.3	36.158
3012.68	72.3048
3012.06	76.3101
3011.43	68.2669
3010.81	96.3621
3010.19	92.3328
3009.57	84.2909
3008.94	76.2515
3008.32	64.202
3007.7	64.1921
3007.07	68.1937
3006.45	60.1616
3005.83	88.2235
3005.2	68.1623
3004.58	56.125
3003.96	88.1829
3003.33	80.154
3002.71	92.1629
3002.08	64.1035
3001.46	76.1112
3000.84	76.0995
3000.21	56.0647
2999.59	88.0882
2998.96	80.0679
2998.34	72.05
2997.71	84.0455
2997.09	80.031
2996.46	100.023
2995.84	60.0048
2995.21	79.9941
2994.59	91.9791
2993.96	63.9757
2993.34	51.9722
2992.71	79.945
2992.09	91.9226
2991.46	119.881
2990.84	59.9311
2990.21	99.8699
2989.58	79.8836
2988.96	63.8971
2988.33	67.8802
2987.71	63.8774
2987.08	79.8345
2986.45	55.8756
2985.83	107.743
2985.2	83.7876
2984.57	95.7425
2983.95	83.7618
2983.32	79.7609
2982.69	83.7361
2982.07	71.7628
2981.44	83.7103
2980.81	79.7119
2980.18	99.6245
2979.56	99.6092
2978.93	71.7076
2978.3	79.6629
2977.67	63.7205
2977.05	87.6022
2976.42	91.57
2975.79	91.5559
2975.16	59.7012
2974.53	59.692
2973.91	83.556
2973.28	79.5649
2972.65	87.5079
2972.02	75.5634
2971.39	99.4102
2970.76	63.6127
2970.13	59.6278
2969.5	55.644
2968.88	91.4011
2968.25	75.4936
2967.62	79.4547
2966.99	103.275
2966.36	39.7151
2965.73	71.4762
2965.1	55.5841
2964.47	87.333
2963.84	87.3195
2963.21	67.4638
2962.58	99.1962
2961.95	87.2792
2961.32	75.3659
2960.69	67.4222
2960.06	91.2043
2959.43	91.1902
2958.8	71.3553
2958.17	87.1986
2957.53	75.2962
2956.9	103.021
2956.27	87.1583
2955.64	63.3781
2955.01	87.1314
2954.38	79.1982
2953.75	87.1046
2953.12	95.0085
2952.48	91.0358
2951.85	75.1919
2951.22	106.835
2950.59	110.775
2949.96	71.2015
2949.33	67.2355
2948.69	94.906
2948.06	83.03
2947.43	94.8768
2946.8	86.957
2946.16	98.7995
2945.53	110.638
2944.9	55.3107
2944.26	110.604
2943.63	67.1422
2943	86.8766
2942.37	86.8632
2941.73	78.9543
2941.1	82.8893
2940.47	63.144
2939.83	71.026
2939.2	90.7415
2938.56	102.561
2937.93	78.8813
2937.3	98.5864
2936.66	63.0855
2936.03	94.6137
2935.39	74.891
2934.76	102.467
2934.13	82.7487
2933.49	82.7359
2932.86	86.6623
2932.22	74.8332
2931.59	63.0077
2930.95	90.5596
2930.32	94.4824
2929.68	90.5316
2929.05	86.5821
2928.41	62.9591
2927.78	98.3584
2927.14	78.6745
2926.5	102.261
2925.87	66.8527
2925.23	102.23
2924.6	86.4885
2923.96	82.5445
2923.32	66.8114
2922.69	74.66
2922.05	98.2217
2921.42	78.5652
2920.78	54.9872
2920.14	62.8328
2919.51	82.4553
2918.87	82.4425
2918.23	98.1307
2917.6	117.739
2916.96	86.3283
2916.32	117.702
2915.68	66.6876
2915.05	54.9107
2914.41	109.805
2913.77	78.4197
2913.13	101.93
2912.5	109.754
2911.86	66.6258
2911.22	58.7784
2910.58	86.195
2909.94	121.438
2909.31	86.1683
2908.67	70.4904
2908.03	62.6485
2907.39	93.9582
2906.75	70.4577
2906.11	90.0154
2905.47	86.0884
2904.83	105.638
2904.2	82.1499
2903.56	86.0484
2902.92	82.1244
2902.28	105.572
2901.64	93.8275
2901	85.9952
2900.36	101.615
2899.72	82.0609
2899.08	93.7694
2898.44	93.7549
2897.8	78.117
2897.16	89.8206
2896.52	81.9974
2895.88	78.0807
2895.24	66.3583
2894.6	101.473
2893.96	81.9467
2893.32	93.6388
2892.67	109.228
2892.03	81.9086
2891.39	85.7957
2890.75	85.7824
2890.11	62.3776
2889.47	93.5519
2888.83	120.819
2888.19	85.7293
2887.54	35.0656
2886.9	109.076
2886.26	93.4794
2885.62	109.042
2884.98	93.4505
2884.33	97.3291
2883.69	62.281
2883.05	112.867
2882.41	93.3925
2881.77	116.723
2881.12	116.705
2880.48	85.57
2879.84	124.446
2879.19	104.985
2878.55	77.7548
2877.91	85.517
2877.26	77.7307
2876.62	85.4905
2875.98	85.4772
2875.33	81.5792
2874.69	93.219
2874.05	108.739
2873.4	46.595
2872.76	108.705
2872.11	93.1612
2871.47	108.671
2870.83	108.654
2870.18	93.1178
2869.54	93.1034
2868.89	124.119
2868.25	116.343
2867.6	100.815
2866.96	100.799
2866.31	96.9075
2865.67	112.395
2865.02	93.0023
2864.38	89.1134
2863.73	116.217
2863.09	89.0857
2862.44	89.0719
2861.8	85.186
2861.15	92.9157
2860.5	89.0304
2859.86	100.627
2859.21	108.351
2858.57	88.9889
2857.92	119.923
2857.27	73.4898
2856.63	104.417
2855.98	116
2855.33	92.786
2854.69	112.099
2854.04	92.7571
2853.39	85.0142
2852.75	108.183
2852.1	108.166
2851.45	92.6995
2850.81	100.409
2850.16	115.838
2849.51	108.099
2848.86	111.942
2848.21	119.644
2847.57	108.049
2846.92	108.032
2846.27	84.869
2845.62	111.855
2844.97	115.694
2844.33	96.3971
2843.68	107.948
2843.03	127.205
2842.38	100.206
2841.73	84.7767
2841.08	107.881
2840.43	100.159
2839.78	115.551
2839.14	100.128
2838.49	96.2623
2837.84	123.197
2837.19	107.78
2836.54	115.461
2835.89	107.747
2835.24	88.4924
2834.59	138.488
2833.94	119.235
2833.29	107.68
2832.64	99.9727
2831.99	111.491
2831.34	142.225
2830.69	99.926
2830.04	103.753
2829.39	111.421
2828.74	92.1963
2828.08	88.3411
2827.43	130.571
2826.78	84.4739
2826.13	80.6216
2825.48	107.479
2824.83	122.814
2824.18	72.9093
2823.53	95.9183
2822.87	138.101
2822.22	130.408
2821.57	134.223
2820.92	115.03
2820.27	107.345
2819.61	88.1624
2818.96	99.6464
2818.31	122.623
2817.66	99.6153
2817	118.754
2816.35	141.716
2815.7	88.0801
2815.05	122.527
2814.39	88.0526
2813.74	122.489
2813.09	107.161
2812.43	103.318
2811.78	95.6497
2811.13	122.413
2810.47	118.569
2809.82	118.55
2809.16	114.708
2808.51	110.867
2807.86	129.962
2807.2	87.9018
2806.55	103.173
2805.89	118.439
2805.24	129.881
2804.58	133.68
2803.93	64.9203
2803.28	118.366
2802.62	152.706
2801.97	118.329
2801.31	129.76
2800.66	99.2124
2800	152.611
2799.34	160.216
2798.69	95.3519
2798.03	114.404
2797.38	122.012
2796.72	106.744
2796.07	106.727
2795.41	152.444
2794.75	129.557
2794.1	118.107
2793.44	133.326
2792.79	137.114
2792.13	121.86
2791.47	144.686
2790.82	102.787
2790.16	148.447
2789.5	114.173
2788.84	114.155
2788.19	110.332
2787.53	106.511
2786.87	117.905
2786.22	98.8723
2785.56	136.879
2784.9	117.849
2784.24	117.831
2783.59	121.613
2782.93	106.395
2782.27	129.173
2781.61	113.959
2780.95	98.7488
2780.29	121.518
2779.64	136.686
2778.98	132.869
2778.32	148.031
2777.66	140.417
2777	113.834
2776.34	128.992
2775.68	94.8322
2775.02	102.403
2774.36	147.892
2773.71	128.911
2773.05	170.591
2772.39	147.823
2771.73	144.01
2771.07	109.885
2770.41	151.542
2769.75	109.851
2769.09	162.857
2768.43	140.11
2767.77	159.019
2767.11	90.854
2766.45	143.83
2765.79	136.238
2765.12	136.217
2764.46	143.762
2763.8	139.957
2763.14	151.281
2762.48	143.695
2761.82	98.3021
2761.16	132.309
2760.5	124.729
2759.83	139.826
2759.17	102.019
2758.51	132.226
2757.85	128.428
2757.19	132.185
2756.53	158.597
2755.86	151.021
2755.2	143.448
2754.54	154.748
2753.88	150.95
2753.21	139.607
2752.55	109.405
2751.89	94.2996
2751.23	143.313
2750.56	135.749
2749.9	135.728
2749.24	131.937
2748.57	162.068
2747.91	105.516
2747.25	154.482
2746.58	154.458
2745.92	150.667
2745.25	112.982
2744.59	112.965
2743.93	128.007
2743.26	105.401
2742.6	124.203
2741.93	135.473
2741.27	120.401
2740.61	165.526
2739.94	150.454
2739.28	142.909
2738.61	135.366
2737.95	157.903
2737.28	124.047
2736.62	146.578
2735.95	127.766
2735.29	127.746
2734.62	138.996
2733.95	131.462
2733.29	150.219
2732.62	138.93
2731.96	142.663
2731.29	101.35
2730.62	138.865
2729.96	116.328
2729.29	161.333
2728.63	131.297
2727.96	108.772
2727.29	142.506
2726.63	157.482
2725.96	142.462
2725.29	138.691
2724.62	176.147
2723.96	127.406
2723.29	153.612
2722.62	131.112
2721.96	142.328
2721.29	149.795
2720.62	127.306
2719.95	127.286
2719.28	164.697
2718.62	172.156
2717.95	149.677
2717.28	134.689
2716.61	115.964
2715.94	138.386
2715.27	183.24
2714.61	171.994
2713.94	164.49
2713.27	149.513
2712.6	127.066
2711.93	149.466
2711.26	153.179
2710.59	160.626
2709.92	130.721
2709.25	138.169
2708.58	153.082
2707.91	160.525
2707.24	126.906
2706.57	171.67
2705.9	145.523
2705.23	171.616
2704.56	164.129
2703.89	145.455
2703.22	190.18
2702.55	134.224
2701.88	145.386
2701.21	123
2700.54	175.154
2699.87	152.77
2699.2	182.55
2698.53	197.421
2697.86	156.422
2697.19	130.331
2696.51	163.819
2695.84	145.181
2695.17	160.046
2694.5	148.856
2693.83	171.158
2693.15	186.012
2692.48	107.87
2691.81	178.515
2691.14	152.458
2690.47	126.409
2689.79	156.127
2689.12	156.103
2688.45	122.633
2687.77	193.209
2687.1	148.599
2686.43	141.147
2685.76	155.98
2685.08	148.529
2684.41	141.08
2683.74	167.042
2683.06	122.478
2682.39	170.701
2681.71	178.094
2681.04	170.647
2680.37	166.911
2679.69	163.176
2679.02	166.858
2678.34	144.588
2677.67	159.392
2676.99	181.604
2676.32	155.636
2675.65	144.497
2674.97	137.065
2674.3	133.339
2673.62	151.835
2672.95	174.027
2672.27	174
2671.59	166.569
2670.92	155.44
2670.24	159.116
2669.57	162.791
2668.89	155.367
2668.22	184.931
2667.54	184.902
2666.86	199.663
2666.19	181.147
2665.51	188.511
2664.83	155.22
2664.16	181.061
2663.48	155.171
2662.8	140.371
2662.13	184.669
2661.45	162.483
2660.77	203.072
2660.1	155.048
2659.42	173.479
2658.74	143.928
2658.06	151.285
2657.39	177.086
2656.71	162.304
2656.03	162.278
2655.35	173.315
2654.68	199.097
2654	151.142
2653.32	191.662
2652.64	184.261
2651.96	140.017
2651.28	169.467
2650.6	165.757
2649.93	176.779
2649.25	184.116
2648.57	198.814
2647.89	128.841
2647.21	154.584
2646.53	187.68
2645.85	158.215
2645.17	154.511
2644.49	187.591
2643.81	187.561
2643.13	169.146
2642.45	169.119
2641.77	187.472
2641.09	216.846
2640.41	146.991
2639.73	176.361
2639.05	176.333
2638.37	202.016
2637.69	157.915
2637.01	154.218
2636.33	212.935
2635.65	143.158
2634.96	176.166
2634.28	201.825
2633.6	161.434
2632.92	179.751
2632.24	205.397
2631.56	183.361
2630.88	146.666
2630.19	212.632
2629.51	190.605
2628.83	168.586
2628.15	157.566
2627.46	205.17
2626.78	164.843
2626.1	197.78
2625.42	223.383
2624.73	194.056
2624.05	150.095
2623.37	183.014
2622.69	190.304
2622	190.274
2621.32	201.219
2620.64	168.266
2619.95	219.443
2619.27	186.497
2618.58	179.155
2617.9	175.471
2617.22	233.924
2616.53	175.415
2615.85	175.387
2615.16	211.893
2614.48	178.985
2613.79	193.565
2613.11	153.367
2612.43	200.806
2611.74	208.075
2611.06	175.193
2610.37	171.516
2609.69	197.03
2609	204.295
2608.31	204.263
2607.63	182.348
2606.94	189.612
2606.26	153.124
2605.57	207.778
2604.89	185.878
2604.2	211.357
2603.51	229.541
2602.83	207.647
2602.14	174.833
2601.45	178.447
2600.77	196.625
2600.08	192.953
2599.39	211.122
2598.71	185.613
2598.02	171.028
2597.33	221.937
2596.65	214.626
2595.96	181.858
2595.27	174.556
2594.58	203.616
2593.9	199.949
2593.21	210.821
2592.52	167.177
2591.83	218.022
2591.14	207.088
2590.46	254.278
2589.77	185.23
2589.08	206.989
2588.39	206.957
2587.7	156.1
2587.01	221.41
2586.32	210.487
2585.64	214.082
2584.95	170.513
2584.26	195.878
2583.57	181.339
2582.88	206.694
2582.19	188.533
2581.5	206.628
2580.81	231.967
2580.12	181.195
2579.43	206.53
2578.74	206.497
2578.05	206.464
2577.36	181.08
2576.67	181.052
2575.98	177.402
2575.29	195.474
2574.6	177.346
2573.91	188.174
2573.22	198.999
2572.52	188.114
2571.83	206.17
2571.14	184.438
2570.45	216.952
2569.76	202.456
2569.07	224.112
2568.38	224.077
2567.68	187.905
2566.99	224.005
2566.3	216.745
2565.61	213.099
2564.92	213.065
2564.22	216.642
2563.53	212.997
2562.84	216.573
2562.14	209.32
2561.45	187.637
2560.76	212.862
2560.07	205.613
2559.37	230.827
2558.68	212.76
2557.99	183.882
2557.29	241.532
2556.6	241.494
2555.91	198.21
2555.21	205.385
2554.52	216.16
2553.82	212.523
2553.13	194.482
2552.44	208.855
2551.74	223.223
2551.05	194.389
2550.35	208.755
2549.66	237.511
2548.96	241.071
2548.27	233.838
2547.57	208.622
2546.88	215.782
2546.18	197.769
2545.49	176.166
2544.79	179.732
2544.1	222.833
2543.4	172.488
2542.7	233.54
2542.01	229.911
2541.31	244.241
2540.62	211.882
2539.92	233.392
2539.22	218.994
2538.53	193.833
2537.83	233.28
2537.13	236.831
2536.44	215.267
2535.74	215.233
2535.04	222.372
2534.35	233.095
2533.65	222.301
2532.95	197.171
2532.25	258.074
2531.56	211.443
2530.86	218.576
2530.16	254.368
2529.46	207.76
2528.76	193.401
2528.07	229.179
2527.37	207.661
2526.67	236.266
2525.97	221.911
2525.27	218.297
2524.57	214.685
2523.88	228.96
2523.18	268.27
2522.48	257.498
2521.78	210.972
2521.08	228.814
2520.38	243.076
2519.68	225.167
2518.98	221.558
2518.28	228.668
2517.58	300.079
2516.88	260.742
2516.18	217.845
2515.48	221.381
2514.78	267.757
2514.08	239.158
2513.38	239.12
2512.68	239.082
2511.98	246.179
2511.28	228.304
2510.58	221.134
2509.88	228.231
2509.17	196.105
2508.47	203.203
2507.77	231.686
2507.07	235.213
2506.37	249.428
2505.67	217.324
2504.97	227.976
2504.26	277.801
2503.56	227.903
2502.86	259.91
2502.16	238.51
2501.45	270.505
2500.75	220.64
2500.05	245.512
2499.35	249.03
2498.64	209.863
2497.94	259.62
2497.24	213.352
2496.53	252.426
2495.83	223.948
2495.13	231.021
2494.42	227.43
2493.72	234.5
2493.02	259.33
2492.31	220.217
2491.61	241.49
2490.9	259.205
2490.2	255.614
2489.5	237.825
2488.79	259.081
2488.09	251.943
2487.38	241.259
2486.68	255.409
2485.97	262.462
2485.27	219.866
2484.56	237.559
2483.86	244.611
2483.15	237.483
2482.45	315.412
2481.74	304.731
2481.04	240.911
2480.33	233.788
2479.62	187.709
2478.92	247.878
2478.21	258.46
2477.51	254.879
2476.8	258.377
2476.09	297.263
2475.39	247.68
2474.68	268.866
2473.97	229.915
2473.27	304.146
2472.56	236.913
2471.85	254.553
2471.14	229.768
2470.44	233.265
2469.73	261.498
2469.02	261.456
2468.31	261.414
2467.61	240.18
2466.9	268.393
2466.19	236.572
2465.48	254.186
2464.77	268.264
2464.07	285.867
2463.36	247.006
2462.65	254.023
2461.94	229.29
2461.23	257.469
2460.52	268.007
2459.81	282.067
2459.1	250.294
2458.4	303.125
2457.69	246.69
2456.98	264.268
2456.27	236.042
2455.56	285.318
2454.85	243.01
2454.14	292.269
2453.43	225.328
2452.72	285.135
2452.01	235.815
2451.3	267.449
2450.59	235.739
2449.88	242.737
2449.16	274.355
2448.45	288.378
2447.74	260.202
2447.03	267.191
2446.32	263.633
2445.61	309.28
2444.9	277.605
2444.19	256.48
2443.47	263.464
2442.76	263.422
2442.05	249.333
2441.34	252.804
2440.63	287.869
2439.91	259.743
2439.2	284.267
2438.49	256.15
2437.78	298.209
2437.06	256.068
2436.35	266.549
2435.64	234.946
2434.93	255.945
2434.21	287.453
2433.5	273.387
2432.79	266.335
2432.07	269.796
2431.36	304.785
2430.64	290.725
2429.93	248.653
2429.22	294.134
2428.5	290.585
2427.79	269.536
2427.07	276.492
2426.36	304.443
2425.65	276.404
2424.93	283.356
2424.22	300.798
2423.5	265.779
2422.79	290.212
2422.07	269.19
2421.36	297.11
2420.64	283.082
2419.92	286.531
2419.21	279.498
2418.49	268.973
2417.78	300.363
2417.06	279.363
2416.35	293.284
2415.63	282.764
2414.91	293.189
2414.2	247.775
2413.48	286.117
2412.76	272.116
2412.05	286.025
2411.33	296.441
2410.61	324.289
2409.9	292.859
2409.18	306.756
2408.46	306.706
2407.74	324.081
2407.03	317.06
2406.31	317.009
2405.59	303.026
2404.87	327.355
2404.16	292.483
2403.44	323.768
2402.72	299.35
2402	250.578
2401.28	302.733
2400.56	281.81
2399.85	313.072
2399.13	281.719
2398.41	274.719
2397.69	285.105
2396.97	316.346
2396.25	295.441
2395.53	298.868
2394.81	288.396
2394.09	309.194
2393.37	316.092
2392.65	316.041
2391.93	302.1
2391.21	270.805
2390.49	343.658
2389.77	291.542
2389.05	312.316
2388.33	263.691
2387.61	294.87
2386.89	332.976
2386.17	260.096
2385.45	339.803
2384.73	318.948
2384	294.632
2383.28	325.776
2382.56	301.468
2381.84	329.136
2381.12	322.155
2380.4	315.176
2379.67	273.57
2378.95	301.225
2378.23	325.409
2377.51	311.511
2376.79	301.079
2376.06	328.711
2375.34	269.846
2374.62	332.064
2373.9	304.343
2373.17	318.126
2372.45	318.074
2371.73	324.936
2371	345.621
2370.28	272.997
2369.56	335.144
2368.83	348.908
2368.11	314.312
2367.38	310.808
2366.66	300.399
2365.94	334.874
2365.21	289.947
2364.49	348.571
2363.76	324.36
2363.04	300.157
2362.31	313.907
2361.59	324.203
2360.86	331.047
2360.14	296.515
2359.41	303.362
2358.69	313.653
2357.96	306.71
2357.24	323.889
2356.51	268.715
2355.79	334.118
2355.06	344.395
2354.33	313.349
2353.61	316.741
2352.88	323.575
2352.15	302.872
2351.43	299.382
2350.7	354.383
2349.98	313.045
2349.25	364.587
2348.52	333.578
2347.79	326.647
2347.07	340.346
2346.34	326.541
2345.61	343.672
2344.88	316.127
2344.16	346.997
2343.43	333.2
2342.7	302.236
2341.97	312.489
2341.25	333.039
2340.52	315.821
2339.79	343.228
2339.06	343.172
2338.33	394.584
2337.6	332.769
2336.87	349.866
2336.14	332.662
2335.42	329.179
2334.69	346.268
2333.96	335.928
2333.23	332.446
2332.5	339.246
2331.77	311.782
2331.04	349.413
2330.31	311.681
2329.58	352.724
2328.85	369.787
2328.12	349.187
2327.39	349.13
2326.66	345.651
2325.93	349.017
2325.2	321.591
2324.47	314.698
2323.73	335.167
2323	304.337
2322.27	358.991
2321.54	321.331
2320.81	348.621
2320.08	355.4
2319.35	351.925
2318.61	351.868
2317.88	358.642
2317.15	358.584
2316.42	351.697
2315.69	355.054
2314.95	392.544
2314.22	385.655
2313.49	354.881
2312.76	358.236
2312.02	344.533
2311.29	358.12
2310.56	337.601
2309.82	347.775
2309.09	385.217
2308.36	316.986
2307.62	347.606
2306.89	354.364
2306.16	327.052
2305.42	347.436
2304.69	357.597
2303.95	347.324
2303.22	350.672
2302.48	292.746
2301.75	374.382
2301.02	330.084
2300.28	370.859
2299.55	336.78
2298.81	326.522
2298.08	289.061
2297.34	343.416
2296.6	346.76
2295.87	356.901
2295.13	404.422
2294.4	360.183
2293.66	370.317
2292.93	370.257
2292.19	373.593
2291.45	332.783
2290.72	353.101
2289.98	393.779
2289.24	373.35
2288.51	346.141
2287.77	376.622
2287.03	322.282
2286.3	349.365
2285.56	335.742
2284.82	386.55
2284.08	386.487
2283.35	369.476
2282.61	362.637
2281.87	365.967
2281.13	386.236
2280.4	348.911
2279.66	423.366
2278.92	369.115
2278.18	382.599
2277.44	335.143
2276.7	365.551
2275.97	345.186
2275.23	362.048
2274.49	389.054
2273.75	375.461
2273.01	372.018
2272.27	392.246
2271.53	375.277
2270.79	354.934
2270.05	368.396
2269.31	364.957
2268.57	398.684
2267.83	385.107
2267.09	374.911
2266.35	384.981
2265.61	374.789
2264.87	418.615
2264.13	384.793
2263.39	340.858
2262.65	408.288
2261.91	371.111
2261.17	357.557
2260.42	387.853
2259.68	397.906
2258.94	347.268
2258.2	394.405
2257.46	374.119
2256.72	401.017
2255.97	370.627
2255.23	400.886
2254.49	383.98
2253.75	373.814
2253	414.159
2252.26	380.425
2251.52	420.756
2250.78	397.129
2250.03	417.254
2249.29	410.457
2248.55	393.571
2247.8	359.874
2247.06	403.531
2246.32	376.567
2245.57	383.229
2244.83	366.361
2244.09	379.744
2243.34	369.602
2242.6	379.62
2241.85	372.84
2241.11	399.647
2240.36	379.434
2239.62	339.085
2238.88	389.381
2238.13	409.454
2237.39	379.187
2236.64	385.835
2235.89	405.9
2235.15	348.815
2234.4	355.465
2233.66	395.642
2232.91	388.873
2232.17	408.92
2231.42	422.259
2230.67	459.048
2229.93	405.37
2229.18	405.304
2228.44	355.002
2227.69	435.308
2226.94	401.757
2226.2	391.65
2225.45	435.095
2224.7	408.253
2223.95	361.346
2223.21	398.084
2222.46	408.053
2221.71	411.331
2220.96	454.731
2220.22	391.138
2219.47	387.732
2218.72	401.036
2217.97	414.337
2217.22	387.542
2216.48	427.563
2215.73	424.153
2214.98	384.013
2214.23	383.95
2213.48	413.931
2212.73	390.5
2211.98	423.806
2211.23	377.026
2210.48	457.028
2209.73	420.263
2208.98	433.534
2208.23	413.457
2207.48	453.395
2206.73	433.321
2205.98	359.931
2205.23	406.523
2204.48	373.14
2203.73	396.396
2202.98	432.967
2202.23	456.206
2201.48	456.132
2200.73	449.399
2199.98	396.072
2199.23	379.369
2198.48	399.27
2197.72	409.185
2196.97	442.379
2196.22	462.261
2195.47	438.91
2194.72	418.891
2193.97	491.95
2193.21	412.107
2192.46	392.102
2191.71	425.261
2190.96	405.261
2190.2	398.552
2189.45	464.901
2188.7	421.662
2187.94	454.79
2187.19	461.353
2186.44	434.73
2185.68	457.884
2184.93	431.27
2184.18	411.298
2183.42	424.496
2182.67	431.058
2181.91	430.987
2181.16	437.546
2180.41	437.474
2179.65	460.598
2178.9	434.018
2178.14	477.01
2177.39	407.379
2176.63	397.378
2175.88	394.002
2175.12	417.11
2174.37	496.479
2173.61	443.448
2172.86	433.449
2172.1	456.536
2171.34	436.615
2170.59	429.929
2169.83	456.311
2169.08	505.827
2168.32	433.023
2167.56	456.087
2166.81	456.012
2166.05	452.633
2165.29	498.806
2164.54	472.301
2163.78	482.131
2163.02	455.638
2162.27	485.274
2161.51	465.39
2160.75	475.214
2159.99	455.339
2159.23	448.666
2158.48	451.891
2157.72	484.796
2156.96	471.527
2156.2	507.715
2155.44	494.446
2154.69	467.999
2153.93	514.055
2153.17	474.435
2152.41	484.239
2151.65	503.921
2150.89	457.736
2150.13	513.633
2149.37	464.169
2148.61	434.47
2147.85	493.635
2147.09	483.683
2146.33	516.502
2145.57	483.524
2144.81	503.177
2144.05	506.382
2143.29	440.546
2142.53	470.058
2141.77	476.554
2141.01	502.764
2140.25	502.681
2139.49	469.749
2138.73	479.525
2137.97	479.446
2137.2	502.35
2136.44	466.157
2135.68	498.903
2134.92	466.004
2134.16	511.864
2133.4	551.147
2132.63	518.256
2131.87	498.493
2131.11	518.085
2130.35	501.607
2129.58	488.413
2128.82	514.552
2128.06	481.699
2127.29	524.212
2126.53	547.056
2125.77	497.837
2125	484.656
2124.24	553.334
2123.48	507.412
2122.71	513.875
2121.95	467.975
2121.19	448.266
2120.42	559.422
2119.66	526.62
2118.89	523.263
2118.13	549.336
2117.36	532.899
2116.6	542.618
2115.83	539.26
2115.07	542.439
2114.3	516.212
2113.54	516.127
2112.77	561.767
2112.01	493.098
2111.24	512.607
2110.48	525.581
2109.71	470.007
2108.94	548.251
2108.18	593.841
2107.41	515.447
2106.64	502.315
2105.88	521.8
2105.11	557.582
2104.34	560.75
2103.58	550.879
2102.81	550.788
2102.04	518.111
2101.28	553.864
2100.51	576.575
2099.74	563.453
2098.97	540.565
2098.21	586.058
2097.44	550.152
2096.67	537.043
2095.9	589.022
2095.13	566.149
2094.36	562.802
2093.6	578.973
2092.83	523.591
2092.06	572.279
2091.29	490.908
2090.52	575.34
2089.75	620.745
2088.98	549.155
2088.21	571.807
2087.44	594.451
2086.67	568.37
2085.9	594.255
2085.13	623.377
2084.36	571.335
2083.59	580.978
2082.82	623.069
2082.05	590.52
2081.28	593.666
2080.51	622.76
2079.74	625.9
2078.97	629.039
2078.2	557.613
2077.43	560.762
2076.65	593.078
2075.88	573.538
2075.11	625.28
2074.34	579.827
2073.57	602.402
2072.8	644.399
2072.02	602.203
2071.25	602.104
2070.48	602.004
2069.71	618.085
2068.93	698.871
2068.16	682.58
2067.39	578.965
2066.61	640.314
2065.84	620.808
2065.07	636.869
2064.29	620.602
2063.52	665.745
2062.75	672.097
2061.97	678.447
2061.2	649.263
2060.43	642.697
2059.65	694.256
2058.88	652.17
2058.1	668.202
2057.33	677.774
2056.55	645.392
2055.78	687.229
2055	670.986
2054.23	732.157
2053.45	661.089
2052.68	660.98
2051.9	676.989
2051.13	692.993
2050.35	699.324
2049.57	637.987
2048.8	670.098
2048.02	715.082
2047.25	714.964
2046.47	737.386
2045.69	682.532
2044.92	717.828
2044.14	685.525
2043.36	720.808
2042.59	720.689
2041.81	759.171
2041.03	733.315
2040.25	688.173
2039.48	794.161
2038.7	742.595
2037.92	716.758
2037.14	768.058
2036.37	764.717
2035.59	787.078
2034.81	780.524
2034.03	790.029
2033.25	757.788
2032.47	754.452
2031.69	796.056
2030.92	706.062
2030.14	731.615
2029.36	776.41
2028.58	840.437
2027.8	808.225
2027.02	798.471
2026.24	756.658
2025.46	743.71
2024.68	788.459
2023.9	788.328
2023.12	775.381
2022.34	839.323
2021.56	877.619
2020.78	755.78
2020	867.722
2019.21	867.578
2018.43	809.819
2017.65	832.087
2016.87	835.148
2016.09	873.401
2015.31	870.057
2014.53	889.102
2013.74	828.199
2012.96	853.638
2012.18	856.693
2011.4	914.081
2010.62	869.191
2009.83	926.557
2009.05	932.792
2008.27	875.146
2007.49	843.066
2006.7	890.82
2005.92	928.98
2005.14	880.948
2004.35	947.819
2003.57	950.853
2002.79	864.558
2002	976.055
2001.22	963.136
2000.43	959.787
1999.65	966.004
1998.87	914.842
1998.08	1016.68
1997.3	968.709
1996.51	965.362
1995.73	965.201
1994.94	974.595
1994.16	961.696
1993.37	955.168
1992.59	1025.04
1991.8	1085.35
1991.02	951.509
1990.23	973.624
1989.44	1094.35
1988.66	963.757
1987.87	1068.54
1987.09	995.233
1986.3	1055.47
1985.51	1020.33
1984.73	982.025
1983.94	975.506
1983.15	1105.6
1982.37	1076.83
1981.58	1117.94
1980.79	993.909
1980	1117.57
1979.22	1123.73
1978.43	1104.5
1977.64	1101.14
1976.85	1135.86
1976.06	1148.36
1975.28	1157.68
1974.49	1075.04
1973.7	1059.01
1972.91	1138.08
1972.12	1112.54
1971.33	1178.9
1970.54	1210.39
1969.76	1165.84
1968.97	1165.64
1968.18	1225.62
1967.39	1212.75
1966.6	1203.05
1965.81	1228.17
1965.02	1215.31
1964.23	1158.15
1963.44	1243.38
1962.65	1227.36
1961.86	1239.8
1961.07	1268.06
1960.28	1195.12
1959.48	1258.15
1958.69	1213.69
1957.9	1336.73
1957.11	1200.65
1956.32	1298.38
1955.53	1304.48
1954.74	1247.42
1953.94	1304.04
1953.15	1332.24
1952.36	1344.64
1951.57	1290.77
1950.78	1334.73
1949.98	1347.12
1949.19	1416.29
1948.4	1220.52
1947.61	1308.61
1946.81	1308.39
1946.02	1440.57
1945.23	1408.81
1944.43	1336.1
1943.64	1417.79
1942.85	1376.6
1942.05	1366.92
1941.26	1350.95
1940.46	1410.55
1939.67	1419.76
1938.88	1375.45
1938.08	1453.9
1937.29	1422.19
1936.49	1396.79
1935.7	1380.83
1934.9	1452.93
1934.11	1484.13
1933.31	1405.29
1932.52	1367.33
1931.72	1414.24
1930.93	1439.15
1930.13	1435.76
1929.33	1419.82
1928.54	1416.44
1927.74	1375.38
1926.95	1507.01
1926.15	1491.07
1925.35	1462.57
1924.56	1490.57
1923.76	1499.73
1922.96	1524.58
1922.17	1540
1921.37	1577.38
1920.57	1470.51
1919.77	1413.84
1918.98	1554.65
1918.18	1548.12
1917.38	1532.19
1916.58	1497.48
1915.78	1581.8
1914.99	1528.29
1914.19	1493.59
1913.39	1540.3
1912.59	1533.79
1911.79	1492.84
1910.99	1539.53
1910.19	1608.1
1909.39	1498.35
1908.59	1513.74
1907.8	1582.28
1907	1569.51
1906.2	1591.13
1905.4	1597.11
1904.6	1656.22
1903.8	1593.45
1903	1633.8
1902.2	1546.07
1901.39	1642.62
1900.59	1601.75
1899.79	1579.63
1898.99	1673.01
1898.19	1672.73
1897.39	1622.52
1896.59	1597.29
1895.79	1621.98
1894.99	1612.35
1894.18	1599.61
1893.38	1636.75
1892.58	1658.3
1891.78	1645.55
1890.98	1589.19
1890.17	1657.46
1889.37	1716.37
1888.57	1635.11
1887.76	1706.45
1886.96	1662.58
1886.16	1680.98
1885.36	1584.21
1884.55	1633.73
1883.75	1649.02
1882.94	1651.85
1882.14	1567.6
1881.34	1657.52
1880.53	1666.57
1879.73	1607.22
1878.92	1600.74
1878.12	1693.7
1877.32	1662.34
1876.51	1674.49
1875.71	1655.57
1874.9	1729.83
1874.1	1676.75
1873.29	1766.5
1872.49	1648.25
1871.68	1651.08
1870.87	1678.73
1870.07	1703.27
1869.26	1681.27
1868.46	1668.58
1867.65	1677.6
1866.84	1692.82
1866.04	1664.64
1865.23	1667.46
1864.42	1732.25
1863.62	1663.8
1862.81	1716.18
1862	1703.51
1861.2	1601.03
1860.39	1706.03
1859.58	1677.88
1858.77	1758.08
1857.96	1708.26
1857.16	1692.51
1856.35	1673.66
1855.54	1738.33
1854.73	1663.82
1853.92	1734.66
1853.12	1731.28
1852.31	1706.26
1851.5	1709.06
1850.69	1767.48
1849.88	1702.31
1849.07	1723.64
1848.26	1735.71
1847.45	1695.27
1846.64	1728.95
1845.83	1716.31
1845.02	1688.24
1844.21	1740.42
1843.4	1638.31
1842.59	1708.99
1841.78	1758.05
1840.97	1720.75
1840.16	1732.79
1839.35	1757.16
1838.54	1682.89
1837.72	1784.3
1836.91	1688.49
1836.1	1768.3
1835.29	1709.48
1834.48	1632.2
1833.67	1687.35
1832.85	1677.83
1832.04	1677.55
1831.23	1655.72
1830.42	1710.83
1829.6	1676.7
1828.79	1805.61
1827.98	1666.91
1827.17	1734.28
1826.35	1700.17
1825.54	1718.32
1824.73	1724.18
1823.91	1708.52
1823.1	1775.83
1822.29	1744.81
1821.47	1790.59
1820.66	1750.36
1819.84	1697.87
1819.03	1746.71
1818.21	1749.48
1817.4	1736.91
1816.58	1748.89
1815.77	1779.27
1814.95	1751.37
1814.14	1803.21
1813.32	1778.37
1812.51	1704.5
1811.69	1719.54
1810.88	1713.12
1810.06	1679.12
1809.25	1645.14
1808.43	1706.12
1807.61	1764.02
1806.8	1699.42
1805.98	1769.55
1805.16	1640.69
1804.35	1738.35
1803.53	1713.58
1802.71	1713.29
1801.89	1740.53
1801.08	1804.46
1800.26	1733.82
1799.44	1709.07
1798.62	1733.24
1797.81	1687.1
1796.99	1750.99
1796.17	1692.64
1795.35	1738.18
1794.53	1762.32
1793.71	1755.91
1792.9	1764.78
1792.08	1727.85
1791.26	1806.91
1790.44	1736.42
1789.62	1730.02
1788.8	1693.12
1787.98	1686.74
1787.16	1689.5
1786.34	1753.25
1785.52	1695.03
1784.7	1761.8
1783.88	1673.12
1783.06	1788.63
1782.24	1760.9
1781.42	1760.61
1780.6	1729.85
1779.78	1753.92
1778.95	1811.47
1778.13	1713.76
1777.31	1789.55
1776.49	1649.28
1775.67	1791.99
1774.85	1739.98
1774.02	1770.1
1773.2	1772.84
1772.38	1714.77
1771.56	1805.68
1770.74	1808.41
1769.91	1856.72
1769.09	1792.61
1768.27	1768
1767.44	1819.33
1766.62	1843.32
1765.8	1858.19
1764.97	1766.8
1764.15	1881.84
1763.33	1714.61
1762.5	1841.76
1761.68	1862.68
1760.85	1801.71
1760.03	1874.18
1759.21	1892.06
1758.38	1788.66
1757.56	1776.24
1756.73	1906.25
1755.91	1793.82
1755.08	1787.45
1754.26	1808.35
1753.43	1868.62
1752.6	1868.3
1751.78	1798.35
1750.95	1864.64
1750.13	1837.09
1749.3	1915.45
1748.47	1921.18
1747.65	1805.9
1746.82	1799.55
1745.99	1926.25
1745.17	1880.57
1744.34	1937.69
1743.51	1955.49
1742.69	1807.09
1741.86	1906.49
1741.03	1882
1740.2	1926.98
1739.38	1950.82
1738.55	1899.16
1737.72	1919.97
1736.89	1904.55
1736.06	1907.24
1735.23	1991.4
1734.4	1918.66
1733.58	1963.58
1732.75	1887.85
1731.92	1990.05
1731.09	1947.51
1730.26	1892.92
1729.43	1980
1728.6	1901.32
1727.77	1925.1
1726.94	1957.9
1726.11	1957.57
1725.28	2005.42
1724.45	1923.79
1723.62	2046.88
1722.79	2058.57
1721.96	2028.13
1721.13	2030.79
1720.3	2003.38
1719.46	1991.01
1718.63	2044.79
1717.8	1975.3
1716.97	1968.95
1716.14	1908.5
1715.31	1965.27
1714.47	2000.99
1713.64	1982.63
1712.81	2012.33
1711.98	2084.06
1711.14	2083.7
1710.31	2038.32
1709.48	1959.94
1708.65	2136.66
1707.81	2013.28
1706.98	2039.93
1706.15	2111.57
1705.31	2015.25
1704.48	2077.87
1703.64	2062.53
1702.81	2020.22
1701.98	2010.88
1701.14	2079.45
1700.31	2100.07
1699.47	2051.79
1698.64	2051.44
1697.8	2122.95
1696.97	2167.5
1696.13	2041.41
1695.3	2175.74
1694.46	2100.56
1693.63	2088.24
1692.79	2195.57
1691.95	2141.36
1691.12	2060.26
1690.28	2119.7
1689.45	2140.27
1688.61	2077.14
1687.77	2133.56
1686.94	2112.29
1686.1	2114.91
1685.26	2165.33
1684.42	2200.79
1683.59	2167.57
1682.75	2176.16
1681.91	2190.71
1681.07	2178.4
1680.24	2163.11
1679.4	2156.78
1678.56	2222.03
1677.72	2123.24
1676.88	2236.18
1676.04	2256.67
1675.21	2190.71
1674.37	2157.55
1673.53	2243.59
1672.69	2326.62
1671.85	2186.24
1671.01	2227.56
1670.17	2271.84
1669.33	2292.29
1668.49	2303.81
1667.65	2229.01
1666.81	2255.41
1665.97	2249.08
1665.13	2233.82
1664.29	2239.39
1663.45	2343.08
1662.61	2321.87
1661.77	2321.47
1660.92	2223
1660.08	2261.25
1659.24	2329.19
1658.4	2376.32
1657.56	2316.52
1656.72	2307.22
1655.87	2271.2
1655.03	2359.86
1654.19	2309
1653.35	2347.18
1652.5	2278.55
1651.66	2301.89
1650.82	2381.57
1649.98	2292.21
1649.13	2348.15
1648.29	2273.64
1647.45	2400.69
1646.6	2343.98
1645.76	2396.91
1644.91	2322.44
1644.07	2325.01
1643.23	2383.84
1642.38	2401.19
1641.54	2291.25
1640.69	2270.14
1639.85	2405.88
1639	2284.16
1638.16	2487.89
1637.31	2327.75
1636.47	2528.44
1635.62	2492.53
1634.78	2474.36
1633.93	2411.87
1633.08	2373.04
1632.24	2419.91
1631.39	2496.3
1630.55	2498.83
1629.7	2409.81
1628.85	2474.35
1628.01	2444.41
1627.16	2461.7
1626.31	2316.67
1625.46	2463.81
1624.62	2398.48
1623.77	2406.92
1622.92	2471.39
1622.07	2417.89
1621.23	2476.44
1620.38	2552.66
1619.53	2493.28
1618.68	2501.69
1617.83	2580.81
1616.98	2518.51
1616.13	2576.98
1615.29	2517.65
1614.44	2576.1
1613.59	2466.74
1612.74	2460.43
1611.89	2489.44
1611.04	2547.85
1610.19	2591.54
1609.34	2561.69
1608.49	2478.91
1607.64	2569.63
1606.79	2633.86
1605.94	2568.75
1605.09	2494.84
1604.24	2538.49
1603.38	2517.49
1602.53	2584.61
1601.68	2560.67
1600.83	2574.92
1599.98	2545.12
1599.13	2506.53
1598.27	2520.77
1597.42	2561.41
1596.57	2508.17
1595.72	2510.67
1594.87	2563.03
1594.01	2574.32
1593.16	2553.35
1592.31	2617.4
1591.45	2499.73
1590.6	2496.37
1589.75	2566.25
1588.89	2536.52
1588.04	2594.65
1587.19	2623.49
1586.33	2664.02
1585.48	2616.74
1584.62	2625.07
1583.77	2650.95
1582.92	2594.91
1582.06	2650.04
1581.21	2599.87
1580.35	2611.12
1579.5	2566.82
1578.64	2706.68
1577.78	2735.44
1576.93	2521.66
1576.07	2643.93
1575.22	2573.38
1574.36	2637.18
1573.51	2531.61
1572.65	2682.99
1571.79	2568.69
1570.94	2699.58
1570.08	2655.34
1569.22	2614.04
1568.37	2669.02
1567.51	2770.63
1566.65	2659.35
1565.79	2778.43
1564.94	2640.95
1564.08	2672.55
1563.22	2683.75
1562.36	2683.29
1561.5	2726.52
1560.65	2705.66
1559.79	2638.22
1558.93	2748.41
1558.07	2698.45
1557.21	2718.36
1556.35	2682.97
1555.49	2720.33
1554.63	2743.13
1553.77	2742.66
1552.91	2721.83
1552.05	2733
1551.19	2738.34
1550.33	2761.12
1549.47	2743.21
1548.61	2797.94
1547.75	2759.69
1546.89	2759.22
1546.03	2703.57
1545.17	2793.11
1544.31	2769.4
1543.45	2670.25
1542.58	2782.96
1541.72	2704.14
1540.86	2828.42
1540	2764.12
1539.14	2752.04
1538.28	2902.34
1537.41	2751.1
1536.55	2779.61
1535.69	2744.35
1534.82	2735.19
1533.96	2781.07
1533.1	2873.27
1532.24	2823.55
1531.37	2820.17
1530.51	2727.04
1529.64	2862.61
1528.78	2830.28
1527.92	2844.26
1527.05	2852.45
1526.19	2805.68
1525.32	2816.76
1524.46	2885.67
1523.59	2760.86
1522.73	2818.2
1521.86	2901.52
1521	2831.67
1520.13	2961.19
1519.27	2928.9
1518.4	2812.88
1517.54	2896.13
1516.67	2820.57
1515.8	2889.36
1514.94	2865.77
1514.07	2793.14
1513.21	2856.13
1512.34	2875.83
1511.47	3028.18
1510.6	3030.54
1509.74	2848.39
1508.87	2997.79
1508	2942.51
1507.14	2967.94
1506.27	2881
1505.4	2972.67
1504.53	2928.96
1503.66	2994.68
1502.8	2933.71
1501.93	2938.96
1501.06	3042.06
1500.19	2989.74
1499.32	3066.9
1498.45	3000.21
1497.58	2919.16
1496.71	3019.3
1495.84	3041.78
1494.97	3041.25
1494.1	3089.59
1493.23	3126.41
1492.36	2964.98
1491.49	3102.35
1490.62	2918
1489.75	3009.39
1488.88	3132.32
1488.01	3097.33
1487.14	3142.72
1486.27	3058.96
1485.4	3078.51
1484.52	3224.28
1483.65	3086.05
1482.78	3162.94
1481.91	3125.12
1481.04	3164.71
1480.17	3141.24
1479.29	3120.63
1478.42	3263.35
1477.55	3302.89
1476.67	3239.31
1475.8	3187.2
1474.93	3232.46
1474.06	3246.21
1473.18	3196.99
1472.31	3267.98
1471.43	3218.78
1470.56	3415.6
1469.69	3137.58
1468.81	3205.67
1467.94	3319.48
1467.06	3207.41
1466.19	3292.6
1465.31	3343.47
1464.44	3317.18
1463.56	3368.02
1462.69	3321.74
1461.81	3164.1
1460.94	3397.68
1460.06	3411.36
1459.19	3413.63
1458.31	3461.55
1457.43	3475.21
1456.56	3409
1455.68	3414.11
1454.8	3433.48
1453.93	3532.68
1453.05	3537.77
1452.17	3511.5
1451.3	3459.6
1450.42	3424.81
1449.54	3612.23
1448.66	3591.67
1447.78	3519.85
1446.91	3613.2
1446.03	3493.01
1445.15	3506.63
1444.27	3571.48
1443.39	3542.41
1442.51	3649.89
1441.64	3603.75
1440.76	3756.69
1439.88	3679.27
1439	3607.56
1438.12	3635.36
1437.24	3654.62
1436.36	3682.4
1435.48	3667.55
1434.6	3698.16
1433.72	3867.91
1432.84	3722.43
1431.96	3696.24
1431.08	3769.39
1430.2	3706.3
1429.31	3782.27
1428.43	3756.08
1427.55	3823.5
1426.67	3766.12
1425.79	3768.3
1424.91	3866.87
1424.02	3863.36
1423.14	3854.19
1422.26	3972.52
1421.38	4003
1420.49	3823.85
1419.61	4001.6
1418.73	3873.49
1417.85	3901.13
1416.96	4061.79
1416.08	3936.56
1415.2	3952.85
1414.31	3963.48
1413.43	3951.48
1412.54	3956.45
1411.66	4074.52
1410.78	4068.16
1409.89	3951.56
1409.01	4015.87
1408.12	4102.76
1407.24	4130.3
1406.35	3889.49
1405.47	4103.45
1404.58	4122.5
1403.7	4093.55
1402.81	4064.61
1401.92	4015.93
1401.04	4054.73
1400.15	4206.37
1399.27	4163.33
1398.38	4159.78
1397.49	4074.46
1396.61	4130.14
1395.72	4290.09
1394.83	4123.06
1393.94	4178.7
1393.06	4017.39
1392.17	4177.25
1391.28	4123.01
1390.39	4209.58
1389.51	4062.45
1388.62	4089.89
1387.73	4145.46
1386.84	4158.81
1385.95	4158.09
1385.06	4011.09
1384.17	4122.89
1383.29	4085.62
1382.4	4059.6
1381.51	4160.08
1380.62	4105.96
1379.73	4136.15
1378.84	4124.2
1377.95	4081.34
1377.06	4131.18
1376.17	4108
1375.28	4039.9
1374.39	4067.27
1373.5	4060.95
1372.6	4138.8
1371.71	4059.53
1370.82	3966.26
1369.93	3996.41
1369.04	4032.17
1368.15	4020.25
1367.26	4030.76
1366.36	4038.46
1365.47	4096.6
1364.58	3983.82
1363.69	3994.33
1362.79	4058.05
1361.9	3920.14
1361.01	3891.46
1360.11	3865.58
1359.22	3873.3
1358.33	3830.66
1357.43	3760.05
1356.54	3767.78
1355.65	3722.38
1354.75	3909.07
1353.86	3849.68
1352.96	3692.47
1352.07	3661.08
1351.17	3638.09
1350.28	3670.98
1349.39	3597.71
1348.49	3675.28
1347.59	3607.63
1346.7	3478.57
1345.8	3433.3
1344.91	3510.85
1344.01	3406.99
1343.12	3481.72
1342.22	3467.16
1341.32	3413.57
1340.43	3429.7
1339.53	3376.13
1338.63	3364.39
1337.74	3274.62
1336.84	3287.98
1335.94	3295.76
1335.04	3161.49
1334.15	3199.92
1333.25	3057.35
1332.35	3095.8
1331.45	3081.34
1330.55	3058.53
1329.66	2938.35
1328.76	2979.56
1327.86	2979.04
1326.96	2995.21
1326.06	2925.17
1325.16	2807.89
1324.26	2826.86
1323.36	2820.81
1322.46	2756.4
1321.56	2742.03
1320.66	2702.66
1319.76	2771.62
1318.86	2696.16
1317.96	2584.64
1317.06	2561.98
1316.16	2580.96
1315.26	2583.28
1314.36	2505.15
1313.46	2479.75
1312.55	2404.43
1311.65	2365.19
1310.75	2417.45
1309.85	2439.2
1308.95	2391.66
1308.04	2402.33
1307.14	2318.8
1306.24	2373.79
1305.34	2331.83
1304.43	2264.97
1303.53	2300.56
1302.63	2255.87
1301.72	2216.73
1300.82	2224.64
1299.92	2174.45
1299.01	2182.37
1298.11	2123.91
1297.21	2176.07
1296.3	2206.1
1295.4	2075.8
1294.49	2136.24
1293.59	2075.08
1292.68	2146.54
1291.78	2060.54
1290.87	2076.74
1289.97	2057.05
1289.06	2004.24
1288.16	2042.53
1287.25	1978.7
1286.34	1997.66
1285.44	2049.73
1284.53	1983.17
1283.62	1933.18
1282.72	2021.08
1281.81	1929.75
1280.9	1984.53
1280	1962.14
1279.09	1890.16
1278.18	1851.26
1277.27	1906.02
1276.37	1902.93
1275.46	1905.35
1274.55	1827.93
1273.64	1863.39
1272.73	1942.87
1271.82	1859.98
1270.92	1887.17
1270.01	1842.83
1269.1	1831.5
1268.19	1836.68
1267.28	1775.88
1266.37	1789.31
1265.46	1857.7
1264.55	1824.4
1263.64	1763.64
1262.73	1829.25
1261.82	1834.42
1260.91	1806.64
1260	1759.65
1259.09	1904.81
1258.18	1778.24
1257.27	1739.52
1256.35	1818.77
1255.44	1782.79
1254.53	1818.13
1253.62	1779.42
1252.71	1751.7
1251.79	1787.02
1250.88	1770.26
1249.97	1772.69
1249.06	1775.12
1248.14	1750.15
1247.23	1684.12
1246.32	1752.28
1245.41	1705.43
1244.49	1765.34
1243.58	1723.98
1242.66	1778.4
1241.75	1731.58
1240.84	1673.84
1239.92	1673.55
1239.01	1643.18
1238.09	1623.75
1237.18	1686.33
1236.26	1680.57
1235.35	1661.14
1234.43	1688.17
1233.52	1603.2
1232.6	1736.73
1231.69	1621.75
1230.77	1583.25
1229.86	1689.41
1228.94	1659.09
1228.02	1642.43
1227.11	1653.05
1226.19	1598.22
1225.27	1677.01
1224.36	1644
1223.44	1602.82
1222.52	1550.76
1221.6	1643.13
1220.69	1574.73
1219.77	1574.45
1218.85	1557.83
1217.93	1554.83
1217.01	1554.56
1216.1	1619.61
1215.18	1480.53
1214.26	1551.01
1213.34	1548.02
1212.42	1561.35
1211.5	1601.87
1210.58	1544.48
1209.66	1576.83
1208.74	1492.29
1207.82	1500.18
1206.9	1505.35
1205.98	1551.27
1205.06	1556.43
1204.14	1428.51
1203.22	1490.71
1202.3	1400.85
1201.38	1501.04
1200.46	1470.92
1199.54	1484.23
1198.61	1481.25
1197.69	1462
1196.77	1469.88
1195.85	1461.49
1194.93	1401.59
1194	1390.5
1193.08	1449.87
1192.16	1492.97
1191.24	1422.27
1190.31	1375.97
1189.39	1375.73
1188.47	1407.97
1187.54	1445.63
1186.62	1439.96
1185.7	1442.41
1184.77	1425.92
1183.85	1496
1182.92	1403.77
1182	1408.93
1181.07	1324.87
1180.15	1311.12
1179.23	1400.08
1178.3	1372.81
1177.37	1404.99
1176.45	1293.98
1175.52	1369.38
1174.6	1347.53
1173.67	1387.79
1172.75	1387.55
1171.82	1268.54
1170.89	1265.62
1169.97	1257.3
1169.04	1300.24
1168.11	1332.37
1167.19	1340.23
1166.26	1307.64
1165.33	1285.84
1164.4	1352.99
1163.48	1271.91
1162.55	1282.46
1161.62	1279.54
1160.69	1238.91
1159.76	1230.62
1158.83	1289.63
1157.91	1238.25
1156.98	1289.17
1156.05	1251.27
1155.12	1229.52
1154.19	1226.62
1153.26	1177.99
1152.33	1188.54
1151.4	1242.1
1150.47	1214.99
1149.54	1120.71
1148.61	1168.88
1147.68	1208.97
1146.75	1152.35
1145.82	1189.75
1144.89	1165.37
1143.96	1108.78
1143.02	1164.95
1142.09	1151.33
1141.16	1108.19
1140.23	1140.19
1139.3	1142.67
1138.36	1155.87
1137.43	1110.09
1136.5	1131.34
1135.57	1141.86
1134.63	1080.02
1133.7	1154.85
1132.77	1119.82
1131.83	1130.33
1130.9	1084.6
1129.97	1143.32
1129.03	1076.19
1128.1	1126.85
1127.17	1067.78
1126.23	1016.75
1125.3	1091.47
1124.36	1027.09
1123.43	1136.55
1122.49	1104.26
1121.56	1023.86
1120.62	1106.54
1119.69	1074.27
1118.75	1058.05
1117.81	1089.92
1116.88	1041.65
1115.94	1022.77
1115.01	1046.62
1114.07	1001.05
1113.13	960.84
1112.2	1054.07
1111.26	979.174
1110.32	989.67
1109.38	965.49
1108.45	1005.32
1107.51	951.816
1106.57	1031.62
1105.63	1063.42
1104.69	937.984
1103.76	993.766
1102.82	942.977
1101.88	982.759
1100.94	945.304
1100	942.473
1099.06	974.248
1098.12	995.366
1097.18	968.579
1096.24	1016.29
1095.3	954.934
1094.36	952.104
1093.42	933.322
1092.48	935.814
1091.54	962.228
1090.6	980.66
1089.66	967.199
1088.72	940.46
1087.78	932.324
1086.84	905.6
1085.9	958.544
1084.95	915.896
1084.01	921.042
1083.07	915.57
1082.13	928.673
1081.19	960.342
1080.24	880.599
1079.3	869.834
1078.36	912.102
1077.41	901.335
1076.47	919.728
1075.53	906.314
1074.58	890.255
1073.64	876.85
1072.7	847.559
1071.75	924.204
1070.81	852.552
1069.86	815.339
1068.92	846.954
1067.98	841.51
1067.03	902.213
1066.09	875.599
1065.14	835.77
1064.19	827.687
1063.25	835.471
1062.3	843.252
1061.36	874.817
1060.41	821.811
1059.46	850.726
1058.52	871.706
1057.57	855.704
1056.63	855.551
1055.68	842.198
1054.73	828.849
1053.78	797.031
1052.84	862.856
1051.89	807.299
1050.94	865.185
1049.99	820.197
1049.05	859.602
1048.1	806.722
1047.15	793.398
1046.2	790.621
1045.25	798.384
1044.3	850.93
1043.35	800.732
1042.4	800.589
1041.45	795.18
1040.5	816.098
1039.55	810.688
1038.6	757.91
1037.65	828.816
1036.7	857.605
1035.75	783.806
1034.8	823.112
1033.85	812.447
1032.9	743.953
1031.95	793.758
1031	780.476
1030.05	790.846
1029.1	756.555
1028.14	793.189
1027.19	779.917
1026.24	779.778
1025.29	748.138
1024.33	690.263
1023.38	745.245
1022.43	758.23
1021.48	805.311
1020.52	752.713
1019.57	742.089
1018.62	762.93
1017.66	836.189
1016.71	775.761
1015.75	744.178
1014.8	780.722
1013.85	728.194
1012.89	759.491
1011.94	769.829
1010.98	717.331
1010.03	753.847
1009.07	756.329
1008.12	758.81
1007.16	693.271
1006.2	714.072
1005.25	747.941
1004.29	721.66
1003.34	752.901
1002.38	734.47
1001.42	736.951
1000.47	718.529
999.508	718.4
998.551	660.81
997.594	799.097
996.636	704.959
995.679	730.937
994.721	722.976
993.763	735.894
992.805	756.634
991.846	785.193
990.888	730.281
989.929	745.796
988.97	701.339
988.011	716.854
987.052	703.694
986.093	713.99
985.133	747.732
984.173	750.202
983.213	737.045
982.253	708.27
981.293	736.78
980.333	661.161
979.372	718.298
978.411	694.75
977.45	728.446
976.489	717.911
975.528	743.788
974.566	689.05
973.605	712.324
972.643	751.185
971.681	662.691
970.719	717.136
969.756	719.605
968.794	703.891
967.831	742.718
966.868	662.095
965.905	680.148
964.942	695.598
963.979	695.473
963.015	736.861
962.052	749.699
961.088	736.596
960.124	757.209
959.159	653.364
958.195	686.946
957.23	679.047
956.266	728.159
955.301	686.575
954.336	691.632
953.37	686.327
952.405	756.119
951.439	660.19
950.473	683.368
949.507	662.541
948.541	696.06
947.575	693.347
946.608	659.596
945.642	749.993
944.675	711.072
943.708	716.115
942.741	664.29
941.773	700.351
940.806	695.057
939.838	689.765
938.87	692.223
937.902	728.253
936.934	722.958
935.965	730.572
934.997	735.602
934.028	673.535
933.059	704.375
932.09	706.828
931.121	691.225
930.151	662.734
929.182	683.241
928.212	688.273
927.242	680.417
926.272	677.717
925.301	700.783
924.331	708.384
923.36	700.53
922.389	687.528
921.418	656.51
920.447	713.021
919.475	679.435
918.504	697.324
917.532	648.317
916.56	686.784
915.588	624.937
914.616	665.965
913.643	678.699
912.671	727.413
911.698	701.583
910.725	737.428
909.752	691.054
908.779	672.949
907.805	657.419
906.831	636.76
905.858	667.45
904.883	739.196
903.909	621.018
902.935	687.614
901.96	751.621
900.986	689.93
900.011	669.291
899.036	671.734
898.06	710.063
897.085	686.868
896.109	714.931
895.133	671.248
894.157	658.319
893.181	668.444
892.205	716.975
891.229	719.405
890.252	678.32
889.275	685.875
888.298	678.074
887.321	677.952
886.343	677.829
885.366	695.608
884.388	667.356
883.41	703.025
882.432	702.898
881.454	664.438
880.475	723.084
879.497	676.97
878.518	643.644
877.539	722.691
876.56	722.561
875.58	633.083
874.601	704.433
873.621	750.238
872.641	681.215
871.661	729.559
870.681	660.565
869.701	739.494
868.72	652.677
867.739	662.755
866.758	680.475
865.777	703.285
864.796	670.037
863.815	672.463
862.833	672.341
861.851	690.043
860.869	659.368
859.887	684.702
858.905	725.296
857.922	732.798
856.939	727.577
855.956	668.944
854.973	701.883
853.99	681.415
853.007	686.375
852.023	671.001
851.039	673.42
850.055	719.031
849.071	685.877
848.087	675.593
847.102	670.392
846.118	693.12
845.133	705.687
844.148	725.862
843.163	713.043
842.177	707.839
841.192	755.906
840.206	659.396
839.22	740.418
838.234	684.508
837.248	638.758
836.261	666.52
835.274	663.865
834.288	656.144
833.301	686.42
832.313	686.295
831.326	668.446
830.339	736.676
829.351	675.796
828.363	657.959
827.375	726.154
826.387	751.319
825.398	675.305
824.409	690.355
823.421	675.06
822.432	662.297
821.443	707.67
820.453	634.26
819.464	682.148
818.474	697.18
817.484	671.798
816.494	679.251
815.504	711.947
814.513	709.294
813.523	656.166
812.532	653.524
811.541	681.156
810.55	660.853
809.559	675.864
808.567	640.441
807.575	720.995
806.583	695.659
805.591	672.852
804.599	750.836
803.607	692.76
802.614	727.895
801.621	677.398
800.628	697.417
799.635	669.599
798.642	707.23
797.649	714.65
796.655	699.424
795.661	709.359
794.667	714.259
793.673	746.818
792.678	693.886
791.684	723.923
790.689	726.305
789.694	728.685
788.699	688.356
787.704	720.884
786.708	703.173
785.713	703.045
784.717	728.021
783.721	722.868
782.724	665.018
781.728	725.113
780.731	709.93
779.735	719.833
778.738	717.194
777.741	719.57
776.743	641.729
775.746	701.763
774.748	704.141
773.75	668.937
772.752	716.409
771.754	691.233
770.756	691.107
769.757	706.002
768.758	670.83
767.759	708.247
766.76	680.594
765.761	675.466
764.761	695.353
763.762	672.718
762.762	695.099
761.762	714.971
760.762	692.345
759.761	674.726
758.761	677.101
757.76	679.475
756.759	646.882
755.758	741.656
754.756	741.52
753.755	678.979
752.753	711.3
751.751	668.749
750.749	738.483
749.747	703.426
748.745	723.25
747.742	688.208
746.739	648.193
745.736	752.764
744.733	720.228
743.73	695.18
742.726	697.544
741.723	737.269
740.719	702.269
739.715	714.59
738.71	709.481
737.706	674.505
736.701	726.64
735.697	671.77
734.692	701.498
733.686	756.087
732.681	693.782
731.675	716.031
730.67	755.672
729.664	668.547
728.658	710.668
727.651	665.818
726.645	727.795
725.638	700.343
724.631	655.52
723.624	705.052
722.617	707.405
721.61	742.018
720.602	692.258
719.595	716.939
718.587	682.083
717.578	776.192
716.57	689.271
715.562	686.666
714.553	748.502
713.544	711.195
712.535	720.975
711.526	733.228
710.516	676.13
709.507	740.388
708.497	668.455
707.487	680.709
706.477	685.534
705.467	772.012
704.456	707.548
703.445	764.308
702.434	744.383
701.423	704.686
700.412	709.5
699.401	748.917
698.389	699.355
697.377	676.99
696.365	736.153
695.353	691.561
694.34	750.699
693.328	691.307
692.315	718.333
691.302	700.925
690.289	752.616
689.276	708.069
688.262	730.139
687.249	693.011
686.235	705.213
685.221	727.271
684.206	709.884
683.192	704.824
682.177	751.51
681.162	711.956
680.147	711.825
679.132	691.993
678.117	728.798
677.101	691.739
676.086	735.914
675.07	743.161
674.054	735.644
673.037	752.728
672.021	683.725
671.004	745.074
669.987	742.478
668.97	769.38
667.953	678.307
666.936	710.125
665.918	712.451
664.9	722.145
663.882	758.85
662.864	753.799
661.846	763.48
660.827	719.159
659.808	731.297
658.789	758.152
657.77	733.481
656.751	662.219
655.731	769.994
654.712	733.076
653.692	745.197
652.672	745.06
651.652	730.22
650.631	720.286
649.611	737.3
648.59	712.674
647.569	734.58
646.548	700.17
645.526	712.28
644.505	746.41
643.483	751.166
642.461	731.457
641.439	709.309
640.417	740.969
639.394	738.387
638.371	723.584
637.348	735.671
636.325	794.183
635.302	725.627
634.279	759.691
633.255	722.917
632.231	781.388
631.207	732.416
630.183	768.895
629.159	746.789
628.134	722.25
627.109	751.392
626.084	756.132
625.059	760.87
624.034	755.853
623.008	755.713
621.983	784.822
620.957	711.57
619.931	728.494
618.904	706.436
617.878	733.096
616.851	764.617
615.824	691.437
614.797	739.993
613.77	766.627
612.743	768.919
611.715	705.523
610.687	749.175
609.659	746.605
608.631	753.762
607.603	758.484
606.574	721.885
605.546	760.634
604.517	726.478
603.487	767.641
602.458	721.352
601.429	798.926
600.399	784.21
599.369	769.501
598.339	754.796
597.309	737.671
596.278	737.535
595.248	759.229
594.217	696.033
593.186	732.276
592.155	778.202
591.123	744.124
590.091	739.14
589.06	797.154
588.028	753.401
586.996	736.308
585.963	702.269
584.931	772.352
583.898	731.057
582.865	740.603
581.832	754.985
580.798	764.523
579.765	769.219
578.731	759.403
577.697	778.606
576.663	763.956
575.629	749.312
574.594	778.174
573.56	739.37
572.525	811.706
571.49	753.588
570.455	780.012
569.419	765.381
568.384	791.793
567.348	753.029
566.312	726.346
565.276	740.687
564.239	771.908
563.203	795.883
562.166	839.139
561.129	776.301
560.092	773.746
559.054	804.933
558.017	742.136
556.979	770.907
555.941	751.495
554.903	751.355
553.865	799.371
552.826	746.262
551.787	794.261
550.749	738.766
549.709	789.154
548.67	805.846
547.631	788.861
546.591	721.385
545.551	747.697
544.511	706.695
543.471	735.403
542.43	759.295
541.39	773.569
540.349	787.836
539.308	746.865
538.267	780.341
537.225	758.59
536.184	724.847
535.142	803.903
534.1	753.369
533.058	753.229
532.015	762.683
530.973	745.756
529.93	724.04
528.887	697.538
527.844	778.892
526.801	745.201
525.757	745.063
524.713	697.019
523.669	735.206
522.625	775.774
521.581	715.782
520.537	751.551
519.492	777.734
518.447	765.627
517.402	734.386
516.357	762.95
515.311	774.764
514.265	765.057
513.22	741.011
512.174	759.993
511.127	721.62
510.081	723.874
509.034	704.631
507.987	680.619
506.94	685.267
505.893	713.787
504.846	692.172
503.798	699.203
502.75	699.072
501.702	739.495
500.654	748.898
499.606	770.219
