3200.54	0
3199.95	16.8392
3199.35	50.5099
3198.76	0
3198.16	29.4552
3197.57	42.0725
3196.98	37.8595
3196.38	33.6478
3195.79	29.4374
3195.19	37.8423
3194.6	25.2244
3194	25.2206
3193.41	16.8112
3192.81	0
3192.22	8.40305
3191.62	8.40178
3191.03	29.4018
3190.43	25.1977
3189.84	58.7858
3189.24	25.1901
3188.65	46.1749
3188.05	46.1679
3187.45	37.768
3186.86	37.7623
3186.26	29.3662
3185.67	33.5563
3185.07	33.5512
3184.47	29.3529
3183.88	20.9632
3183.28	20.96
3182.69	29.3396
3182.09	-4.19073
3181.49	-16.7604
3180.9	16.7579
3180.3	16.7553
3179.7	29.3174
3179.1	8.37512
3178.51	25.1216
3177.91	20.9315
3177.31	8.37132
3176.72	4.18503
3176.12	12.5532
3175.52	33.4701
3174.92	29.2819
3174.33	20.9125
3173.73	8.36372
3173.13	20.9061
3172.53	-4.18059
3171.93	8.35992
3171.34	8.35865
3170.74	12.5361
3170.14	37.6025
3169.54	20.8871
3168.94	12.5304
3168.34	20.8808
3167.74	12.5266
3167.15	12.5247
3166.55	12.5228
3165.95	29.2154
3165.35	50.076
3164.75	25.0342
3164.15	16.6869
3163.55	20.8555
3162.95	12.5114
3162.35	54.2079
3161.75	16.6768
3161.15	12.5057
3160.55	8.33588
3159.95	37.5058
3159.35	37.5001
3158.75	20.8302
3158.15	12.4962
3157.55	16.6591
3156.95	41.6415
3156.35	20.8176
3155.75	45.7918
3155.15	37.4603
3154.55	12.4849
3153.95	20.805
3153.35	0
3152.75	49.9168
3152.15	4.1591
3151.54	24.9508
3150.94	24.947
3150.34	41.5721
3149.74	29.096
3149.14	37.4035
3148.54	16.6213
3147.94	37.3922
3147.33	33.2324
3146.73	8.30685
3146.13	12.4584
3145.53	-4.15216
3144.93	8.30307
3144.32	16.6036
3143.72	29.0519
3143.12	-8.29929
3142.52	29.0431
3141.91	37.3355
3141.31	12.4433
3140.71	41.4712
3140.1	12.4395
3139.5	37.3128
3138.9	16.5809
3138.29	8.28921
3137.69	29.0078
3137.09	8.2867
3136.48	33.1417
3135.88	45.563
3135.28	8.28292
3134.67	28.9858
3134.07	49.6824
3133.47	20.6979
3132.86	20.6947
3132.26	0
3131.65	8.27537
3131.05	0
3130.45	24.8186
3129.84	37.2222
3129.24	12.4055
3128.63	8.26909
3128.03	37.2052
3127.42	41.3329
3126.82	41.3266
3126.21	8.26406
3125.61	12.3942
3125	33.0462
3124.4	28.911
3123.79	12.3886
3123.19	8.25778
3122.58	8.25652
3121.97	4.12763
3121.37	28.889
3120.76	8.25276
3120.16	33.006
3119.55	16.5005
3118.94	12.3735
3118.34	37.1148
3117.73	16.493
3117.13	41.2262
3116.52	24.7319
3115.91	12.3641
3115.31	20.6037
3114.7	12.3603
3114.09	32.9558
3113.48	32.9508
3112.88	28.8276
3112.27	24.7056
3111.66	37.0528
3111.06	24.6981
3110.45	32.9258
3109.84	20.5755
3109.23	32.9157
3108.63	37.0246
3108.02	24.6793
3107.41	28.7881
3106.8	24.6718
3106.19	28.7794
3105.59	45.2178
3104.98	49.321
3104.37	16.4378
3103.76	12.3265
3103.15	12.3246
3102.54	36.9682
3101.93	24.6417
3101.33	53.3823
3100.72	53.3742
3100.11	16.4203
3099.5	24.6267
3098.89	32.8306
3098.28	41.032
3097.67	32.8206
3097.06	28.7137
3096.45	32.8106
3095.84	32.8056
3095.23	8.20016
3094.62	40.9945
3094.01	20.4941
3093.4	20.491
3092.79	45.0734
3092.18	45.0665
3091.57	53.2523
3090.96	40.9571
3090.35	32.7607
3089.74	49.1335
3089.13	69.5952
3088.52	49.1185
3087.91	36.8333
3087.3	77.7473
3086.69	57.2787
3086.08	81.8143
3085.46	81.8018
3084.85	61.342
3084.24	53.155
3083.63	77.6762
3083.02	77.6643
3082.41	77.6525
3081.79	89.8997
3081.18	98.0574
3080.57	114.383
3079.96	118.45
3079.35	98.0125
3078.73	122.497
3078.12	102.065
3077.51	89.8037
3076.9	106.115
3076.28	110.18
3075.67	106.083
3075.06	101.987
3074.45	89.7352
3073.83	93.7998
3073.22	53.0092
3072.61	81.5401
3071.99	73.3749
3071.38	89.6667
3070.77	73.3525
3070.15	57.0432
3069.54	89.6257
3068.93	89.612
3068.31	65.1624
3067.7	105.873
3067.08	48.8569
3066.47	77.3449
3065.86	56.9823
3065.24	48.8345
3064.63	32.5514
3064.01	69.1611
3063.4	52.8798
3062.78	48.8047
3062.17	24.3986
3061.55	56.9214
3060.94	40.6519
3060.32	52.8394
3059.71	44.7034
3059.09	40.6333
3058.48	24.3762
3057.86	77.1796
3057.25	60.922
3056.63	40.6084
3056.02	44.6625
3055.4	28.4172
3054.78	40.5898
3054.17	36.5253
3053.55	60.8661
3052.94	16.2285
3052.32	60.8475
3051.7	48.6706
3051.09	36.4973
3050.47	28.3825
3049.85	8.10804
3049.24	28.3738
3048.62	52.6861
3048	24.313
3047.39	56.7216
3046.77	20.2546
3046.15	44.5533
3045.53	24.2981
3044.92	40.4906
3044.3	32.3875
3043.68	16.1913
3043.06	40.472
3042.45	12.1398
3041.83	20.2298
3041.21	16.1814
3040.59	52.5815
3039.97	28.3088
3039.35	32.3479
3038.74	48.5144
3038.12	44.4648
3037.5	24.2498
3036.88	32.3281
3036.26	24.2424
3035.64	44.4375
3035.02	28.2741
3034.41	24.2312
3033.79	36.3413
3033.17	20.1865
3032.55	20.1834
3031.93	28.2525
3031.31	36.319
3030.69	0
3030.07	20.1711
3029.45	40.3359
3028.83	28.2308
3028.21	20.1618
3027.59	36.2857
3026.97	24.1867
3026.35	8.06101
3025.73	32.2391
3025.11	32.2342
3024.49	16.1146
3023.87	12.0841
3023.25	52.3564
3022.63	28.1876
3022	16.1047
3021.38	44.2812
3020.76	36.2246
3020.14	24.146
3019.52	32.1897
3018.9	20.1155
3018.28	20.1124
3017.66	56.3061
3017.03	28.1487
3016.41	24.1238
3015.79	48.2402
3015.17	52.2522
3014.55	40.1878
3013.92	52.2362
3013.3	28.1229
3012.68	48.2032
3012.06	48.1958
3011.43	52.2041
3010.81	48.181
3010.19	48.1736
3009.57	44.1524
3008.94	52.1721
3008.32	40.1262
3007.7	56.1681
3007.07	64.1823
3006.45	28.0754
3005.83	76.1931
3005.2	56.1336
3004.58	24.0536
3003.96	40.0831
3003.33	64.1232
3002.71	72.1275
3002.08	88.1423
3001.46	40.0585
3000.84	68.0891
3000.21	48.0555
2999.59	68.0682
2998.96	68.0577
2998.34	64.0445
2997.71	68.0368
2997.09	36.014
2996.46	52.0122
2995.84	48.0039
2995.21	67.995
2994.59	75.9828
2993.96	43.9833
2993.34	47.9744
2992.71	27.9808
2992.09	47.9596
2991.46	19.9801
2990.84	67.9219
2990.21	75.9011
2989.58	31.9534
2988.96	19.9678
2988.33	59.8943
2987.71	55.8928
2987.08	39.9173
2986.45	39.9111
2985.83	55.867
2985.2	43.8887
2984.57	51.8605
2983.95	63.8185
2983.32	59.8207
2982.69	43.8618
2982.07	55.8155
2981.44	55.8069
2980.81	55.7983
2980.18	39.8498
2979.56	79.6874
2978.93	51.7888
2978.3	59.7471
2977.67	83.6331
2977.05	79.6383
2976.42	67.6822
2975.79	51.749
2975.16	99.502
2974.53	59.692
2973.91	79.5771
2973.28	79.5649
2972.65	71.5974
2972.02	83.5174
2971.39	71.5753
2970.76	31.8064
2970.13	79.5037
2969.5	99.3643
2968.88	91.4011
2968.25	83.4403
2967.62	103.291
2966.99	79.4425
2966.36	79.4303
2965.73	91.3308
2965.1	83.3761
2964.47	87.333
2963.84	103.196
2963.21	71.4322
2962.58	99.1962
2961.95	63.4758
2961.32	118.999
2960.69	99.1503
2960.06	122.927
2959.43	87.2254
2958.8	91.1762
2958.17	59.4536
2957.53	87.1851
2956.9	87.1717
2956.27	87.1583
2955.64	47.5335
2955.01	99.013
2954.38	79.1982
2953.75	95.0232
2953.12	55.4216
2952.48	87.0777
2951.85	87.0643
2951.22	98.9214
2950.59	98.9062
2949.96	79.1128
2949.33	75.1455
2948.69	43.4986
2948.06	35.5843
2947.43	59.298
2946.8	75.0992
2946.16	63.2317
2945.53	79.0274
2944.9	67.163
2944.26	51.352
2943.63	78.9909
2943	55.2851
2942.37	71.0699
2941.73	31.5817
2941.1	55.2595
2940.47	86.823
2939.83	55.2425
2939.2	59.1792
2938.56	55.2254
2937.93	90.7135
2937.3	63.0953
2936.66	59.1427
2936.03	55.1913
2935.39	19.7081
2934.76	47.2923
2934.13	55.1658
2933.49	31.5184
2932.86	59.088
2932.22	70.8946
2931.59	0
2930.95	51.1859
2930.32	39.3677
2929.68	70.8508
2929.05	59.0332
2928.41	66.894
2927.78	51.1463
2927.14	31.4698
2926.5	39.3312
2925.87	47.1901
2925.23	51.1148
2924.6	47.1756
2923.96	55.0297
2923.32	58.9512
2922.69	31.4358
2922.05	62.8619
2921.42	47.1391
2920.78	39.2766
2920.14	19.6352
2919.51	51.0437
2918.87	54.9617
2918.23	43.1775
2917.6	58.8693
2916.96	47.0882
2916.32	58.8511
2915.68	54.9192
2915.05	35.2998
2914.41	39.2159
2913.77	39.2098
2913.13	47.0445
2912.5	78.3954
2911.86	47.03
2911.22	78.3712
2910.58	66.6052
2909.94	66.5949
2909.31	66.5846
2908.67	50.9098
2908.03	58.733
2907.39	35.2343
2906.75	66.5434
2906.11	82.188
2905.47	31.3049
2904.83	46.95
2904.2	62.5904
2903.56	62.5807
2902.92	74.3031
2902.28	58.6512
2901.64	101.646
2901	42.9976
2900.36	58.624
2899.72	42.9843
2899.08	31.2565
2898.44	39.0645
2897.8	70.3053
2897.16	54.6734
2896.52	39.0464
2895.88	74.1767
2895.24	19.5172
2894.6	31.2226
2893.96	58.5333
2893.32	19.5081
2892.67	39.0101
2892.03	35.1037
2891.39	62.3969
2890.75	35.0928
2890.11	35.0874
2889.47	50.6739
2888.83	54.5635
2888.19	42.8647
2887.54	42.858
2886.9	62.3293
2886.26	50.6347
2885.62	42.8381
2884.98	62.3003
2884.33	70.077
2883.69	23.3554
2883.05	58.3794
2882.41	50.5876
2881.77	50.5798
2881.12	42.7917
2880.48	46.6746
2879.84	50.5563
2879.19	11.665
2878.55	54.4283
2877.91	23.3228
2877.26	50.5249
2876.62	38.8593
2875.98	27.1973
2875.33	42.732
2874.69	50.4936
2874.05	42.7187
2873.4	46.595
2872.76	38.8232
2872.11	31.0537
2871.47	38.8111
2870.83	38.8051
2870.18	73.7183
2869.54	62.0689
2868.89	31.0296
2868.25	23.2686
2867.6	31.02
2866.96	46.5228
2866.31	34.8867
2865.67	42.6327
2865.02	69.7517
2864.38	54.2429
2863.73	38.7389
2863.09	23.2397
2862.44	46.4723
2861.8	34.8488
2861.15	42.5864
2860.5	34.838
2859.86	54.184
2859.21	54.1756
2858.57	46.429
2857.92	27.0794
2857.27	61.8861
2856.63	61.8765
2855.98	50.2669
2855.33	54.1251
2854.69	57.9822
2854.04	50.2434
2853.39	30.9142
2852.75	30.9094
2852.1	50.22
2851.45	54.0747
2850.81	30.895
2850.16	34.7515
2849.51	38.6068
2848.86	23.1605
2848.21	50.1732
2847.57	46.3066
2846.92	42.4411
2846.27	57.8652
2845.62	26.9996
2844.97	38.5648
2844.33	57.8382
2843.68	23.1317
2843.03	26.9828
2842.38	57.8113
2841.73	46.2418
2841.08	46.2346
2840.43	38.5229
2839.78	57.7753
2839.14	57.7663
2838.49	57.7574
2837.84	53.8985
2837.19	30.7943
2836.54	50.033
2835.89	53.8733
2835.24	53.865
2834.59	69.2442
2833.94	50.0019
2833.29	46.1484
2832.64	30.7608
2831.99	42.2896
2831.34	38.4391
2830.69	57.6496
2830.04	53.7979
2829.39	38.4211
2828.74	49.9397
2828.08	53.7728
2827.43	34.5629
2826.78	30.7178
2826.13	53.7477
2825.48	49.9008
2824.83	49.8931
2824.18	49.8853
2823.53	65.2245
2822.87	26.853
2822.22	42.1909
2821.57	46.0193
2820.92	53.6808
2820.27	61.34
2819.61	57.4972
2818.96	42.1581
2818.31	38.3196
2817.66	45.9763
2817	68.9537
2816.35	57.4525
2815.7	34.4661
2815.05	45.9477
2814.39	53.5973
2813.74	61.2445
2813.09	45.9262
2812.43	30.6127
2811.78	49.7379
2811.13	53.5555
2810.47	53.5472
2809.82	61.1872
2809.16	26.7652
2808.51	76.4602
2807.86	45.869
2807.2	38.2182
2806.55	57.3183
2805.89	72.5919
2805.24	76.4006
2804.58	64.9304
2803.93	61.1014
2803.28	53.4554
2802.62	61.0824
2801.97	61.0728
2801.31	49.6139
2800.66	41.9745
2800	34.3374
2799.34	45.7761
2798.69	34.3267
2798.03	22.8809
2797.38	38.1289
2796.72	49.5598
2796.07	72.4222
2795.41	83.8442
2794.75	41.9156
2794.1	64.7685
2793.44	41.9025
2792.79	53.3221
2792.13	34.2732
2791.47	38.0753
2790.82	53.2972
2790.16	57.0952
2789.5	53.2805
2788.84	57.0774
2788.19	38.0456
2787.53	53.2556
2786.87	30.427
2786.22	64.6473
2785.56	60.835
2784.9	53.2223
2784.24	72.219
2783.59	72.2077
2782.93	91.1955
2782.27	41.7914
2781.61	53.1808
2780.95	60.7685
2780.29	72.1513
2779.64	87.3274
2778.98	37.9625
2778.32	49.3436
2777.66	53.1309
2777	41.7392
2776.34	64.496
2775.68	41.7262
2775.02	75.8539
2774.36	37.921
2773.71	45.4981
2773.05	56.8637
2772.39	56.8548
2771.73	53.0562
2771.07	45.4697
2770.41	56.8282
2769.75	64.3952
2769.09	41.661
2768.43	56.8015
2767.77	37.8618
2767.11	45.427
2766.45	37.8499
2765.79	41.6284
2765.12	45.4057
2764.46	45.3986
2763.8	45.3915
2763.14	56.7305
2762.48	71.8474
2761.82	52.9319
2761.16	41.5828
2760.5	45.356
2759.83	56.6861
2759.17	41.5633
2758.51	64.2242
2757.85	64.2141
2757.19	52.8739
2756.53	49.0895
2755.86	41.5308
2755.2	60.399
2754.54	52.8408
2753.88	52.8326
2753.21	79.2364
2752.55	67.9063
2751.89	52.8077
2751.23	26.3997
2750.56	67.8744
2749.9	52.7829
2749.24	64.0835
2748.57	41.4593
2747.91	60.295
2747.25	15.0714
2746.58	56.5089
2745.92	64.0334
2745.25	45.1929
2744.59	67.7788
2743.93	60.2384
2743.26	75.2862
2742.6	33.8735
2741.93	63.9732
2741.27	60.2006
2740.61	71.477
2739.94	63.9431
2739.28	71.4546
2738.61	48.8823
2737.95	75.1918
2737.28	71.421
2736.62	56.3762
2735.95	56.3673
2735.29	45.0868
2734.62	41.3231
2733.95	41.3166
2733.29	48.8211
2732.62	30.039
2731.96	63.8229
2731.29	71.3203
2730.62	52.5436
2729.96	30.0202
2729.29	52.5271
2728.63	63.7729
2727.96	60.0121
2727.29	52.5024
2726.63	44.995
2725.96	48.7369
2725.29	74.9681
2724.62	44.9738
2723.96	71.1973
2723.29	67.4395
2722.62	33.7145
2721.96	59.9274
2721.29	67.4078
2720.62	59.9086
2719.95	74.874
2719.28	71.1191
2718.62	63.6229
2717.95	37.4194
2717.28	59.8616
2716.61	48.6299
2715.94	56.1026
2715.27	37.3959
2714.61	44.868
2713.94	56.0762
2713.27	48.5917
2712.6	18.6862
2711.93	67.2597
2711.26	41.0967
2710.59	78.445
2709.92	70.9629
2709.25	59.7489
2708.58	63.4732
2707.91	52.2638
2707.24	29.8603
2706.57	100.763
2705.9	55.9706
2705.23	59.6925
2704.56	55.953
2703.89	63.4034
2703.22	63.3934
2702.55	67.1119
2701.88	52.1899
2701.21	67.0908
2700.54	18.6334
2699.87	74.5219
2699.2	67.0592
2698.53	40.9742
2697.86	67.0381
2697.19	63.3038
2696.51	67.017
2695.84	74.4516
2695.17	63.2739
2694.5	40.9355
2693.83	63.254
2693.15	52.0833
2692.48	74.3931
2691.81	70.6623
2691.14	59.4957
2690.47	55.7685
2689.79	48.3251
2689.12	59.4676
2688.45	55.7421
2687.77	59.4489
2687.1	70.5845
2686.43	74.2878
2685.76	81.7037
2685.08	55.6983
2684.41	77.9653
2683.74	70.5289
2683.06	66.8064
2682.39	66.7959
2681.71	81.6265
2681.04	55.6457
2680.37	63.0552
2679.69	66.7538
2679.02	55.6194
2678.34	74.1475
2677.67	81.5494
2676.99	96.3614
2676.32	66.7012
2675.65	62.9857
2674.97	66.6802
2674.3	59.262
2673.62	81.4724
2672.95	55.5406
2672.27	51.8297
2671.59	55.5231
2670.92	48.1124
2670.24	81.4082
2669.57	55.4968
2668.89	73.9841
2668.22	99.8628
2667.54	59.1686
2666.86	40.672
2666.19	55.4531
2665.51	85.0147
2664.83	73.9142
2664.16	84.9879
2663.48	40.64
2662.8	70.1853
2662.13	59.0941
2661.45	81.2415
2660.77	70.1521
2660.1	88.5991
2659.42	92.2762
2658.74	66.4284
2658.06	62.728
2657.39	62.7181
2656.71	92.218
2656.03	59.0102
2655.35	62.6885
2654.68	55.3046
2654	58.9823
2653.32	47.9155
2652.64	62.6489
2651.96	81.0622
2651.28	66.3132
2650.6	69.9862
2649.93	84.7068
2649.25	69.9641
2648.57	80.9983
2647.89	69.942
2647.21	44.1669
2646.53	80.9599
2645.85	55.1912
2645.17	66.219
2644.49	51.4955
2643.81	91.9418
2643.13	77.2189
2642.45	66.1772
2641.77	73.5186
2641.09	69.8316
2640.41	62.4711
2639.73	84.5063
2639.05	51.4305
2638.37	77.1336
2637.69	106.501
2637.01	73.4373
2636.33	80.7683
2635.65	58.7313
2634.96	77.0726
2634.28	77.0605
2633.6	80.7172
2632.92	88.0413
2632.24	88.0273
2631.56	80.679
2630.88	32.9998
2630.19	80.6535
2629.51	62.3133
2628.83	84.2929
2628.15	69.6222
2627.46	65.9475
2626.78	109.895
2626.1	76.9144
2625.42	80.5642
2624.73	87.8743
2624.05	87.8604
2623.37	98.8274
2622.69	91.4923
2622	80.5005
2621.32	76.8292
2620.64	87.791
2619.95	40.2312
2619.27	109.704
2618.58	95.0617
2617.9	58.4903
2617.22	95.0316
2616.53	98.6711
2615.85	95.0016
2615.16	91.3332
2614.48	84.0132
2613.79	76.6956
2613.11	76.6835
2612.43	98.5774
2611.74	83.96
2611.06	76.647
2610.37	80.2842
2609.69	69.3254
2609	72.9625
2608.31	83.8936
2607.63	83.8803
2606.94	76.5742
2606.26	80.2079
2605.57	91.1309
2604.89	91.1165
2604.2	87.458
2603.51	80.1571
2602.83	72.8585
2602.14	87.4164
2601.45	61.9101
2600.77	91.0299
2600.08	61.8905
2599.39	58.2407
2598.71	80.0682
2598.02	65.5
2597.33	101.873
2596.65	76.3924
2595.96	90.9289
2595.27	98.1877
2594.58	54.5401
2593.9	65.4377
2593.21	76.3319
2592.52	79.954
2591.83	83.5751
2591.14	72.6624
2590.46	90.8136
2589.77	98.0632
2589.08	79.8907
2588.39	83.5088
2587.7	101.647
2587.01	90.7416
2586.32	97.9854
2585.64	130.626
2584.95	97.9543
2584.26	87.0567
2583.57	94.2965
2582.88	105.16
2582.19	94.2665
2581.5	83.3764
2580.81	90.6121
2580.12	68.8543
2579.43	57.9733
2578.74	72.4552
2578.05	86.9324
2577.36	76.0538
2576.67	97.7679
2575.98	72.4092
2575.29	68.7778
2574.6	90.4827
2573.91	90.4684
2573.22	90.454
2572.52	83.2044
2571.83	101.276
2571.14	112.11
2570.45	101.244
2569.76	65.0752
2569.07	68.6795
2568.38	90.3534
2567.68	108.407
2566.99	90.3247
2566.3	75.8607
2565.61	68.625
2564.92	75.8366
2564.22	93.878
2563.53	93.8631
2562.84	50.5336
2562.14	93.8333
2561.45	79.3848
2560.76	126.274
2560.07	111.825
2559.37	93.7736
2558.68	39.6671
2557.99	108.166
2557.29	90.1239
2556.6	75.6921
2555.91	93.6991
2555.21	72.0647
2554.52	90.0666
2553.82	82.8481
2553.13	72.0304
2552.44	97.2255
2551.74	79.2082
2551.05	115.194
2550.35	122.374
2549.66	86.3677
2548.96	79.1578
2548.27	68.3527
2547.57	89.9234
2546.88	86.3127
2546.18	97.0864
2545.49	86.2853
2544.79	71.8929
2544.1	100.634
2543.4	114.992
2542.7	93.4162
2542.01	68.2548
2541.31	86.2029
2540.62	114.919
2539.92	64.6316
2539.22	68.2113
2538.53	86.148
2537.83	82.5453
2537.13	71.7671
2536.44	78.9312
2535.74	78.9187
2535.04	89.666
2534.35	100.41
2533.65	82.4665
2532.95	100.378
2532.25	96.7776
2531.56	86.0108
2530.86	85.9971
2530.16	96.7313
2529.46	68.0594
2528.76	111.027
2528.07	89.5232
2527.37	57.2857
2526.67	75.1755
2525.97	85.9012
2525.27	93.0448
2524.57	103.764
2523.88	93.0151
2523.18	82.2695
2522.48	67.9509
2521.78	107.274
2521.08	107.257
2520.38	92.941
2519.68	85.778
2518.98	100.058
2518.28	78.6048
2517.58	110.744
2516.88	92.8669
2516.18	85.7096
2515.48	82.1253
2514.78	78.5421
2514.08	64.2514
2513.38	117.776
2512.68	114.188
2511.98	92.7632
2511.28	117.719
2510.58	82.0336
2509.88	96.2849
2509.17	74.8763
2508.47	106.949
2507.77	81.9812
2507.07	106.915
2506.37	92.6448
2505.67	99.7554
2504.97	99.7395
2504.26	110.408
2503.56	78.3417
2502.86	99.6917
2502.16	81.8765
2501.45	85.4227
2500.75	113.879
2500.05	88.9536
2499.35	103.17
2498.64	88.9252
2497.94	81.7981
2497.24	106.676
2496.53	110.214
2495.83	92.4231
2495.13	95.9625
2494.42	88.8399
2493.72	110.144
2493.02	81.7066
2492.31	95.9011
2491.61	60.3725
2490.9	99.4212
2490.2	99.4053
2489.5	78.0917
2488.79	92.2754
2488.09	85.1637
2487.38	99.3418
2486.68	63.8524
2485.97	109.95
2485.27	81.563
2484.56	99.2782
2483.86	74.4468
2483.15	70.8903
2482.45	102.775
2481.74	81.4978
2481.04	99.1989
2480.33	127.521
2479.62	102.709
2478.92	70.8223
2478.21	106.216
2477.51	84.9596
2476.8	84.946
2476.09	102.627
2475.39	88.4571
2474.68	102.594
2473.97	109.652
2473.27	84.878
2472.56	99.0085
2471.85	106.064
2471.14	91.907
2470.44	88.358
2469.73	84.8101
2469.02	84.7965
2468.31	109.511
2467.61	127.154
2466.9	105.945
2466.19	81.2113
2465.48	81.1983
2464.77	98.8342
2464.07	95.2892
2463.36	77.6306
2462.65	74.09
2461.94	95.2434
2461.23	98.7551
2460.52	95.2128
2459.81	102.249
2459.1	81.0812
2458.4	119.84
2457.69	98.676
2456.98	88.0894
2456.27	91.5983
2455.56	77.4938
2454.85	102.135
2454.14	105.64
2453.43	98.5811
2452.72	91.5249
2452.01	112.628
2451.3	102.053
2450.59	109.073
2449.88	91.4662
2449.16	77.3821
2448.45	126.605
2447.74	109.003
2447.03	105.47
2446.32	165.21
2445.61	123.009
2444.9	91.3635
2444.19	94.8623
2443.47	101.873
2442.76	91.3196
2442.05	115.887
2441.34	101.824
2440.63	126.382
2439.91	105.301
2439.2	115.813
2438.49	115.794
2437.78	143.842
2437.06	77.1712
2436.35	91.1877
2435.64	112.213
2434.93	101.677
2434.21	101.66
2433.5	112.159
2432.79	122.654
2432.07	140.154
2431.36	94.5885
2430.64	98.0761
2429.93	115.571
2429.22	136.562
2428.5	115.534
2427.79	133.018
2427.07	118.997
2426.36	76.9855
2425.65	104.963
2424.93	104.946
2424.22	136.409
2423.5	115.404
2422.79	104.896
2422.07	87.3992
2421.36	97.8714
2420.64	111.835
2419.92	108.323
2419.21	90.8367
2418.49	104.795
2417.78	129.226
2417.06	125.713
2416.35	97.7613
2415.63	143.127
2414.91	104.711
2414.2	115.163
2413.48	132.591
2412.76	111.637
2412.05	122.084
2411.33	115.089
2410.61	108.096
2409.9	118.538
2409.18	125.491
2408.46	97.5884
2407.74	139.39
2407.03	111.494
2406.31	97.5413
2405.59	104.492
2404.87	104.475
2404.16	107.94
2403.44	97.4785
2402.72	114.867
2402	114.848
2401.28	114.83
2400.56	118.291
2399.85	121.75
2399.13	121.73
2398.41	104.324
2397.69	104.307
2396.97	100.814
2396.25	142.507
2395.53	135.533
2394.81	121.613
2394.09	145.912
2393.37	145.888
2392.65	111.135
2391.93	118.062
2391.21	107.628
2390.49	93.725
2389.77	128.417
2389.05	124.926
2388.33	107.558
2387.61	111.01
2386.89	128.334
2386.17	121.378
2385.45	110.956
2384.73	128.272
2384	117.853
2383.28	135.162
2382.56	117.815
2381.84	117.796
2381.12	114.313
2380.4	124.685
2379.67	110.813
2378.95	96.9459
2378.23	135.01
2377.51	110.76
2376.79	83.0563
2376.06	117.644
2375.34	114.166
2374.62	103.77
2373.9	134.879
2373.17	103.737
2372.45	159.037
2371.73	103.703
2371	86.4053
2370.28	120.948
2369.56	127.839
2368.83	124.363
2368.11	124.343
2367.38	113.963
2366.66	103.586
2365.94	124.283
2365.21	124.263
2364.49	100.085
2363.76	134.575
2363.04	117.303
2362.31	155.229
2361.59	110.367
2360.86	151.73
2360.14	127.57
2359.41	155.128
2358.69	130.976
2357.96	144.74
2357.24	130.934
2356.51	93.0168
2355.79	117.113
2355.06	130.87
2354.33	141.179
2353.61	117.057
2352.88	106.711
2352.15	92.9267
2351.43	120.441
2350.7	161.709
2349.98	144.482
2349.25	120.383
2348.52	130.68
2347.79	110.029
2347.07	75.6324
2346.34	106.556
2345.61	123.722
2344.88	120.266
2344.16	127.118
2343.43	113.357
2342.7	130.511
2341.97	116.754
2341.25	127.035
2340.52	144.179
2339.79	144.156
2339.06	144.132
2338.33	120.091
2337.6	133.794
2336.87	137.202
2336.14	123.462
2335.42	144.016
2334.69	137.136
2333.96	126.83
2333.23	140.519
2332.5	123.362
2331.77	130.195
2331.04	116.471
2330.31	116.452
2329.58	113.009
2328.85	126.686
2328.12	136.936
2327.39	130.068
2326.66	150.581
2325.93	150.556
2325.2	160.796
2324.47	153.928
2323.73	129.963
2323	143.62
2322.27	126.502
2321.54	116.226
2320.81	126.461
2320.08	116.188
2319.35	126.42
2318.61	160.561
2317.88	133.21
2317.15	153.679
2316.42	122.923
2315.69	122.903
2314.95	143.364
2314.22	126.276
2313.49	146.73
2312.76	139.883
2312.02	105.748
2311.29	143.248
2310.56	132.994
2309.82	136.382
2309.09	129.542
2308.36	156.789
2307.62	119.276
2306.89	139.701
2306.16	129.458
2305.42	166.906
2304.69	132.822
2303.95	122.585
2303.22	146.397
2302.48	142.969
2301.75	163.367
2301.02	139.52
2300.28	132.693
2299.55	129.269
2298.81	149.656
2298.08	153.032
2297.34	122.406
2296.6	129.185
2295.87	129.164
2295.13	166.527
2294.4	152.908
2293.66	166.473
2292.93	149.461
2292.19	142.645
2291.45	146.017
2290.72	145.993
2289.98	179.916
2289.24	139.158
2288.51	111.987
2287.77	128.934
2287.03	142.483
2286.3	145.851
2285.56	172.958
2284.82	152.585
2284.08	176.292
2283.35	186.433
2282.61	138.955
2281.87	138.932
2281.13	162.626
2280.4	145.662
2279.66	196.442
2278.92	149.001
2278.18	159.134
2277.44	142.182
2276.7	162.467
2275.97	148.904
2275.23	131.962
2274.49	128.557
2273.75	165.744
2273.01	158.953
2272.27	169.071
2271.53	141.997
2270.79	131.833
2270.05	168.989
2269.31	131.79
2268.57	145.283
2267.83	162.15
2267.09	145.236
2266.35	145.212
2265.61	158.695
2264.87	155.293
2264.13	182.271
2263.39	131.618
2262.65	172.088
2261.91	155.192
2261.17	165.286
2260.42	148.396
2259.68	161.86
2258.94	141.604
2258.2	138.21
2257.46	178.633
2256.72	175.234
2255.97	158.359
2255.23	171.808
2254.49	188.622
2253.75	151.546
2253	168.357
2252.26	175.063
2251.52	178.401
2250.78	151.447
2250.03	181.707
2249.29	151.398
2248.55	151.373
2247.8	195.072
2247.06	151.324
2246.32	158.024
2245.57	181.53
2244.83	171.417
2244.09	161.307
2243.34	151.201
2242.6	147.817
2241.85	178.023
2241.11	144.41
2240.36	191.396
2239.62	154.435
2238.88	154.41
2238.13	198.015
2237.39	157.715
2236.64	157.689
2235.89	171.082
2235.15	164.346
2234.4	154.259
2233.66	184.41
2232.91	164.265
2232.17	154.183
2231.42	170.914
2230.67	137.379
2229.93	137.357
2229.18	137.334
2228.44	157.406
2227.69	157.381
2226.94	167.399
2226.2	184.109
2225.45	174.038
2224.7	163.971
2223.95	173.981
2223.21	150.536
2222.46	190.648
2221.71	143.799
2220.96	150.462
2220.22	180.525
2219.47	157.098
2218.72	177.124
2217.97	167.071
2217.22	170.385
2216.48	150.315
2215.73	170.329
2214.98	186.997
2214.23	170.273
2213.48	176.922
2212.73	180.231
2211.98	143.494
2211.23	150.143
2210.48	166.798
2209.73	193.455
2208.98	160.074
2208.23	166.717
2207.48	163.356
2206.73	173.329
2205.98	156.637
2205.23	163.275
2204.48	186.57
2203.73	193.202
2202.98	146.543
2202.23	176.489
2201.48	163.142
2200.73	129.826
2199.98	209.685
2199.23	153.079
2198.48	176.344
2197.72	159.682
2196.97	153.003
2196.22	166.281
2195.47	159.603
2194.72	169.551
2193.97	176.171
2193.21	202.73
2192.46	172.791
2191.71	166.118
2190.96	179.378
2190.2	185.991
2189.45	182.64
2188.7	175.969
2187.94	156.023
2187.19	205.784
2186.44	185.839
2185.68	182.49
2184.93	155.921
2184.18	172.48
2183.42	189.033
2182.67	185.686
2181.91	182.341
2181.16	202.199
2180.41	178.967
2179.65	182.251
2178.9	192.161
2178.14	225.255
2177.39	202.034
2176.63	208.624
2175.88	172.169
2175.12	201.934
2174.37	175.422
2173.61	188.631
2172.86	175.365
2172.1	168.72
2171.34	185.23
2170.59	198.429
2169.83	191.783
2169.08	198.364
2168.32	221.47
2167.56	211.518
2166.81	221.397
2166.05	191.626
2165.29	191.594
2164.54	191.563
2163.78	204.74
2163.02	247.629
2162.27	178.264
2161.51	194.738
2160.75	191.406
2159.99	201.273
2159.23	201.24
2158.48	188.013
2157.72	201.174
2156.96	164.87
2156.2	191.217
2155.44	178.001
2154.69	220.816
2153.93	210.895
2153.17	217.449
2152.41	200.943
2151.65	187.735
2150.89	190.998
2150.13	187.674
2149.37	197.519
2148.61	217.235
2147.85	213.908
2147.09	161.228
2146.33	194.099
2145.57	174.332
2144.81	194.036
2144.05	210.445
2143.29	210.41
2142.53	230.098
2141.77	190.621
2141.01	226.737
2140.25	187.273
2139.49	200.382
2138.73	197.065
2137.97	190.465
2137.2	219.984
2136.44	173.988
2135.68	187.089
2134.92	206.748
2134.16	229.682
2133.4	206.68
2132.63	196.806
2131.87	223.01
2131.11	219.694
2130.35	173.759
2129.58	219.622
2128.82	232.696
2128.06	209.719
2127.29	216.237
2126.53	219.478
2125.77	196.515
2125	180.109
2124.24	216.095
2123.48	216.059
2122.71	216.024
2121.95	173.445
2121.19	196.321
2120.42	212.646
2119.66	192.985
2118.89	212.576
2118.13	219.08
2117.36	225.583
2116.6	189.589
2115.83	189.558
2115.07	232.007
2114.3	196.03
2113.54	166.598
2112.77	215.562
2112.01	176.34
2111.24	222.021
2110.48	238.307
2109.71	205.628
2108.94	218.648
2108.18	208.823
2107.41	231.625
2106.64	192.445
2105.88	195.675
2105.11	185.861
2104.34	270.595
2103.58	208.617
2102.81	237.914
2102.04	195.514
2101.28	241.094
2100.51	241.054
2099.74	227.987
2098.97	224.693
2098.21	227.911
2097.44	218.108
2096.67	221.327
2095.9	244.07
2095.13	201.731
2094.36	198.445
2093.6	250.455
2092.83	221.144
2092.06	250.372
2091.29	230.824
2090.52	214.534
2089.75	211.248
2088.98	256.706
2088.21	230.672
2087.44	246.876
2086.67	201.365
2085.9	240.3
2085.13	237.013
2084.36	220.743
2083.59	230.444
2082.82	210.935
2082.05	253.08
2081.28	233.574
2080.51	233.535
2079.74	246.468
2078.97	226.973
2078.2	230.177
2077.43	226.898
2076.65	236.583
2075.88	217.102
2075.11	242.984
2074.34	259.141
2073.57	200.801
2072.8	213.72
2072.02	252.537
2071.25	207.175
2070.48	226.561
2069.71	187.691
2068.93	242.663
2068.16	226.448
2067.39	249.052
2066.61	203.736
2065.84	206.936
2065.07	232.764
2064.29	242.423
2063.52	203.601
2062.75	213.262
2061.97	245.533
2061.2	242.262
2060.43	255.141
2059.65	245.411
2058.88	238.914
2058.1	242.102
2057.33	258.2
2056.55	258.157
2055.78	258.114
2055	245.168
2054.23	238.677
2053.45	264.436
2052.68	232.149
2051.9	264.348
2051.13	261.081
2050.35	261.038
2049.57	209.44
2048.8	254.508
2048.02	260.908
2047.25	244.762
2046.47	299.462
2045.69	283.315
2044.92	234.984
2044.14	241.382
2043.36	263.867
2042.59	279.91
2041.81	228.395
2041.03	273.385
2040.25	247.614
2039.48	244.357
2038.7	253.961
2037.92	257.133
2037.14	244.236
2036.37	250.622
2035.59	257.005
2034.81	240.902
2034.03	247.286
2033.25	237.612
2032.47	253.624
2031.69	263.212
2030.92	243.912
2030.14	227.828
2029.36	253.456
2028.58	221.336
2027.8	243.75
2027.02	262.95
2026.24	246.876
2025.46	253.246
2024.68	237.179
2023.9	262.776
2023.12	249.916
2022.34	269.096
2021.56	249.833
2020.78	240.184
2020	236.943
2019.21	265.716
2018.43	259.27
2017.65	268.828
2016.87	262.384
2016.09	249.543
2015.31	262.297
2014.53	252.659
2013.74	281.396
2012.96	262.166
2012.18	284.499
2011.4	265.275
2010.62	265.231
2009.83	274.772
2009.05	245.976
2008.27	293.845
2007.49	268.248
2006.7	239.468
2005.92	300.083
2005.14	264.923
2004.35	293.601
2003.57	280.789
2002.79	271.171
2002	251.988
2001.22	318.919
2000.43	264.659
1999.65	293.308
1998.87	283.696
1998.08	283.649
1997.3	261.296
1996.51	277.183
1995.73	270.766
1994.94	283.461
1994.16	257.938
1993.37	280.183
1992.59	302.42
1991.8	289.638
1991.02	267.314
1990.23	264.087
1989.44	267.225
1988.66	251.277
1987.87	257.595
1987.09	308.427
1986.3	235.256
1985.51	298.789
1984.73	286.027
1983.94	241.493
1983.15	289.108
1982.37	266.825
1981.58	289.012
1980.79	304.841
1980	301.616
1979.22	285.694
1978.43	282.472
1977.64	285.598
1976.85	282.378
1976.06	304.537
1975.28	269.597
1974.49	285.408
1973.7	279.019
1972.91	256.782
1972.12	294.775
1971.33	275.711
1970.54	291.508
1969.76	269.283
1968.97	304.081
1968.18	310.364
1967.39	284.981
1966.6	319.758
1965.81	265.893
1965.02	306.992
1964.23	284.791
1963.44	265.76
1962.65	332.145
1961.86	322.601
1961.07	303.574
1960.28	322.494
1959.48	281.345
1958.69	300.262
1957.9	328.653
1957.11	290.683
1956.32	315.907
1955.53	312.696
1954.74	300.012
1953.94	303.119
1953.15	299.912
1952.36	331.426
1951.57	315.591
1950.78	359.714
1949.98	315.486
1949.19	274.427
1948.4	318.534
1947.61	296.408
1946.81	302.664
1946.02	302.614
1945.23	308.867
1944.43	299.361
1943.64	255.202
1942.85	308.712
1942.05	343.306
1941.26	286.565
1940.46	289.666
1939.67	305.358
1938.88	311.602
1938.08	292.668
1937.29	336.669
1936.49	333.467
1935.7	308.248
1934.9	314.487
1934.11	311.29
1933.31	311.238
1932.52	301.756
1931.72	329.99
1930.93	317.366
1930.13	323.597
1929.33	351.813
1928.54	285.8
1927.74	339.135
1926.95	295.124
1926.15	317.048
1925.35	351.519
1924.56	276.148
1923.76	294.926
1922.96	326.247
1922.17	294.828
1921.37	348.09
1920.57	316.677
1919.77	326.029
1918.98	297.765
1918.18	300.849
1917.38	303.932
1916.58	310.147
1915.78	303.83
1914.99	325.702
1914.19	325.647
1913.39	341.246
1912.59	306.757
1911.79	325.484
1910.99	306.655
1910.19	337.889
1909.39	331.577
1908.59	319.011
1907.8	337.72
1907	306.398
1906.2	356.363
1905.4	290.668
1904.6	312.494
1903.8	349.935
1903	318.637
1902.2	318.584
1901.39	306.039
1900.59	312.233
1899.79	330.911
1898.99	343.341
1898.19	340.162
1897.39	308.903
1896.59	336.929
1895.79	333.753
1894.99	339.935
1894.18	342.996
1893.38	342.938
1892.58	330.412
1891.78	339.707
1890.98	314.721
1890.17	336.477
1889.37	317.731
1888.57	342.593
1887.76	308.282
1886.96	333.138
1886.16	370.437
1885.36	339.251
1884.55	339.194
1883.75	329.804
1882.94	323.527
1882.14	367.017
1881.34	342.077
1880.53	351.347
1879.73	369.941
1878.92	351.229
1878.12	338.74
1877.32	351.111
1876.51	338.626
1875.71	338.569
1874.9	369.568
1874.1	360.191
1873.29	353.921
1872.49	360.07
1871.68	409.666
1870.87	325.816
1870.07	362.991
1869.26	341.217
1868.46	359.768
1867.65	334.9
1866.84	347.246
1866.04	371.986
1865.23	328.533
1864.42	312.983
1863.62	377.996
1862.81	359.345
1862	340.701
1861.2	383.999
1860.39	352.972
1859.58	337.434
1858.77	343.568
1857.96	371.362
1857.16	349.64
1856.35	374.331
1855.54	346.43
1854.73	361.835
1853.92	337.037
1853.12	364.804
1852.31	377.107
1851.5	383.225
1850.69	318.27
1849.88	305.859
1849.07	318.163
1848.26	395.321
1847.45	342.76
1846.64	361.227
1845.83	382.774
1845.02	373.451
1844.21	367.216
1843.4	404.178
1842.59	354.753
1841.78	379.368
1840.97	357.718
1840.16	388.49
1839.35	385.342
1838.54	379.113
1837.72	363.64
1836.91	366.66
1836.1	369.679
1835.29	332.655
1834.48	409.59
1833.67	335.622
1832.85	341.723
1832.04	421.695
1831.23	356.996
1830.42	384.629
1829.6	341.493
1828.79	409.107
1827.98	378.284
1827.17	405.894
1826.35	381.231
1825.54	393.462
1824.73	362.662
1823.91	411.767
1823.1	384.046
1822.29	396.269
1821.47	414.63
1820.66	396.135
1819.84	445.193
1819.03	405.211
1818.21	383.658
1817.4	398.937
1816.58	438.757
1815.77	352.787
1814.95	417.138
1814.14	429.335
1813.32	361.807
1812.51	419.993
1811.69	398.466
1810.88	407.593
1810.06	373.819
1809.25	450.345
1808.43	395.134
1807.61	413.443
1806.8	358.257
1805.98	410.242
1805.16	385.685
1804.35	403.983
1803.53	376.375
1802.71	385.49
1801.89	403.778
1801.08	434.294
1800.26	434.221
1799.44	388.287
1798.62	415.733
1797.81	427.888
1796.99	366.699
1796.17	363.582
1795.35	436.836
1794.53	406.219
1793.71	427.527
1792.9	415.242
1792.08	476.226
1791.26	433.415
1790.44	408.928
1789.62	475.985
1788.8	396.587
1787.98	381.269
1787.16	426.95
1786.34	411.632
1785.52	414.611
1784.7	438.925
1783.88	451.042
1783.06	444.871
1782.24	447.843
1781.42	399.03
1780.6	402.008
1779.78	414.12
1778.95	407.961
1778.13	438.332
1777.31	429.128
1776.49	459.485
1775.67	438.11
1774.85	419.784
1774.02	483.583
1773.2	477.419
1772.38	489.5
1771.56	483.337
1770.74	437.665
1769.91	464.941
1769.09	477.015
1768.27	440.481
1767.44	476.854
1766.62	461.589
1765.8	467.584
1764.97	443.219
1764.15	418.862
1763.33	476.45
1762.5	494.575
1761.68	509.66
1760.85	470.142
1760.03	542.846
1759.21	554.883
1758.38	512.346
1757.56	539.54
1756.73	497.02
1755.91	569.658
1755.08	499.881
1754.26	502.825
1753.43	611.768
1752.6	563.216
1751.78	557.065
1750.95	608.43
1750.13	617.406
1749.3	641.51
1748.47	665.605
1747.65	774.391
1746.82	734.942
1745.99	749.937
1745.17	798.184
1744.34	876.645
1743.51	864.407
1742.69	954.917
1741.86	1078.63
1741.03	1099.59
1740.2	1147.73
1739.38	1244.17
1738.55	1253.02
1737.72	1388.65
1736.89	1478.97
1736.06	1499.84
1735.23	1565.97
1734.4	1719.56
1733.58	1779.59
1732.75	1839.6
1731.92	1965.93
1731.09	2028.91
1730.26	2049.66
1729.43	2118.63
1728.6	2395.48
1727.77	2440.26
1726.94	2527.2
1726.11	2770.72
1725.28	2737.12
1724.45	2673.44
1723.62	2742.22
1722.79	2681.56
1721.96	2515.6
1721.13	2349.7
1720.3	2111.67
1719.46	1966.94
1718.63	1861.36
1717.8	1743.79
1716.97	1701.41
1716.14	1532.81
1715.31	1436.39
1714.47	1340.01
1713.64	1225.63
1712.81	1159.34
1711.98	1051.04
1711.14	996.815
1710.31	897.581
1709.48	840.401
1708.65	825.254
1707.81	798.11
1706.98	749.976
1706.15	674.863
1705.31	671.75
1704.48	629.658
1703.64	647.538
1702.81	578.489
1701.98	584.384
1701.14	581.289
1700.31	569.206
1699.47	569.109
1698.64	580.992
1697.8	541.967
1696.97	502.956
1696.13	520.83
1695.3	547.676
1694.46	520.653
1693.63	514.58
1692.79	520.475
1691.95	535.34
1691.12	532.259
1690.28	544.127
1689.45	514.143
1688.61	490.146
1687.77	525.92
1686.94	528.818
1686.1	498.857
1685.26	537.598
1684.42	525.562
1683.59	519.501
1682.75	507.472
1681.91	483.509
1681.07	543.109
1680.24	522.131
1679.4	522.042
1678.56	581.605
1677.72	506.954
1676.88	509.849
1676.04	542.554
1675.21	512.656
1674.37	554.289
1673.53	533.338
1672.69	515.372
1671.85	524.22
1671.01	515.197
1670.17	553.816
1669.33	491.205
1668.49	514.933
1667.65	508.893
1666.81	479.052
1665.97	478.97
1665.13	487.812
1664.29	511.52
1663.45	559.008
1662.61	478.643
1661.77	538.01
1660.92	514.143
1660.08	525.941
1659.24	537.735
1658.4	525.762
1657.56	487.063
1656.72	510.735
1655.87	531.43
1655.03	534.308
1654.19	510.474
1653.35	492.582
1652.5	551.835
1651.66	572.505
1650.82	521.988
1649.98	507.073
1649.13	578.142
1648.29	515.792
1647.45	497.921
1646.6	503.763
1645.76	598.487
1644.91	565.799
1644.07	553.855
1643.23	586.335
1642.38	541.823
1641.54	547.651
1640.69	565.316
1639.85	571.138
1639	600.628
1638.16	612.358
1637.31	618.169
1636.47	603.277
1635.62	564.736
1634.78	632.633
1633.93	611.835
1633.08	596.954
1632.24	602.761
1631.39	706.055
1630.55	658.675
1629.7	682.188
1628.85	749.983
1628.01	752.807
1627.16	702.5
1626.31	805.671
1625.46	870.448
1624.62	890.95
1623.77	970.438
1622.92	1032.2
1622.07	1108.69
1621.23	1261.81
1620.38	1488.56
1619.53	1715.23
1618.68	2042.02
1617.83	2483.59
1616.98	3087.01
1616.13	3716.74
1615.29	4281.47
1614.44	4837.17
1613.59	4998.24
1612.74	5150.43
1611.89	5061.27
1611.04	4692.64
1610.19	4297.66
1609.34	3682.24
1608.49	3234.64
1607.64	2934.2
1606.79	2598.58
1605.94	2271.9
1605.09	2048.18
1604.24	1809.85
1603.38	1674.41
1602.53	1430.35
1601.68	1344.94
1600.83	1239.01
1599.98	1168.35
1599.13	1106.51
1598.27	959.594
1597.42	900.749
1596.57	900.595
1595.72	809.516
1594.87	815.242
1594.01	759.394
1593.16	729.949
1592.31	706.375
1591.45	706.254
1590.6	679.763
1589.75	647.422
1588.89	635.595
1588.04	632.557
1587.19	688.08
1586.33	611.847
1585.48	664.428
1584.62	661.388
1583.77	617.384
1582.92	678.714
1582.06	564.523
1581.21	599.519
1580.35	614.036
1579.5	669.477
1578.64	648.901
1577.78	599.108
1576.93	669.132
1576.07	610.588
1575.22	639.693
1574.36	636.662
1573.51	630.713
1572.65	610.168
1571.79	577.955
1570.94	545.753
1570.08	519.397
1569.22	624.336
1568.37	612.561
1567.51	565.793
1566.65	545.284
1565.79	580.175
1564.94	585.906
1564.08	556.66
1563.22	623.586
1562.36	568.123
1561.5	547.634
1560.65	562.102
1559.79	538.71
1558.93	576.466
1558.07	544.347
1557.21	555.895
1556.35	549.979
1555.49	546.975
1554.63	573.062
1553.77	567.146
1552.91	558.325
1552.05	622.192
1551.19	561.04
1550.33	566.756
1549.47	613.153
1548.61	586.899
1547.75	560.653
1546.89	572.175
1546.03	534.325
1545.17	540.04
1544.31	548.656
1543.45	557.269
1542.58	562.976
1541.72	536.767
1540.86	562.783
1540	493.075
1539.14	553.889
1538.28	542.196
1537.41	573.991
1536.55	504.329
1535.69	527.426
1534.82	593.976
1533.96	547.523
1533.1	567.703
1532.24	553.126
1531.37	584.88
1530.51	555.83
1529.64	547.051
1528.78	575.896
1527.92	607.625
1527.05	540.982
1526.19	595.845
1525.32	561.039
1524.46	558.051
1523.59	557.955
1522.73	580.982
1521.86	566.432
1521	586.561
1520.13	572.015
1519.27	574.805
1518.4	560.266
1517.54	537.069
1516.67	536.976
1515.8	580.181
1514.94	597.397
1514.07	565.553
1513.21	513.526
1512.34	562.474
1511.47	536.421
1510.6	544.978
1509.74	579.48
1508.87	582.263
1508	570.634
1507.14	553.247
1506.27	593.485
1505.4	567.458
1504.53	573.12
1503.66	593.178
1502.8	567.164
1501.93	521.01
1501.06	572.724
1500.19	598.523
1499.32	612.805
1498.45	532.156
1497.58	543.568
1496.71	580.856
1495.84	618.131
1494.97	540.412
1494.1	586.303
1493.23	571.834
1492.36	531.513
1491.49	545.783
1490.62	577.282
1489.75	557.081
1488.88	594.308
1488.01	597.076
1487.14	619.933
1486.27	573.913
1485.4	533.647
1484.52	573.714
1483.65	570.747
1482.78	605.059
1481.91	627.891
1481.04	599.117
1480.17	624.808
1479.29	630.431
1478.42	590.211
1477.55	601.567
1476.67	587.142
1475.8	598.495
1474.93	595.528
1474.06	635.502
1473.18	606.771
1472.31	623.835
1471.43	655.2
1470.56	669.389
1469.69	649.253
1468.81	694.894
1467.94	669.042
1467.06	740.392
1466.19	700.25
1465.31	722.99
1464.44	751.436
1463.56	759.876
1462.69	674.059
1461.81	799.592
1460.94	745.205
1460.06	776.478
1459.19	744.947
1458.31	790.477
1457.43	713.303
1456.56	795.909
1455.68	733.022
1454.8	673.008
1453.93	741.321
1453.05	775.401
1452.17	721.112
1451.3	720.987
1450.42	703.767
1449.54	717.888
1448.66	774.729
1447.78	757.508
1446.91	743.14
1446.03	737.318
1445.15	703.034
1444.27	714.296
1443.39	705.636
1442.51	662.841
1441.64	705.391
1440.76	671.143
1439.88	688.086
1439	608.367
1438.12	642.37
1437.24	676.36
1436.36	647.829
1435.48	647.717
1434.6	687.37
1433.72	656.012
1432.84	658.737
1431.96	633.073
1431.08	669.862
1430.2	658.394
1429.31	672.467
1428.43	624.122
1427.55	635.359
1426.67	660.772
1425.79	620.961
1424.91	632.193
1424.02	654.759
1423.14	606.468
1422.26	688.533
1421.38	645.919
1420.49	679.796
1419.61	750.478
1418.73	764.505
1417.85	792.682
1416.96	784.053
1416.08	817.877
1415.2	877.155
1414.31	877.002
1413.43	834.421
1412.54	876.697
1411.66	896.337
1410.78	853.775
1409.89	802.748
1409.01	819.565
1408.12	785.516
1407.24	833.406
1406.35	697.679
1405.47	683.437
1404.58	672.024
1403.7	697.315
1402.81	660.499
1401.92	691.428
1401.04	646.161
1400.15	646.048
1399.27	634.653
1398.38	662.745
1397.49	696.466
1396.61	620.226
1395.72	659.58
1394.83	628.464
1393.94	555.094
1393.06	616.976
1392.17	619.686
1391.28	605.496
1390.39	591.312
1389.51	613.731
1388.62	681.179
1387.73	641.66
1386.84	574.017
1385.95	618.93
1385.06	666.64
1384.17	646.838
1383.29	596.112
1382.4	629.744
1381.51	609.958
1380.62	590.179
1379.73	651.894
1378.84	637.733
1377.95	615.151
1377.06	612.235
1376.17	623.36
1375.28	609.214
1374.39	617.529
1373.5	639.873
1372.6	642.567
1371.71	681.731
1370.82	656.368
1369.93	642.231
1369.04	625.294
1368.15	653.22
1367.26	605.455
1366.36	647.387
1365.47	655.681
1364.58	610.741
1363.69	610.634
1362.79	624.531
1361.9	658.023
1361.01	579.519
1360.11	621.404
1359.22	632.49
1358.33	626.784
1357.43	643.46
1356.54	615.376
1355.65	643.235
1354.75	576.014
1353.86	581.505
1352.96	620.537
1352.07	614.839
1351.17	614.731
1350.28	634.18
1349.39	603.343
1348.49	600.445
1347.59	591.963
1346.7	625.361
1345.8	636.417
1344.91	613.979
1344.01	625.033
1343.12	605.395
1342.22	655.498
1341.32	616.339
1340.43	644.115
1339.53	646.79
1338.63	677.338
1337.74	638.203
1336.84	654.81
1335.94	679.769
1335.04	649.01
1334.15	623.832
1333.25	659.921
1332.35	657.021
1331.45	642.989
1330.55	670.706
1329.66	665.024
1328.76	642.651
1327.86	664.791
1326.96	681.361
1326.06	689.584
1325.16	733.944
1324.26	744.934
1323.36	714.233
1322.46	700.215
1321.56	708.427
1320.66	780.522
1319.76	716.51
1318.86	733.045
1317.96	724.588
1317.06	793.854
1316.16	829.792
1315.26	860.169
1314.36	868.341
1313.46	857.094
1312.55	884.677
1311.65	915.022
1310.75	1031.3
1309.85	1025.57
1308.95	997.681
1308.04	1027.99
1307.14	1085.98
1306.24	1130.11
1305.34	1057.91
1304.43	1135.25
1303.53	1112.91
1302.63	1137.62
1301.72	1115.28
1300.82	1137.22
1299.92	1233.85
1299.01	1222.57
1298.11	1377.22
1297.21	1396.34
1296.3	1479.03
1295.4	1561.69
1294.49	1578
1293.59	1641.27
1292.68	1743.2
1291.78	1825.76
1290.87	1797.82
1289.97	1794.74
1289.06	1758.54
1288.16	1876.92
1287.25	1843.47
1286.34	1821.07
1285.44	1851.1
1284.53	1779.06
1283.62	1679.47
1282.72	1648.85
1281.81	1648.56
1280.9	1576.6
1280	1587.35
1279.09	1606.36
1278.18	1523.43
1277.27	1424
1276.37	1385.2
1275.46	1332.64
1274.55	1282.86
1273.64	1120.24
1272.73	1169.57
1271.82	1155.61
1270.92	1067.38
1270.01	1017.68
1269.1	1017.5
1268.19	934.837
1267.28	940.171
1266.37	912.52
1265.46	926.1
1264.55	849.005
1263.64	865.338
1262.73	837.719
1261.82	862.287
1260.91	749.564
1260	801.59
1259.09	754.789
1258.18	760.145
1257.27	710.624
1256.35	715.985
1255.44	691.175
1254.53	715.733
1253.62	693.673
1252.71	630.501
1251.79	701.651
1250.88	622.058
1249.97	663.046
1249.06	687.584
1248.14	687.463
1247.23	638.05
1246.32	689.958
1245.41	692.574
1244.49	640.45
1243.58	648.546
1242.66	601.92
1241.75	656.524
1240.84	609.913
1239.92	653.559
1239.01	653.443
1238.09	661.529
1237.18	650.48
1236.26	592.98
1235.35	647.518
1234.43	603.698
1233.52	584.473
1232.6	630.792
1231.69	688.015
1230.77	608.731
1229.86	562.227
1228.94	564.856
1228.02	641.149
1227.11	608.302
1226.19	583.649
1225.27	594.453
1224.36	575.264
1223.44	594.243
1222.52	615.942
1221.6	583.134
1220.69	613
1219.77	610.168
1218.85	577.378
1217.93	555.492
1217.01	656.127
1216.1	549.852
1215.18	615.072
1214.26	568.705
1213.34	606.693
1212.42	606.586
1211.5	601.04
1210.58	562.865
1209.66	589.953
1208.74	598.003
1207.82	578.873
1206.9	608.661
1205.98	613.987
1205.06	638.325
1204.14	586.612
1203.22	583.793
1202.3	632.557
1201.38	597.158
1200.46	580.769
1199.54	629.508
1198.61	564.286
1197.69	642.847
1196.77	618.326
1195.85	637.197
1194.93	626.24
1194	642.393
1193.08	655.829
1192.16	720.743
1191.24	753.124
1190.31	704.236
1189.39	744.733
1188.47	728.356
1187.54	806.735
1186.62	812.005
1185.7	833.511
1184.77	863.127
1183.85	784.522
1182.92	833.069
1182	822.104
1181.07	794.92
1180.15	773.153
1179.23	786.53
1178.3	802.605
1177.37	815.973
1176.45	769.904
1175.52	761.665
1174.6	780.433
1173.67	742.495
1172.75	723.467
1171.82	715.242
1170.89	771.785
1169.97	712.29
1169.04	698.676
1168.11	666.187
1167.19	660.676
1166.26	633.597
1165.33	649.659
1164.4	630.677
1163.48	627.871
1162.55	600.817
1161.62	576.466
1160.69	592.524
1159.76	600.497
1158.83	608.468
1157.91	637.97
1156.98	586.721
1156.05	632.362
1155.12	637.631
1154.19	586.409
1153.26	607.821
1152.33	605.024
1151.4	607.605
1150.47	661.258
1149.54	607.389
1148.61	615.343
1147.68	588.367
1146.75	596.321
1145.82	612.33
1144.89	647.128
1143.96	617.482
1143.02	665.688
1142.09	657.519
1141.16	638.619
1140.23	681.43
1139.3	657.168
1138.36	616.824
1137.43	638.165
1136.5	659.499
1135.57	721.031
1134.63	712.864
1133.7	712.737
1132.77	723.326
1131.83	760.697
1130.9	755.206
1129.97	755.071
1129.03	706.75
1128.1	843.131
1127.17	848.333
1126.23	874.939
1125.3	912.236
1124.36	904.05
1123.43	901.215
1122.49	989.288
1121.56	989.112
1120.62	980.918
1119.69	951.348
1118.75	1020.65
1117.81	945.667
1116.88	1103.08
1115.94	1116.24
1115.01	1022.59
1114.07	1099.82
1113.13	990.199
1112.2	1016.71
1111.26	963.166
1110.32	938.986
1109.38	986.827
1108.45	917.319
1107.51	986.476
1106.57	903.664
1105.63	1055.42
1104.69	977.955
1103.76	943.145
1102.82	937.65
1101.88	974.769
1100.94	1035.84
1100	1080.92
1099.06	1128.64
1098.12	1184.33
1097.18	1255.96
1096.24	1250.42
1095.3	1282.11
1094.36	1390.92
1093.42	1313.56
1092.48	1339.92
1091.54	1222.72
1090.6	1153.4
1089.66	1139.91
1088.72	1041.41
1087.78	988.104
1086.84	897.633
1085.9	897.473
1084.95	897.313
1084.01	915.733
1083.07	859.839
1082.13	851.726
1081.19	761.376
1080.24	774.502
1079.3	779.668
1078.36	800.741
1077.41	742.276
1076.47	697.085
1075.53	760.561
1074.58	702.135
1073.64	667.572
1072.7	691.29
1071.75	696.463
1070.81	683.1
1069.86	619.446
1068.92	651.096
1067.98	664.211
1067.03	650.863
1066.09	671.909
1065.14	687.659
1064.19	682.247
1063.25	682.125
1062.3	697.864
1061.36	647.523
1060.41	650.05
1059.46	634.082
1058.52	652.459
1057.57	660.266
1056.63	657.507
1055.68	604.587
1054.73	593.921
1053.78	657.155
1052.84	612.179
1051.89	630.537
1050.94	656.802
1049.99	646.136
1049.05	630.199
1048.1	664.359
1047.15	635.246
1046.2	653.58
1045.25	642.923
1044.3	629.636
1043.35	647.961
1042.4	653.112
1041.45	639.83
1040.5	687.102
1039.55	639.601
1038.6	684.225
1037.65	626.217
1036.7	662.934
1035.75	699.639
1034.8	667.956
1033.85	699.388
1032.9	704.52
1031.95	704.394
1031	651.711
1030.05	683.123
1029.1	677.747
1028.14	664.493
1027.19	638.114
1026.24	656.379
1025.29	677.261
1024.33	650.894
1023.38	677.019
1022.43	648.037
1021.48	663.66
1020.52	721.241
1019.57	715.867
1018.62	692.143
1017.66	712.989
1016.71	691.895
1015.75	670.808
1014.8	665.448
1013.85	751.769
1012.89	788.299
1011.94	743.644
1010.98	753.983
1010.03	780.023
1009.07	701.371
1008.12	779.743
1007.16	845.006
1006.2	829.161
1005.25	881.315
1004.29	813.175
1003.34	899.299
1002.38	930.503
1001.42	914.656
1000.47	1000.72
999.508	919.552
998.551	908.94
997.594	945.337
996.636	892.948
995.679	866.682
994.721	869.137
993.763	905.515
992.805	902.743
991.846	824.322
990.888	818.958
989.929	792.734
988.97	766.52
988.011	774.202
987.052	745.394
986.093	732.231
985.133	695.625
984.173	726.758
983.213	705.792
982.253	695.25
981.293	739.384
980.333	715.824
979.372	723.503
978.411	668.73
977.45	642.593
976.489	671.09
975.528	699.577
974.566	663.048
973.605	675.928
972.643	673.207
971.681	662.691
970.719	615.802
969.756	644.267
968.794	672.723
967.831	651.826
966.868	682.866
965.905	615.248
964.942	633.306
963.979	661.738
963.015	666.808
962.052	619.993
961.088	643.225
960.124	671.634
959.159	611.881
958.195	635.101
957.23	637.578
956.266	619.324
955.301	619.213
954.336	642.414
953.37	626.759
952.405	631.825
951.439	618.767
950.473	631.598
949.507	644.424
948.541	605.494
947.575	613.147
946.608	628.556
945.642	682.753
944.675	677.458
943.708	625.631
942.741	602.255
941.773	648.664
940.806	617.541
939.838	601.929
938.87	635.399
937.902	606.877
936.934	624.842
935.965	637.637
934.997	629.779
934.028	619.343
933.059	673.414
932.09	639.757
931.121	647.379
930.151	611.16
929.182	629.097
928.212	623.828
927.242	657.221
926.272	680.294
925.301	664.713
924.331	669.745
923.36	651.596
922.389	620.578
921.418	648.786
920.447	661.539
919.475	635.684
918.504	694.751
917.532	704.917
916.56	658.489
915.588	658.37
914.616	655.68
913.643	642.708
912.671	686.288
911.698	616.776
910.725	644.929
909.752	619.122
908.779	678.086
907.805	675.396
906.831	703.517
905.858	708.524
904.883	654.496
903.909	808.349
902.935	697.877
901.96	743.925
900.986	725.837
900.011	769.3
899.036	728.139
898.06	771.585
897.085	697.12
896.109	778.993
895.133	740.422
894.157	768.465
893.181	752.96
892.205	811.718
891.229	796.21
890.252	819.103
889.275	795.922
888.298	829.042
887.321	867.267
886.343	859.436
885.366	831.149
884.388	813.1
883.41	835.961
882.432	833.254
881.454	850.992
880.475	855.948
879.497	814.919
878.518	893.95
877.539	855.483
876.56	883.413
875.58	873.042
874.601	862.675
873.621	944.177
872.641	877.67
871.661	925.979
870.681	979.37
869.701	958.793
868.72	1024.91
867.739	1027.27
866.758	1083.15
865.777	1090.6
864.796	1215.24
863.815	1372.95
862.833	1578.98
861.851	1734.02
860.869	1866.09
859.887	2161.01
858.905	2076.64
857.922	2185.67
856.939	2164.92
855.956	2037.36
854.973	1879.32
853.99	1736.59
853.007	1632.05
852.023	1461.46
851.039	1344.3
850.055	1415.2
849.071	1285.38
848.087	1170.86
847.102	1196.04
846.118	1152.66
845.133	997.608
844.148	959.357
843.163	936.345
842.177	908.267
841.192	895.419
840.206	989.094
839.22	877.344
838.234	869.579
837.248	887.164
836.261	881.935
835.274	853.902
834.288	830.947
833.301	775.072
832.313	792.658
831.326	830.494
830.339	805.027
829.351	845.378
828.363	857.878
827.375	877.963
826.387	877.803
825.398	829.588
824.409	834.495
823.421	857.098
822.432	841.775
821.443	806.238
820.453	818.726
819.464	884.266
818.474	836.111
817.484	866.265
816.494	840.857
815.504	830.605
814.513	812.785
813.523	855.54
812.532	804.919
811.541	830.001
810.55	847.506
809.559	796.914
808.567	794.248
807.575	791.582
806.583	771.274
805.591	791.294
804.599	839.022
803.607	813.678
802.614	818.567
801.621	780.645
800.628	805.68
799.635	830.706
798.642	787.768
797.649	850.534
796.655	948.5
795.661	877.894
794.667	980.849
793.673	930.38
792.678	952.837
791.684	839.55
790.689	824.318
789.694	809.092
788.699	793.871
787.704	811.308
786.708	768.468
785.713	748.241
784.717	733.042
783.721	760.517
782.724	767.907
781.728	735.15
780.731	760.101
779.735	697.26
778.738	707.163
777.741	674.44
776.743	706.905
775.746	716.801
774.748	746.74
773.75	696.496
772.752	703.884
771.754	703.756
770.756	703.627
769.757	690.981
768.758	695.861
767.759	690.728
766.76	720.629
765.761	745.514
764.761	717.864
763.762	645.209
762.762	665.094
761.762	724.97
760.762	699.844
759.761	682.223
758.761	692.092
757.76	701.958
756.759	719.313
755.758	714.187
754.756	716.553
753.755	706.437
752.753	701.317
751.751	706.179
750.749	691.081
749.747	720.887
748.745	710.78
747.742	670.754
746.739	722.985
745.736	745.286
744.733	705.276
743.73	690.196
742.726	687.579
741.723	697.416
740.719	687.327
739.715	739.489
738.71	741.843
737.706	711.84
736.701	659.451
735.697	689.187
734.692	741.3
733.686	718.78
732.681	738.542
731.675	703.599
730.67	696.013
729.664	671.033
728.658	715.637
727.651	752.772
726.645	730.279
725.638	705.31
724.631	732.494
723.624	690.156
722.617	714.851
721.61	734.573
720.602	669.927
719.595	726.862
718.587	709.367
717.578	748.914
716.57	684.313
715.562	718.892
714.553	728.674
713.544	738.453
712.535	770.526
711.526	790.202
710.516	795.01
709.507	827.055
708.497	836.806
707.487	819.326
706.477	846.399
705.467	960.066
704.456	1004.42
703.445	1135.33
702.434	1194.48
701.423	1134.91
700.412	1053.13
699.401	976.311
698.389	859.984
697.377	830.177
696.365	741.094
695.353	760.717
694.34	767.985
693.328	738.217
692.315	728.207
691.302	733.009
690.289	799.5
689.276	713.003
688.262	707.939
687.249	717.674
686.235	715.076
685.221	719.875
684.206	712.348
683.192	756.577
682.177	684.983
681.162	734.127
680.147	800.495
679.132	706.769
678.117	773.117
677.101	708.971
676.086	743.298
675.07	735.779
674.054	735.644
673.037	767.487
672.021	740.292
671.004	732.779
669.987	722.81
668.97	734.967
667.953	754.493
666.936	712.582
665.918	678.057
664.9	692.67
663.882	722.012
662.864	726.79
661.846	775.755
660.827	758.431
659.808	770.561
658.789	738.523
657.77	789.902
656.751	794.662
655.731	740.567
654.712	774.756
653.692	723.136
652.672	740.158
651.652	727.77
650.631	747.236
649.611	774.042
648.59	761.655
647.569	712.542
646.548	771.167
645.526	744.1
644.505	721.937
643.483	753.613
642.461	731.457
641.439	721.538
640.417	775.205
639.394	787.287
638.371	794.476
637.348	899.425
636.325	913.921
635.302	1077.45
634.279	1411.9
633.255	1714.49
632.231	1938.82
631.207	2033.67
630.183	1696.45
629.159	1403.28
628.134	1054.1
627.109	968.515
626.084	912.236
625.059	894.997
624.034	821.685
623.008	804.469
621.983	779.947
620.957	813.919
619.931	799.151
618.904	786.823
617.878	774.5
616.851	740.266
615.824	732.825
614.797	759.466
613.77	761.759
612.743	776.218
611.715	778.508
610.687	749.175
609.659	761.197
608.631	785.371
607.603	743.898
606.574	729.177
605.546	794.656
604.517	811.517
603.487	765.212
602.458	784.5
601.429	818.352
600.399	791.494
599.369	769.501
598.339	776.639
597.309	752.23
596.278	737.535
595.248	781.06
594.217	797.892
593.186	725.002
592.155	761.232
591.123	787.754
590.091	802.148
589.06	797.154
588.028	767.936
586.996	709.665
585.963	733.75
584.931	774.774
583.898	752.844
582.865	772.067
581.832	769.504
580.798	783.878
579.765	776.476
578.731	800.517
577.697	812.459
576.663	802.638
575.629	838.746
574.594	824.091
573.56	814.273
572.525	768.222
571.49	782.572
570.455	821.065
569.419	808.841
568.384	784.551
567.348	801.3
566.312	822.87
565.276	767.226
564.239	757.435
563.203	841.706
562.166	819.849
561.129	810.053
560.092	865.343
559.054	744.683
558.017	828.879
556.979	838.361
555.941	739.452
554.903	804.336
553.865	796.963
552.826	806.445
551.787	760.565
550.749	707.483
549.709	726.599
548.67	784.197
547.631	757.595
546.591	788.715
545.551	843.864
544.511	800.441
543.471	783.469
542.43	773.712
541.39	843.238
540.349	847.885
539.308	804.501
538.267	765.934
537.225	777.795
536.184	765.65
535.142	827.9
534.1	856.538
533.058	806.003
532.015	774.675
530.973	796.112
529.93	774.387
528.887	740.684
527.844	697.408
526.801	742.805
525.757	742.667
524.713	816.782
523.669	763.944
522.625	838.027
521.581	813.932
520.537	777.879
519.492	789.699
518.447	827.834
517.402	853.993
516.357	813.176
515.311	726.94
514.265	784.184
513.22	774.476
512.174	819.74
511.127	812.419
510.081	769.266
509.034	721.351
507.987	788.085
506.94	735.409
505.893	756.757
504.846	716.04
503.798	734.998
502.75	770.65
501.702	794.361
500.654	791.828
499.606	774.989
