3200.54	42.0979
3199.95	33.6783
3199.35	33.6732
3198.76	12.6256
3198.16	37.8709
3197.57	50.487
3196.98	50.4793
3196.38	46.2657
3195.79	33.6427
3195.19	25.2282
3194.6	50.4488
3194	33.6275
3193.41	37.8252
3192.81	46.2238
3192.22	33.6122
3191.62	50.4107
3191.03	50.4031
3190.43	46.1958
3189.84	33.5919
3189.24	41.9835
3188.65	54.5703
3188.05	41.9708
3187.45	16.7858
3186.86	33.5665
3186.26	29.3662
3185.67	29.3618
3185.07	50.3269
3184.47	41.9327
3183.88	41.9264
3183.28	25.152
3182.69	37.7223
3182.09	67.0517
3181.49	8.3802
3180.9	37.7052
3180.3	12.5665
3179.7	46.0702
3179.1	25.1254
3178.51	16.7477
3177.91	50.2355
3177.31	41.8566
3176.72	33.4802
3176.12	50.2127
3175.52	20.9188
3174.92	33.465
3174.33	29.2775
3173.73	46.0005
3173.13	41.8123
3172.53	33.4447
3171.93	37.6196
3171.34	33.4346
3170.74	29.2509
3170.14	33.4245
3169.54	8.35486
3168.94	83.5359
3168.34	29.2331
3167.74	50.1064
3167.15	12.5247
3166.55	33.3941
3165.95	54.2572
3165.35	41.73
3164.75	41.7237
3164.15	33.3739
3163.55	33.3688
3162.95	41.7047
3162.35	50.0381
3161.75	41.6921
3161.15	0
3160.55	50.0153
3159.95	16.6692
3159.35	33.3334
3158.75	58.3246
3158.15	37.4887
3157.55	12.4943
3156.95	49.9698
3156.35	24.9811
3155.75	49.9547
3155.15	54.1093
3154.55	37.4546
3153.95	33.288
3153.35	20.8018
3152.75	54.0765
3152.15	33.2728
3151.54	37.4262
3150.94	16.6314
3150.34	29.1005
3149.74	29.096
3149.14	41.5595
3148.54	45.7085
3147.94	41.5469
3147.33	54.0027
3146.73	12.4603
3146.13	45.6807
3145.53	37.3695
3144.93	53.9699
3144.32	29.0563
3143.72	41.5027
3143.12	41.4964
3142.52	29.0431
3141.91	66.3741
3141.31	45.6253
3140.71	29.0299
3140.1	24.879
3139.5	45.6045
3138.9	41.4524
3138.29	20.723
3137.69	49.7277
3137.09	49.7202
3136.48	49.7126
3135.88	49.7051
3135.28	66.2634
3134.67	41.4083
3134.07	33.1216
3133.47	45.5353
3132.86	57.9452
3132.26	33.1065
3131.65	24.8261
3131.05	45.5076
3130.45	20.6821
3129.84	28.9506
3129.24	16.5407
3128.63	28.9418
3128.03	57.8748
3127.42	37.1996
3126.82	49.5919
3126.21	49.5844
3125.61	49.5768
3125	49.5693
3124.4	41.3015
3123.79	49.5542
3123.19	37.16
3122.58	45.4109
3121.97	28.8934
3121.37	70.1591
3120.76	37.1374
3120.16	37.1318
3119.55	70.1271
3118.94	61.8675
3118.34	24.7432
3117.73	41.2324
3117.13	41.2262
3116.52	61.8298
3115.91	90.6699
3115.31	57.6903
3114.7	37.081
3114.09	45.3143
3113.48	61.7828
3112.88	49.4187
3112.27	65.8816
3111.66	28.8188
3111.06	61.7452
3110.45	32.9258
3109.84	90.5321
3109.23	45.2591
3108.63	61.7076
3108.02	49.3586
3107.41	57.5762
3106.8	32.8957
3106.19	49.336
3105.59	36.9964
3104.98	24.6605
3104.37	57.5324
3103.76	49.306
3103.15	53.4067
3102.54	28.7531
3101.93	69.8183
3101.33	45.1696
3100.72	45.1628
3100.11	53.366
3099.5	69.7757
3098.89	57.4536
3098.28	12.3096
3097.67	32.8206
3097.06	57.4274
3096.45	61.5199
3095.84	57.4099
3095.23	77.9015
3094.62	40.9945
3094.01	53.2848
3093.4	69.6695
3092.79	45.0734
3092.18	98.3269
3091.57	49.156
3090.96	69.627
3090.35	36.8557
3089.74	69.6058
3089.13	65.5013
3088.52	77.771
3087.91	45.0184
3087.3	81.8392
3086.69	106.375
3086.08	69.5421
3085.46	44.991
3084.85	69.5209
3084.24	65.4215
3083.63	85.8526
3083.02	65.4015
3082.41	98.0873
3081.79	102.159
3081.18	77.6288
3080.57	69.4467
3079.96	81.6896
3079.35	77.5933
3078.73	61.2485
3078.12	77.5696
3077.51	89.8037
3076.9	81.6273
3076.28	118.341
3075.67	69.362
3075.06	73.4309
3074.45	53.0253
3073.83	57.0955
3073.22	48.9315
3072.61	69.3091
3071.99	36.6874
3071.38	61.1364
3070.77	65.2022
3070.15	97.7884
3069.54	57.0345
3068.93	40.7327
3068.31	65.1624
3067.7	57.0084
3067.08	56.9997
3066.47	52.9202
3065.86	69.1928
3065.24	69.1822
3064.63	65.1027
3064.01	73.2294
3063.4	77.2858
3062.78	52.8717
3062.17	56.9301
3061.55	60.9872
3060.94	69.1082
3060.32	52.8394
3059.71	89.4069
3059.09	60.9499
3058.48	56.8779
3057.86	81.2417
3057.25	52.799
3056.63	40.6084
3056.02	77.1442
3055.4	64.9536
3054.78	52.7668
3054.17	48.7003
3053.55	40.5774
3052.94	52.7426
3052.32	44.6215
3051.7	64.8941
3051.09	56.7736
3050.47	40.5464
3049.85	20.2701
3049.24	68.9078
3048.62	40.5278
3048	68.8867
3047.39	60.7731
3046.77	76.9675
3046.15	64.8048
3045.53	72.8943
3044.92	44.5397
3044.3	72.872
3043.68	80.9565
3043.06	72.8497
3042.45	56.6522
3041.83	60.6895
3041.21	48.5442
3040.59	64.7156
3039.97	44.4852
3039.35	80.8698
3038.74	72.7717
3038.12	48.507
3037.5	84.8743
3036.88	28.2871
3036.26	64.6463
3035.64	40.3978
3035.02	44.4307
3034.41	64.6166
3033.79	68.6447
3033.17	56.5222
3032.55	56.5136
3031.93	76.6853
3031.31	56.4963
3030.69	84.7314
3030.07	76.65
3029.45	80.6719
3028.83	56.4617
3028.21	44.3559
3027.59	56.4444
3026.97	44.3424
3026.35	76.5796
3025.73	44.3288
3025.11	48.3512
3024.49	76.5444
3023.87	68.4766
3023.25	88.6032
3022.63	76.5092
3022	44.288
3021.38	84.5369
3020.76	64.3992
3020.14	68.4137
3019.52	96.5692
3018.9	80.462
3018.28	76.4272
3017.66	56.3061
3017.03	68.3612
3016.41	64.3301
3015.79	52.2602
3015.17	60.291
3014.55	68.3193
3013.92	96.436
3013.3	76.3335
3012.68	56.2371
3012.06	52.2121
3011.43	72.2826
3010.81	72.2716
3010.19	92.3328
3009.57	68.2355
3008.94	64.2118
3008.32	68.2146
3007.7	88.2642
3007.07	68.1937
3006.45	92.2479
3005.83	76.1931
3005.2	84.2005
3004.58	64.1429
3003.96	56.1164
3003.33	88.1694
3002.71	80.1417
3002.08	80.1294
3001.46	68.0995
3000.84	92.1205
3000.21	92.1064
2999.59	80.0802
2998.96	64.0543
2998.34	104.072
2997.71	92.0498
2997.09	68.0264
2996.46	56.0131
2995.84	84.0068
2995.21	59.9956
2994.59	55.9873
2993.96	51.9802
2993.34	75.9594
2992.71	55.9615
2992.09	75.9361
2991.46	79.9204
2990.84	67.9219
2990.21	83.8907
2989.58	95.8603
2988.96	99.8392
2988.33	75.8661
2987.71	83.8391
2987.08	63.8676
2986.45	71.84
2985.83	83.8005
2985.2	79.7977
2984.57	51.8605
2983.95	71.7959
2983.32	67.7968
2982.69	83.7361
2982.07	83.7232
2981.44	115.6
2980.81	63.7695
2980.18	75.7146
2979.56	83.6717
2978.93	79.6751
2978.3	115.511
2977.67	79.6506
2977.05	99.5479
2976.42	91.57
2975.79	99.5173
2975.16	119.402
2974.53	107.446
2973.91	103.45
2973.28	99.4561
2972.65	83.5303
2972.02	67.6093
2971.39	103.387
2970.76	107.346
2970.13	103.355
2969.5	115.263
2968.88	75.5052
2968.25	87.4137
2967.62	83.4275
2966.99	111.22
2966.36	119.145
2965.73	87.3599
2965.1	95.287
2964.47	111.151
2963.84	107.165
2963.21	142.864
2962.58	95.2283
2961.95	122.984
2961.32	103.132
2960.69	130.878
2960.06	95.1697
2959.43	126.873
2958.8	91.1762
2958.17	154.579
2957.53	99.074
2956.9	110.946
2956.27	103.005
2955.64	102.989
2955.01	134.658
2954.38	95.0378
2953.75	114.82
2953.12	134.595
2952.48	126.658
2951.85	118.724
2951.22	102.878
2950.59	110.775
2949.96	102.847
2949.33	122.606
2948.69	98.8605
2948.06	98.8452
2947.43	106.736
2946.8	102.767
2946.16	79.0396
2945.53	118.541
2944.9	90.8675
2944.26	98.7538
2943.63	126.385
2943	86.8766
2942.37	75.0182
2941.73	110.536
2941.1	110.519
2940.47	110.502
2939.83	122.323
2939.2	106.523
2938.56	138.064
2937.93	86.7694
2937.3	74.9256
2936.66	98.5712
2936.03	102.498
2935.39	94.5991
2934.76	82.7615
2934.13	82.7487
2933.49	94.5553
2932.86	98.4799
2932.22	82.7104
2931.59	122.077
2930.95	82.6848
2930.32	102.356
2929.68	125.957
2929.05	106.26
2928.41	102.308
2927.78	82.621
2927.14	106.211
2926.5	133.726
2925.87	106.178
2925.23	90.4338
2924.6	117.939
2923.96	106.129
2923.32	78.6017
2922.69	94.3074
2922.05	110.008
2921.42	82.4935
2920.78	117.83
2920.14	90.3221
2919.51	106.014
2918.87	94.22
2918.23	105.981
2917.6	105.965
2916.96	121.644
2916.32	86.315
2915.68	109.838
2915.05	86.2883
2914.41	94.1181
2913.77	133.313
2913.13	101.93
2912.5	94.0745
2911.86	109.737
2911.22	109.72
2910.58	86.195
2909.94	78.3469
2909.31	90.0851
2908.67	113.568
2908.03	90.0572
2907.39	105.703
2906.75	109.601
2906.11	113.498
2905.47	86.0884
2904.83	113.463
2904.2	82.1499
2903.56	78.2259
2902.92	117.321
2902.28	101.662
2901.64	97.7369
2901	97.7218
2900.36	89.8902
2899.72	78.1533
2899.08	136.747
2898.44	82.0355
2897.8	121.081
2897.16	105.442
2896.52	105.425
2895.88	97.6009
2895.24	89.7789
2894.6	113.182
2893.96	113.164
2893.32	81.934
2892.67	93.6243
2892.03	117.012
2891.39	140.393
2890.75	136.472
2890.11	120.857
2889.47	144.226
2888.83	128.614
2888.19	136.388
2887.54	112.989
2886.9	136.345
2886.26	124.639
2885.62	112.937
2884.98	140.176
2884.33	124.581
2883.69	120.669
2883.05	101.191
2882.41	151.763
2881.77	101.16
2881.12	112.814
2880.48	116.686
2879.84	120.557
2879.19	139.98
2878.55	128.295
2877.91	112.727
2877.26	97.1633
2876.62	108.806
2875.98	112.675
2875.33	124.311
2874.69	128.176
2874.05	147.574
2873.4	108.722
2872.76	100.94
2872.11	124.215
2871.47	135.839
2870.83	108.654
2870.18	100.878
2869.54	81.4654
2868.89	124.119
2868.25	120.221
2867.6	143.468
2866.96	116.307
2866.31	124.042
2865.67	112.395
2865.02	124.003
2864.38	96.8624
2863.73	127.838
2863.09	104.579
2862.44	108.435
2861.8	120.035
2861.15	131.631
2860.5	116.127
2859.86	131.59
2859.21	135.439
2858.57	123.811
2857.92	100.581
2857.27	143.112
2856.63	112.151
2855.98	112.134
2855.33	150.777
2854.69	119.83
2854.04	115.946
2853.39	127.521
2852.75	131.365
2852.1	108.166
2851.45	115.874
2850.81	139.028
2850.16	135.145
2849.51	104.238
2848.86	123.523
2848.21	135.082
2847.57	111.908
2846.92	123.465
2846.27	108.015
2845.62	119.57
2844.97	104.125
2844.33	138.812
2843.68	127.224
2843.03	119.495
2842.38	127.185
2841.73	150.286
2841.08	115.587
2840.43	150.239
2839.78	123.254
2839.14	119.384
2838.49	119.365
2837.84	96.2473
2837.19	111.629
2836.54	130.856
2835.89	119.291
2835.24	115.425
2834.59	119.254
2833.94	100.004
2833.29	99.9882
2832.64	107.663
2831.99	142.247
2831.34	92.2538
2830.69	134.516
2830.04	88.3823
2829.39	107.579
2828.74	149.819
2828.08	107.546
2827.43	126.731
2826.78	122.871
2826.13	126.691
2825.48	92.1246
2824.83	122.814
2824.18	107.445
2823.53	138.122
2822.87	118.92
2822.22	118.902
2821.57	138.058
2820.92	126.533
2820.27	126.514
2819.61	126.494
2818.96	111.144
2818.31	111.127
2817.66	114.941
2817	130.246
2816.35	134.056
2815.7	95.7392
2815.05	130.185
2814.39	137.822
2813.74	130.144
2813.09	103.334
2812.43	118.624
2811.78	153.04
2811.13	99.4602
2810.47	110.919
2809.82	122.374
2809.16	130.003
2808.51	145.274
2807.86	114.672
2807.2	114.655
2806.55	114.637
2805.89	141.363
2805.24	122.241
2804.58	126.041
2803.93	129.841
2803.28	152.73
2802.62	133.618
2801.97	118.329
2801.31	129.76
2800.66	145.003
2800	133.534
2799.34	152.587
2798.69	95.3519
2798.03	125.845
2797.38	144.89
2796.72	152.492
2796.07	91.4807
2795.41	133.389
2794.75	137.178
2794.1	133.347
2793.44	152.373
2792.79	140.923
2792.13	118.052
2791.47	118.034
2790.82	137.05
2790.16	129.416
2789.5	140.813
2788.84	110.35
2788.19	117.941
2787.53	136.943
2786.87	167.348
2786.22	136.9
2785.56	167.296
2784.9	133.056
2784.24	102.627
2783.59	140.615
2782.93	132.993
2782.27	155.768
2781.61	110.16
2780.95	117.739
2780.29	140.505
2779.64	155.671
2778.98	148.054
2778.32	129.052
2777.66	148.008
2777	147.984
2776.34	144.167
2775.68	117.592
2775.02	136.537
2774.36	132.724
2773.71	144.077
2773.05	144.055
2772.39	128.871
2771.73	166.748
2771.07	109.885
2770.41	143.965
2769.75	117.427
2769.09	106.046
2768.43	121.177
2767.77	151.447
2767.11	121.139
2766.45	132.475
2765.79	158.945
2765.12	98.379
2764.46	121.063
2763.8	132.392
2763.14	113.461
2762.48	132.35
2761.82	94.5212
2761.16	136.089
2760.5	102.051
2759.83	143.605
2759.17	151.139
2758.51	132.226
2757.85	143.537
2757.19	151.068
2756.53	154.821
2755.86	151.021
2755.2	147.223
2754.54	181.169
2753.88	154.724
2753.21	166.019
2752.55	135.813
2751.89	143.335
2751.23	162.17
2750.56	150.832
2749.9	139.498
2749.24	165.863
2748.57	162.068
2747.91	192.19
2747.25	150.714
2746.58	161.992
2745.92	150.667
2745.25	124.281
2744.59	143.089
2743.93	150.596
2743.26	146.808
2742.6	158.076
2741.93	131.71
2741.27	120.401
2740.61	142.954
2739.94	157.977
2739.28	116.584
2738.61	161.688
2737.95	127.826
2737.28	150.36
2736.62	150.336
2735.95	154.071
2735.29	127.746
2734.62	135.239
2733.95	150.242
2733.29	165.241
2732.62	150.195
2731.96	123.892
2731.29	180.178
2730.62	142.618
2729.96	142.596
2729.29	176.341
2728.63	165.059
2727.96	157.532
2727.29	187.508
2726.63	168.731
2725.96	127.466
2725.29	153.685
2724.62	164.904
2723.96	161.131
2723.29	168.599
2722.62	119.874
2721.96	168.546
2721.29	164.775
2720.62	146.027
2719.95	142.261
2719.28	168.44
2718.62	134.731
2717.95	145.936
2717.28	157.137
2716.61	149.63
2715.94	130.906
2715.27	153.323
2714.61	168.255
2713.94	164.49
2713.27	138.3
2712.6	153.227
2711.93	153.203
2711.26	138.234
2710.59	149.419
2709.92	149.396
2709.25	123.232
2708.58	182.952
2707.91	141.859
2707.24	149.302
2706.57	160.474
2705.9	156.718
2705.23	138.039
2704.56	164.129
2703.89	179.021
2703.22	149.161
2702.55	167.78
2701.88	175.209
2701.21	186.363
2700.54	149.067
2699.87	182.579
2699.2	122.942
2698.53	137.822
2697.86	137.8
2697.19	186.188
2696.51	145.203
2695.84	204.742
2695.17	167.49
2694.5	148.856
2693.83	163.716
2693.15	178.571
2692.48	197.142
2691.81	185.953
2691.14	152.458
2690.47	167.305
2689.79	159.844
2689.12	137.519
2688.45	193.239
2687.77	167.2
2687.1	144.884
2686.43	133.718
2685.76	174.549
2685.08	196.801
2684.41	118.804
2683.74	159.618
2683.06	189.285
2682.39	152.146
2681.71	185.515
2681.04	174.356
2680.37	163.202
2679.69	148.342
2679.02	152.026
2678.34	192.784
2677.67	163.099
2676.99	122.305
2676.32	196.398
2675.65	140.792
2674.97	162.996
2674.3	166.674
2673.62	170.351
2672.95	155.514
2672.27	177.702
2671.59	159.166
2670.92	185.048
2670.24	136.914
2669.57	173.89
2668.89	203.456
2668.22	151.644
2667.54	177.506
2666.86	162.688
2666.19	173.753
2665.51	158.941
2664.83	170.003
2664.16	169.976
2663.48	169.949
2662.8	147.758
2662.13	192.056
2661.45	173.561
2660.77	147.689
2660.1	184.582
2659.42	206.699
2658.74	202.976
2658.06	154.975
2657.39	166.019
2656.71	173.37
2656.03	191.783
2655.35	143.815
2654.68	206.471
2654	173.26
2653.32	165.861
2652.64	184.261
2651.96	206.34
2651.28	206.308
2650.6	198.908
2649.93	198.877
2649.25	165.704
2648.57	187.769
2647.89	184.058
2647.21	172.987
2646.53	184
2645.85	202.368
2645.17	147.153
2644.49	187.591
2643.81	165.495
2643.13	183.855
2642.45	169.119
2641.77	220.556
2641.09	220.521
2640.41	176.389
2639.73	183.709
2639.05	165.312
2638.37	150.594
2637.69	157.915
2637.01	205.625
2636.33	194.578
2635.65	190.877
2634.96	205.527
2634.28	168.799
2633.6	205.462
2632.92	183.419
2632.24	190.726
2631.56	176.027
2630.88	175.999
2630.19	175.971
2629.51	186.94
2628.83	197.905
2628.15	164.895
2627.46	153.877
2626.78	183.158
2626.1	190.455
2625.42	186.763
2624.73	205.04
2624.05	168.399
2623.37	208.636
2622.69	190.304
2622	175.637
2621.32	197.561
2620.64	186.556
2619.95	201.156
2619.27	190.154
2618.58	208.405
2617.9	190.093
2617.22	193.718
2616.53	190.033
2615.85	204.619
2615.16	138.826
2614.48	215.512
2613.79	171.652
2613.11	204.489
2612.43	175.249
2611.74	189.823
2611.06	197.092
2610.37	211.658
2609.69	189.733
2609	207.943
2608.31	171.435
2607.63	233.406
2606.94	222.43
2606.26	204.166
2605.57	204.133
2604.89	204.101
2604.2	204.069
2603.51	211.323
2602.83	189.432
2602.14	185.76
2601.45	196.656
2600.77	200.266
2600.08	185.672
2599.39	189.282
2598.71	141.939
2598.02	207.417
2597.33	232.852
2596.65	207.351
2595.96	203.681
2595.27	225.468
2594.58	221.796
2593.9	203.584
2593.21	210.821
2592.52	247.131
2591.83	203.487
2591.14	217.987
2590.46	199.79
2589.77	199.758
2589.08	214.252
2588.39	192.433
2587.7	217.814
2587.01	232.299
2586.32	174.196
2585.64	232.225
2584.95	195.909
2584.26	159.604
2583.57	177.713
2582.88	192.189
2582.19	228.415
2581.5	224.754
2580.81	202.971
2580.12	199.315
2579.43	199.283
2578.74	220.988
2578.05	220.953
2577.36	206.432
2576.67	202.778
2575.98	231.709
2575.29	184.614
2574.6	213.539
2573.91	195.412
2573.22	198.999
2572.52	235.143
2571.83	206.17
2571.14	188.055
2570.45	206.104
2569.76	242.224
2569.07	180.736
2568.38	177.093
2567.68	191.519
2566.99	209.553
2566.3	216.745
2565.61	202.263
2564.92	209.453
2564.22	202.199
2563.53	220.217
2562.84	238.23
2562.14	220.147
2561.45	180.42
2560.76	245.332
2560.07	234.471
2559.37	245.254
2558.68	212.76
2557.99	183.882
2557.29	180.248
2556.6	216.263
2555.91	227.04
2555.21	208.988
2554.52	205.352
2553.82	201.717
2553.13	212.49
2552.44	252.066
2551.74	194.42
2551.05	208.788
2550.35	201.557
2549.66	208.722
2548.96	172.708
2548.27	233.838
2547.57	237.398
2546.88	230.167
2546.18	208.556
2545.49	237.284
2544.79	201.3
2544.1	212.05
2543.4	190.456
2542.7	219.169
2542.01	240.688
2541.31	222.691
2540.62	211.882
2539.92	251.345
2539.22	222.584
2538.53	204.601
2537.83	211.747
2537.13	258.362
2536.44	182.977
2535.74	233.169
2535.04	218.785
2534.35	247.439
2533.65	211.544
2532.95	229.435
2532.25	207.893
2531.56	204.276
2530.86	229.326
2530.16	189.88
2529.46	232.835
2528.76	175.494
2528.07	200.532
2527.37	236.304
2526.67	200.468
2525.97	207.595
2525.27	239.769
2524.57	243.309
2523.88	236.115
2523.18	246.809
2522.48	246.769
2521.78	232.427
2521.08	260.991
2520.38	232.352
2519.68	225.167
2518.98	207.264
2518.28	253.679
2517.58	246.494
2516.88	235.739
2516.18	214.274
2515.48	214.24
2514.78	278.467
2514.08	221.311
2513.38	228.413
2512.68	239.082
2511.98	246.179
2511.28	260.409
2510.58	256.801
2509.88	238.929
2509.17	235.326
2508.47	245.983
2507.77	228.122
2507.07	220.958
2506.37	277.934
2505.67	242.263
2504.97	238.662
2504.26	227.94
2503.56	252.83
2502.86	227.867
2502.16	238.51
2501.45	245.59
2500.75	227.758
2500.05	206.372
2499.35	252.588
2498.64	202.749
2497.94	263.176
2497.24	241.799
2496.53	245.316
2495.83	263.05
2495.13	248.792
2494.42	280.734
2493.72	252.265
2493.02	259.33
2492.31	230.873
2491.61	234.388
2490.9	284.061
2490.2	234.313
2489.5	248.474
2488.79	291.023
2488.09	266.137
2487.38	262.546
2486.68	266.051
2485.97	234.088
2485.27	212.773
2484.56	283.652
2483.86	255.246
2483.15	233.938
2482.45	226.813
2481.74	233.863
2481.04	269.254
2480.33	230.246
2479.62	216.043
2478.92	247.878
2478.21	262.001
2477.51	215.939
2476.8	261.917
2476.09	201.714
2475.39	265.371
2474.68	244.102
2473.97	233.452
2473.27	236.951
2472.56	240.449
2471.85	251.017
2471.14	233.302
2470.44	222.662
2469.73	208.491
2469.02	233.19
2468.31	236.686
2467.61	226.052
2466.9	286.051
2466.19	225.979
2465.48	264.777
2464.77	271.794
2464.07	239.988
2463.36	275.236
2462.65	201.102
2461.94	239.872
2461.23	211.618
2460.52	246.848
2459.81	250.334
2459.1	274.971
2458.4	246.729
2457.69	260.786
2456.98	257.221
2456.27	253.657
2455.56	250.094
2454.85	239.488
2454.14	274.663
2453.43	257.015
2452.72	271.054
2452.01	278.05
2451.3	278.006
2450.59	270.924
2449.88	295.506
2449.16	284.907
2448.45	270.794
2447.74	239.104
2447.03	225.003
2446.32	260.118
2445.61	263.591
2444.9	277.605
2444.19	277.56
2443.47	242.387
2442.76	231.811
2442.05	259.868
2441.34	242.27
2440.63	280.848
2439.91	280.803
2439.2	256.192
2438.49	228.079
2437.78	256.109
2437.06	213.975
2436.35	252.52
2435.64	234.946
2434.93	238.414
2434.21	276.937
2433.5	304.932
2432.79	269.839
2432.07	220.742
2431.36	269.752
2430.64	262.704
2429.93	280.172
2429.22	262.619
2428.5	304.589
2427.79	259.034
2427.07	262.493
2426.36	297.444
2425.65	272.905
2424.93	286.854
2424.22	272.817
2423.5	269.276
2422.79	290.212
2422.07	272.686
2421.36	283.128
2420.64	269.103
2419.92	248.094
2419.21	258.535
2418.49	275.96
2417.78	286.393
2417.06	233.966
2416.35	261.861
2415.63	233.891
2414.91	258.286
2414.2	300.122
2413.48	261.692
2412.76	244.207
2412.05	289.513
2411.33	272.028
2410.61	268.498
2409.9	278.914
2409.18	285.841
2408.46	289.28
2407.74	261.355
2407.03	275.25
2406.31	278.689
2405.59	271.678
2404.87	278.6
2404.16	271.591
2403.44	281.991
2402.72	330.677
2402	254.059
2401.28	250.538
2400.56	281.81
2399.85	271.329
2399.13	302.587
2398.41	288.629
2397.69	222.521
2396.97	305.917
2396.25	271.11
2395.53	302.344
2394.81	257.124
2394.09	257.083
2393.37	277.883
2392.65	270.892
2391.93	298.628
2391.21	253.445
2390.49	277.704
2389.77	281.13
2389.05	294.965
2388.33	305.326
2387.61	280.994
2386.89	246.263
2386.17	284.371
2385.45	318.999
2384.73	242.678
2384	287.7
2383.28	329.242
2382.56	291.072
2381.84	297.955
2381.12	318.691
2380.4	273.614
2379.67	304.736
2378.95	273.526
2378.23	294.253
2377.51	290.744
2376.79	290.697
2376.06	297.57
2375.34	297.522
2374.62	290.556
2373.9	255.925
2373.17	304.294
2372.45	276.586
2371.73	300.739
2371	293.778
2370.28	300.642
2369.56	269.498
2368.83	290.181
2368.11	279.773
2367.38	272.821
2366.66	303.852
2365.94	307.256
2365.21	293.399
2364.49	331.315
2363.76	282.952
2363.04	313.957
2362.31	303.558
2361.59	272.468
2360.86	282.769
2360.14	299.963
2359.41	296.467
2358.69	279.186
2357.96	323.941
2357.24	296.324
2356.51	310.056
2355.79	268.672
2355.06	292.736
2354.33	282.359
2353.61	292.641
2352.88	292.594
2352.15	313.197
2351.43	258.088
2350.7	275.249
2349.98	299.285
2349.25	288.918
2348.52	326.7
2347.79	323.209
2347.07	319.719
2346.34	274.982
2345.61	298.995
2344.88	326.436
2344.16	298.898
2343.43	288.545
2342.7	295.367
2341.97	257.546
2341.25	312.438
2340.52	288.358
2339.79	302.04
2339.06	295.128
2338.33	298.512
2337.6	339.631
2336.87	291.555
2336.14	270.931
2335.42	336.037
2334.69	329.126
2333.96	363.351
2333.23	281.037
2332.5	311.832
2331.77	352.896
2331.04	274.049
2330.31	294.555
2329.58	321.904
2328.85	338.971
2328.12	335.493
2327.39	287.519
2326.66	321.695
2325.93	331.908
2325.2	307.906
2324.47	338.642
2323.73	283.866
2323	300.918
2322.27	297.45
2321.54	300.82
2320.81	314.443
2320.08	297.305
2319.35	355.342
2318.61	290.377
2317.88	300.577
2317.15	314.188
2316.42	331.21
2315.69	314.086
2314.95	331.103
2314.22	310.572
2313.49	348.057
2312.76	313.883
2312.02	358.178
2311.29	279.674
2310.56	286.449
2309.82	310.27
2309.09	327.264
2308.36	323.803
2307.62	323.75
2306.89	320.29
2306.16	340.679
2305.42	337.218
2304.69	313.323
2303.95	343.919
2303.22	299.603
2302.48	296.151
2301.75	296.102
2301.02	326.681
2300.28	323.225
2299.55	374.2
2298.81	306.114
2298.08	316.267
2297.34	292.414
2296.6	333.162
2295.87	316.113
2295.13	333.054
2294.4	278.632
2293.66	329.548
2292.93	326.098
2292.19	326.045
2291.45	292.034
2290.72	339.52
2289.98	356.438
2289.24	247.769
2288.51	366.503
2287.77	349.478
2287.03	318.889
2286.3	291.702
2285.56	369.656
2284.82	318.734
2284.08	325.463
2283.35	294.903
2282.61	311.8
2281.87	304.973
2281.13	321.863
2280.4	348.911
2279.66	318.372
2278.92	375.888
2278.18	362.284
2277.44	348.684
2276.7	345.242
2275.97	355.339
2275.23	338.363
2274.49	355.223
2273.75	388.991
2273.01	311.142
2272.27	375.338
2271.53	361.754
2270.79	307.61
2270.05	334.598
2269.31	358.198
2268.57	344.625
2267.83	317.544
2267.09	324.248
2266.35	330.949
2265.61	330.895
2264.87	351.097
2264.13	354.415
2263.39	317.234
2262.65	377.92
2261.91	377.858
2261.17	357.557
2260.42	323.773
2259.68	333.836
2258.94	350.64
2258.2	387.663
2257.46	326.932
2256.72	350.468
2255.97	363.889
2255.23	346.985
2254.49	343.561
2253.75	286.254
2253	353.55
2252.26	360.226
2251.52	336.605
2250.78	373.57
2250.03	333.13
2249.29	353.262
2248.55	373.388
2247.8	329.604
2247.06	373.266
2246.32	363.119
2245.57	379.868
2244.83	352.917
2244.09	376.383
2243.34	329.282
2242.6	382.98
2241.85	302.303
2241.11	359.346
2240.36	359.287
2239.62	376.015
2238.88	322.246
2238.13	345.687
2237.39	325.497
2236.64	392.545
2235.89	369
2235.15	338.753
2234.4	412.474
2233.66	341.996
2232.91	328.531
2232.17	338.532
2231.42	338.477
2230.67	368.578
2229.93	351.767
2229.18	338.312
2228.44	368.398
2227.69	314.761
2226.94	385.018
2226.2	348.133
2225.45	334.689
2224.7	327.941
2223.95	327.888
2223.21	337.87
2222.46	387.985
2221.71	377.889
2220.96	341.048
2220.22	334.306
2219.47	374.362
2218.72	334.197
2217.97	347.508
2217.22	367.497
2216.48	350.735
2215.73	350.678
2214.98	363.977
2214.23	383.95
2213.48	407.254
2212.73	340.436
2211.98	367.076
2211.23	383.699
2210.48	343.605
2209.73	390.244
2208.98	400.185
2208.23	413.457
2207.48	363.383
2206.73	353.324
2205.98	386.593
2205.23	376.533
2204.48	406.456
2203.73	386.403
2202.98	409.654
2202.23	362.967
2201.48	376.225
2200.73	422.768
2199.98	369.446
2199.23	349.418
2198.48	352.688
2197.72	389.225
2196.97	345.921
2196.22	379.12
2195.47	365.758
2194.72	388.97
2193.97	372.286
2193.21	362.255
2192.46	395.425
2191.71	395.36
2190.96	375.364
2190.2	401.873
2189.45	405.128
2188.7	411.702
2187.94	385.077
2187.19	385.014
2186.44	371.677
2185.68	421.386
2184.93	354.968
2184.18	368.178
2183.42	384.699
2182.67	424.426
2181.91	367.997
2181.16	401.084
2180.41	427.532
2179.65	400.952
2178.9	407.513
2178.14	380.946
2177.39	400.755
2176.63	374.198
2175.88	357.582
2175.12	400.558
2174.37	354.155
2173.61	357.406
2172.86	400.361
2172.1	380.446
2171.34	429.999
2170.59	416.7
2169.83	370.339
2169.08	366.973
2168.32	360.301
2167.56	373.462
2166.81	439.49
2166.05	426.202
2165.29	409.615
2164.54	383.126
2163.78	386.365
2163.02	359.888
2162.27	435.756
2161.51	386.175
2160.75	399.312
2159.99	369.55
2159.23	422.274
2158.48	409.011
2157.72	415.54
2156.96	415.471
2156.2	421.997
2155.44	375.779
2154.69	415.267
2153.93	428.379
2153.17	375.594
2152.41	405.18
2151.65	391.939
2150.89	375.409
2150.13	434.613
2149.37	454.293
2148.61	401.556
2147.85	408.072
2147.09	401.424
2146.33	421.097
2145.57	368.399
2144.81	411.092
2144.05	414.313
2143.29	397.806
2142.53	437.187
2141.77	394.389
2141.01	443.615
2140.25	430.4
2139.49	410.62
2138.73	446.681
2137.97	420.336
2137.2	410.417
2136.44	420.198
2135.68	393.871
2134.92	426.623
2134.16	406.866
2133.4	390.396
2132.63	403.452
2131.87	485.375
2131.11	442.668
2130.35	416.367
2129.58	429.41
2128.82	442.449
2128.06	403.054
2127.29	429.198
2126.53	402.921
2125.77	406.13
2125	415.888
2124.24	389.626
2123.48	438.666
2122.71	422.229
2121.95	402.524
2121.19	425.362
2120.42	382.762
2119.66	428.492
2118.89	392.448
2118.13	438.161
2117.36	428.281
2116.6	434.748
2115.83	398.726
2115.07	457.479
2114.3	411.663
2113.54	427.928
2112.77	440.922
2112.01	473.505
2111.24	398.332
2110.48	388.473
2109.71	447.16
2108.94	427.505
2108.18	463.327
2107.41	437.152
2106.64	433.818
2105.88	485.926
2105.11	430.414
2104.34	401.002
2103.58	404.195
2102.81	459.533
2102.04	449.682
2101.28	436.575
2100.51	452.791
2099.74	426.661
2098.97	442.872
2098.21	416.752
2097.44	397.152
2096.67	432.889
2095.9	449.089
2095.13	422.985
2094.36	422.915
2093.6	448.867
2092.83	452.045
2092.06	409.699
2091.29	455.147
2090.52	455.071
2089.75	425.747
2088.98	425.676
2088.21	428.855
2087.44	467.765
2086.67	461.192
2085.9	441.632
2085.13	431.819
2084.36	409.024
2083.59	434.922
2082.82	431.605
2082.05	418.555
2081.28	399.021
2080.51	428.147
2079.74	441.049
2078.97	476.643
2078.2	453.871
2077.43	444.072
2076.65	476.407
2075.88	453.646
2075.11	408.214
2074.34	434.061
2073.57	466.376
2072.8	453.346
2072.02	420.895
2071.25	466.145
2070.48	495.197
2069.71	449.811
2068.93	482.091
2068.16	443.192
2067.39	446.353
2066.61	423.642
2065.84	485.006
2065.07	439.666
2064.29	465.452
2063.52	442.752
2062.75	462.067
2061.97	429.683
2061.2	471.604
2060.43	455.378
2059.65	484.365
2058.88	445.542
2058.1	432.556
2057.33	471.214
2056.55	451.775
2055.78	480.738
2055	464.529
2054.23	451.55
2053.45	428.902
2052.68	480.42
2051.9	486.788
2051.13	431.912
2050.35	470.513
2049.57	492.99
2048.8	460.692
2048.02	476.722
2047.25	441.216
2046.47	502.324
2045.69	444.29
2044.92	466.749
2044.14	437.706
2043.36	447.287
2042.59	469.734
2041.81	479.307
2041.03	447.065
2040.25	408.402
2039.48	462.993
2038.7	498.278
2037.92	440.34
2037.14	478.831
2036.37	498.03
2035.59	469.035
2034.81	440.048
2034.03	488.148
2033.25	452.746
2032.47	487.986
2031.69	471.856
2030.92	474.987
2030.14	468.491
2029.36	481.246
2028.58	500.413
2027.8	468.258
2027.02	461.766
2026.24	445.659
2025.46	480.847
2024.68	493.588
2023.9	493.506
2023.12	487.016
2022.34	474.121
2021.56	490.057
2020.78	473.964
2020	505.904
2019.21	467.404
2018.43	483.331
2017.65	502.452
2016.87	483.17
2016.09	463.894
2015.31	486.208
2014.53	518.11
2013.74	454.07
2012.96	517.938
2012.18	485.886
2011.4	530.55
2010.62	536.853
2009.83	463.279
2009.05	463.202
2008.27	488.676
2007.49	504.562
2006.7	494.9
2005.92	488.433
2005.14	475.584
2004.35	497.845
2003.57	494.571
2002.79	440.255
2002	468.889
2001.22	484.757
2000.43	526.129
1999.65	557.923
1998.87	443.077
1998.08	544.989
1997.3	509.847
1996.51	560.738
1995.73	484.193
1994.94	484.113
1994.16	528.614
1993.37	468.032
1992.59	506.155
1991.8	451.963
1991.02	537.81
1990.23	502.721
1989.44	515.362
1988.66	470.746
1987.87	521.551
1987.09	505.566
1986.3	546.81
1985.51	521.291
1984.73	479.889
1983.94	476.632
1983.15	495.614
1982.37	486.002
1981.58	543.089
1980.79	527.121
1980	479.41
1979.22	476.156
1978.43	520.51
1977.64	517.25
1976.85	498.128
1976.06	532.939
1975.28	472.588
1974.49	488.365
1973.7	513.649
1972.91	491.373
1972.12	494.46
1971.33	484.871
1970.54	506.97
1969.76	494.213
1968.97	490.964
1968.18	535.22
1967.39	509.799
1966.6	541.373
1965.81	550.779
1965.02	525.368
1964.23	499.966
1963.44	509.374
1962.65	528.269
1961.86	493.39
1961.07	493.308
1960.28	528.005
1959.48	553.206
1958.69	534.15
1957.9	492.979
1957.11	518.174
1956.32	593.905
1955.53	505.367
1954.74	511.599
1953.94	533.616
1953.15	536.684
1952.36	533.438
1951.57	552.284
1950.78	520.638
1949.98	511.087
1949.19	533.082
1948.4	536.147
1947.61	520.291
1946.81	570.648
1946.02	561.096
1945.23	532.637
1944.43	551.455
1943.64	529.309
1942.85	592.223
1942.05	576.376
1941.26	525.895
1940.46	541.55
1939.67	538.311
1938.88	579.139
1938.08	557.013
1937.29	531.749
1936.49	585.14
1935.7	531.571
1934.9	534.627
1934.11	503.094
1933.31	537.592
1932.52	477.78
1931.72	546.841
1930.93	540.465
1930.13	556.083
1929.33	518.296
1928.54	581.023
1927.74	562.085
1926.95	521.176
1926.15	558.758
1925.35	561.803
1924.56	486.396
1923.76	530.24
1922.96	545.836
1922.17	533.199
1921.37	520.566
1920.57	536.156
1919.77	536.067
1918.98	586.127
1918.18	554.69
1917.38	532.664
1916.58	554.505
1915.78	538.751
1914.99	488.553
1914.19	529.177
1913.39	554.134
1912.59	554.041
1911.79	528.911
1910.99	572.631
1910.19	528.734
1909.39	603.72
1908.59	534.812
1907.8	581.628
1907	565.898
1906.2	540.796
1905.4	575.085
1904.6	565.614
1903.8	524.902
1903	590.416
1902.2	521.603
1901.39	605.833
1900.59	596.364
1899.79	586.899
1898.99	496.283
1898.19	596.064
1897.39	583.484
1896.59	527.231
1895.79	555.215
1894.99	598.784
1894.18	536.321
1893.38	564.289
1892.58	536.141
1891.78	589.033
1890.98	585.818
1890.17	504.716
1889.37	588.737
1888.57	560.608
1887.76	560.514
1886.96	575.987
1886.16	607.019
1885.36	628.704
1884.55	566.361
1883.75	600.491
1882.94	572.393
1882.14	575.407
1881.34	590.86
1880.53	612.526
1879.73	584.444
1878.92	547.047
1878.12	559.386
1877.32	546.864
1876.51	556.092
1875.71	568.423
1874.9	630.44
1874.1	565.127
1873.29	602.287
1872.49	549.417
1871.68	536.911
1870.87	539.924
1870.07	604.986
1869.26	567.66
1868.46	617.188
1867.65	545.763
1866.84	601.479
1866.04	554.88
1865.23	567.184
1864.42	607.374
1863.62	576.288
1862.81	573.094
1862	576.095
1861.2	588.385
1860.39	560.42
1859.58	600.57
1858.77	529.28
1857.96	550.854
1857.16	606.456
1856.35	600.167
1855.54	593.88
1854.73	643.261
1853.92	575.127
1853.12	596.672
1852.31	630.573
1851.5	624.286
1850.69	590.191
1849.88	565.376
1849.07	599.259
1848.26	549.743
1847.45	565.09
1846.64	654.53
1845.83	595.769
1845.02	641.965
1844.21	543.109
1843.4	580.042
1842.59	616.962
1841.78	604.521
1840.97	666.095
1840.16	570.402
1839.35	585.72
1838.54	631.854
1837.72	610.176
1836.91	560.774
1836.1	591.487
1835.29	625.269
1834.48	606.686
1833.67	603.504
1832.85	588.01
1832.04	581.755
1831.23	560.114
1830.42	575.405
1829.6	599.92
1828.79	593.667
1827.98	621.246
1827.17	587.317
1826.35	608.739
1825.54	617.858
1824.73	587.02
1823.91	620.723
1823.1	657.487
1822.29	608.226
1821.47	598.91
1820.66	617.234
1819.84	617.13
1819.03	647.724
1818.21	616.922
1817.4	567.718
1816.58	662.737
1815.77	585.933
1814.95	668.648
1814.14	579.602
1813.32	588.703
1812.51	634.588
1811.69	613.025
1810.88	612.922
1810.06	615.882
1809.25	597.397
1808.43	661.62
1807.61	606.383
1806.8	603.219
1805.98	572.502
1805.16	599.954
1804.35	609.034
1803.53	602.812
1802.71	630.245
1801.89	627.08
1801.08	578.039
1800.26	596.289
1799.44	620.647
1798.62	657.225
1797.81	657.114
1796.99	623.389
1796.17	620.228
1795.35	659.836
1794.53	644.453
1793.71	635.183
1792.9	610.65
1792.08	583.072
1791.26	631.809
1790.44	634.754
1789.62	674.312
1788.8	594.881
1787.98	658.833
1787.16	640.424
1786.34	585.432
1785.52	621.916
1784.7	600.474
1783.88	679.61
1783.06	685.589
1782.24	591.03
1781.42	630.529
1780.6	609.104
1779.78	618.136
1778.95	681.965
1778.13	630.103
1777.31	614.779
1776.49	639.018
1775.67	657.165
1774.85	654.012
1774.02	629.57
1773.2	638.586
1772.38	626.317
1771.56	705.247
1770.74	616.987
1769.91	638.154
1769.09	677.544
1768.27	616.673
1767.44	680.352
1766.62	652.906
1765.8	686.194
1764.97	646.613
1764.15	625.257
1763.33	701.019
1762.5	652.354
1761.68	652.243
1760.85	685.498
1760.03	664.153
1759.21	664.04
1758.38	703.339
1757.56	697.158
1756.73	645.519
1755.91	684.801
1755.08	672.567
1754.26	699.715
1753.43	702.625
1752.6	663.141
1751.78	711.469
1750.95	720.43
1750.13	690.043
1749.3	683.874
1748.47	735.191
1747.65	753.216
1746.82	765.186
1745.99	759.009
1745.17	728.646
1744.34	813.164
1743.51	806.981
1742.69	864.26
1741.86	897.349
1741.03	897.196
1740.2	957.451
1739.38	930.11
1738.55	960.146
1737.72	1026.4
1736.89	959.82
1736.06	986.817
1735.23	1068.12
1734.4	1110.17
1733.58	1058.71
1732.75	1052.49
1731.92	1142.77
1731.09	1184.78
1730.26	1151.43
1729.43	1178.36
1728.6	1253.48
1727.77	1277.37
1726.94	1241.01
1726.11	1255.86
1725.28	1252.63
1724.45	1303.6
1723.62	1276.29
1722.79	1297.14
1721.96	1296.92
1721.13	1248.56
1720.3	1275.42
1719.46	1266.18
1718.63	1166.74
1717.8	1136.47
1716.97	1181.37
1716.14	1115.05
1715.31	1081.8
1714.47	1045.56
1713.64	1024.36
1712.81	973.126
1711.98	876.866
1711.14	945.773
1710.31	870.564
1709.48	918.438
1708.65	864.266
1707.81	777.107
1706.98	809.974
1706.15	740.85
1705.31	779.709
1704.48	764.585
1703.64	764.455
1702.81	737.349
1701.98	770.188
1701.14	743.09
1700.31	763.935
1699.47	775.786
1698.64	706.774
1697.8	685.693
1696.97	739.465
1696.13	715.393
1695.3	730.235
1694.46	742.08
1693.63	747.937
1692.79	682.002
1691.95	708.803
1691.12	711.672
1690.28	747.428
1689.45	699.473
1688.61	741.196
1687.77	669.353
1686.94	728.993
1686.1	728.868
1685.26	716.798
1684.42	752.509
1683.59	758.352
1682.75	698.521
1681.91	749.14
1681.07	704.251
1680.24	754.852
1679.4	766.656
1678.56	727.752
1677.72	709.735
1676.88	772.227
1676.04	745.266
1675.21	712.353
1674.37	670.511
1673.53	732.967
1672.69	753.695
1671.85	792.287
1671.01	711.746
1670.17	786.062
1669.33	744.25
1668.49	797.7
1667.65	732.092
1666.81	758.747
1665.97	752.667
1665.13	785.258
1664.29	710.775
1663.45	770.123
1662.61	775.937
1661.77	781.75
1660.92	823.223
1660.08	790.397
1659.24	739.757
1658.4	754.483
1657.56	772.173
1656.72	745.317
1655.87	754.096
1655.03	759.904
1654.19	753.839
1653.35	738.873
1652.5	866.322
1651.66	780.15
1650.82	800.778
1649.98	851.052
1649.13	827.188
1648.29	779.617
1647.45	797.267
1646.6	785.277
1645.76	808.846
1644.91	796.858
1644.07	841.149
1643.23	802.509
1642.38	808.293
1641.54	822.956
1640.69	810.977
1639.85	837.471
1639	852.122
1638.16	875.642
1637.31	822.253
1636.47	807.326
1635.62	839.712
1634.78	839.569
1633.93	854.204
1633.08	830.416
1632.24	880.504
1631.39	821.269
1630.55	903.833
1629.7	888.912
1628.85	962.577
1628.01	894.512
1627.16	968.151
1626.31	894.206
1625.46	944.215
1624.62	911.601
1623.77	1011.73
1622.92	949.628
1622.07	1014.34
1621.23	1008.27
1620.38	1034.62
1619.53	1119.91
1618.68	1143.29
1617.83	1278.62
1616.98	1434.52
1616.13	1487.29
1615.29	1737.32
1614.44	1863.62
1613.59	1960.44
1612.74	2001.31
1611.89	1948
1611.04	1977.09
1610.19	1967.92
1609.34	1782.3
1608.49	1705.54
1607.64	1581.76
1606.79	1484.49
1605.94	1396.06
1605.09	1375.25
1604.24	1298.62
1603.38	1248.46
1602.53	1180.7
1601.68	1157
1600.83	1142.12
1599.98	1197.7
1599.13	1112.38
1598.27	1112.19
1597.42	1062.12
1596.57	1041.4
1595.72	1035.36
1594.87	1032.25
1594.01	1011.55
1593.16	1008.44
1592.31	914.478
1591.45	993.445
1590.6	966.904
1589.75	949.161
1588.89	943.14
1588.04	919.55
1587.19	931.105
1586.33	928.017
1585.48	971.763
1584.62	989.155
1583.77	942.169
1582.92	947.859
1582.06	889.196
1581.21	947.533
1580.35	932.751
1579.5	950.131
1578.64	923.661
1577.78	941.038
1576.93	940.876
1576.07	946.557
1575.22	940.553
1574.36	960.834
1573.51	946.07
1572.65	948.826
1571.79	969.096
1570.94	963.093
1570.08	924.994
1569.22	959.844
1568.37	942.178
1567.51	895.352
1566.65	903.946
1565.79	950.438
1564.94	880.316
1564.08	941.368
1563.22	885.841
1562.36	914.823
1561.5	917.579
1560.65	917.421
1559.79	896.88
1558.93	911.283
1558.07	879.106
1557.21	945.895
1556.35	948.642
1555.49	893.199
1554.63	893.045
1553.77	831.815
1552.91	860.751
1552.05	880.955
1551.19	956.384
1550.33	874.839
1549.47	892.124
1548.61	894.876
1547.75	883.102
1546.89	967.179
1546.03	914.741
1545.17	841.998
1544.31	882.494
1543.45	914.269
1542.58	870.582
1541.72	893.644
1540.86	855.778
1540	846.929
1539.14	925.081
1538.28	840.838
1537.41	921.864
1536.55	846.345
1535.69	950.526
1534.82	924.285
1533.96	892.259
1533.1	857.348
1532.24	909.327
1531.37	842.575
1530.51	888.749
1529.64	882.807
1528.78	943.428
1527.92	923.011
1527.05	940.21
1526.19	916.908
1525.32	884.938
1524.46	867.437
1523.59	954.016
1522.73	858.466
1521.86	869.878
1521	959.301
1520.13	869.578
1519.27	941.64
1518.4	895.27
1517.54	958.64
1516.67	892.074
1515.8	868.828
1514.94	868.678
1514.07	859.872
1513.21	874.148
1512.34	905.727
1511.47	850.775
1510.6	876.579
1509.74	922.556
1508.87	864.747
1508	887.653
1507.14	878.855
1506.27	852.775
1505.4	892.954
1504.53	904.32
1503.66	881.128
1502.8	872.339
1501.93	932.637
1501.06	903.695
1500.19	958.212
1499.32	865.982
1498.45	906.104
1497.58	974.972
1496.71	920.168
1495.84	943.009
1494.97	778.998
1494.1	896.699
1493.23	821.832
1492.36	930.865
1491.49	890.489
1490.62	942.032
1489.75	887.309
1488.88	892.898
1488.01	812.368
1487.14	846.668
1486.27	972.783
1485.4	915.233
1484.52	903.6
1483.65	960.805
1482.78	920.493
1481.91	883.062
1481.04	945.974
1480.17	940.078
1479.29	894.066
1478.42	868.125
1477.55	888.027
1476.67	905.058
1475.8	913.492
1474.93	873.251
1474.06	858.786
1473.18	892.983
1472.31	858.489
1471.43	967.063
1470.56	921.126
1469.69	929.547
1468.81	900.789
1467.94	917.788
1467.06	940.498
1466.19	946.052
1465.31	937.315
1464.44	925.724
1463.56	942.703
1462.69	931.115
1461.81	1028.05
1460.94	982.186
1460.06	959.178
1459.19	976.137
1458.31	970.261
1457.43	933.001
1456.56	975.63
1455.68	964.052
1454.8	966.736
1453.93	1000.78
1453.05	969.252
1452.17	983.335
1451.3	957.517
1450.42	982.994
1449.54	991.37
1448.66	937.081
1447.78	965.396
1446.91	936.756
1446.03	956.521
1445.15	927.892
1444.27	981.801
1443.39	984.476
1442.51	927.409
1441.64	950.002
1440.76	975.432
1439.88	989.479
1439	966.565
1438.12	960.712
1437.24	952.02
1436.36	1014.36
1435.48	906.236
1434.6	908.919
1433.72	959.878
1432.84	900.085
1431.96	888.573
1431.08	945.186
1430.2	871.237
1429.31	916.484
1428.43	916.325
1427.55	987.076
1426.67	964.217
1425.79	878.986
1424.91	941.203
1424.02	969.384
1423.14	980.551
1422.26	952.046
1421.38	926.383
1420.49	971.542
1419.61	951.549
1418.73	959.878
1417.85	973.867
1416.96	973.697
1416.08	908.437
1415.2	981.847
1414.31	990.164
1413.43	1015.45
1412.54	1009.62
1411.66	950.061
1410.78	1006.44
1409.89	992.129
1409.01	1025.87
1408.12	1073.73
1407.24	1000.09
1406.35	1028.16
1405.47	960.201
1404.58	1016.51
1403.7	1053.03
1402.81	985.104
1401.92	979.288
1401.04	981.939
1400.15	962.02
1399.27	1004.16
1398.38	953.224
1397.49	1009.45
1396.61	1026.19
1395.72	952.726
1394.83	1014.56
1393.94	1048.2
1393.06	977.584
1392.17	960.513
1391.28	1002.59
1390.39	979.889
1389.51	990.979
1388.62	1004.88
1387.73	1060.99
1386.84	1001.72
1385.95	990.288
1385.06	998.554
1384.17	981.506
1383.29	961.652
1382.4	989.598
1381.51	1025.97
1380.62	1048.27
1379.73	1019.99
1378.84	1028.24
1377.95	1025.25
1377.06	985.755
1376.17	1016.47
1375.28	1047.17
1374.39	1075.06
1373.5	990.68
1372.6	1049.43
1371.71	1007.17
1370.82	1054.68
1369.93	984.38
1369.04	1006.64
1368.15	953.197
1367.26	1059.55
1366.36	1064.97
1365.47	1011.54
1364.58	1070.2
1363.69	1067.21
1362.79	1005.41
1361.9	1075.24
1361.01	996.661
1360.11	979.692
1359.22	1024.3
1358.33	1068.89
1357.43	1032.33
1356.54	1060.13
1355.65	1006.8
1354.75	1068.14
1353.86	961.72
1352.96	1076.16
1352.07	1008.89
1351.17	1014.31
1350.28	1011.34
1349.39	1120.1
1348.49	991.433
1347.59	1097.37
1346.7	974.335
1345.8	1021.62
1344.91	1024.23
1344.01	1132.87
1343.12	1060.14
1342.22	1037.64
1341.32	1023.51
1340.43	1081.89
1339.53	1129.09
1338.63	1039.7
1337.74	1042.31
1336.84	1003.11
1335.94	1039.15
1335.04	1089.11
1334.15	1086.14
1333.25	1083.16
1332.35	1085.76
1331.45	1066.08
1330.55	1068.68
1329.66	1068.49
1328.76	1071.09
1327.86	1129.31
1326.96	1115.21
1326.06	1106.67
1325.16	1023.07
1324.26	1075.71
1323.36	1050.51
1322.46	1111.45
1321.56	1094.59
1320.66	1074.95
1319.76	1088.65
1318.86	1066.25
1317.96	1113.26
1317.06	1176.9
1316.16	1171.15
1315.26	1115.45
1314.36	1137.44
1313.46	1156.66
1312.55	1137.05
1311.65	1208.94
1310.75	1178.23
1309.85	1105.96
1308.95	1197.22
1308.04	1197.01
1307.14	1196.8
1306.24	1285.22
1305.34	1254.54
1304.43	1226.63
1303.53	1212.57
1302.63	1165.3
1301.72	1261.96
1300.82	1198.1
1299.92	1220.02
1299.01	1211.51
1298.11	1274.9
1297.21	1216.61
1296.3	1277.22
1295.4	1329.51
1294.49	1268.48
1293.59	1329.04
1292.68	1339.86
1291.78	1350.67
1290.87	1325.58
1289.97	1261.84
1289.06	1319.59
1288.16	1344.2
1287.25	1308.09
1286.34	1340.97
1285.44	1296.6
1284.53	1329.47
1283.62	1414.73
1282.72	1373.12
1281.81	1367.36
1280.9	1312
1280	1297.99
1279.09	1275.72
1278.18	1327.84
1277.27	1244.97
1276.37	1324.61
1275.46	1208.74
1274.55	1252.57
1273.64	1219.32
1272.73	1265.89
1271.82	1185.88
1270.92	1268.2
1270.01	1177.21
1269.1	1141.25
1268.19	1154.8
1267.28	1182.09
1266.37	1129.66
1265.46	1041.52
1264.55	1170.47
1263.64	1162.03
1262.73	1090.41
1261.82	1125.92
1260.91	1136.7
1260	1089.83
1259.09	1103.36
1258.18	1064.75
1257.27	1039.87
1256.35	1061.63
1255.44	1050.48
1254.53	1066.74
1253.62	1058.33
1252.71	1036.21
1251.79	1008.62
1250.88	972.822
1249.97	1008.27
1249.06	1071.1
1248.14	975.047
1247.23	1007.74
1246.32	1010.3
1245.41	999.168
1244.49	1012.68
1243.58	1015.24
1242.66	908.352
1241.75	941.018
1240.84	938.118
1239.92	918.81
1239.01	1022.54
1238.09	913.019
1237.18	1005.78
1236.26	956.419
1235.35	945.322
1234.43	947.887
1233.52	925.871
1232.6	980.321
1231.69	917.353
1230.77	917.192
1229.86	938.864
1228.94	927.783
1228.02	927.619
1227.11	987.468
1226.19	976.384
1225.27	959.851
1224.36	907.88
1223.44	915.898
1222.52	899.384
1221.6	937.374
1220.69	918.137
1219.77	882.564
1218.85	923.26
1217.93	890.421
1217.01	887.542
1216.1	925.493
1215.18	947.102
1214.26	927.888
1213.34	922.283
1212.42	862.277
1211.5	897.48
1210.58	908.198
1209.66	995.035
1208.74	848.077
1207.82	888.693
1206.9	910.274
1205.98	904.679
1205.06	850.194
1204.14	923.37
1203.22	882.477
1202.3	950.192
1201.38	895.737
1200.46	925.431
1199.54	936.121
1198.61	908.827
1197.69	911.379
1196.77	873.25
1195.85	962.574
1194.93	886.496
1194	940.55
1193.08	880.763
1192.16	921.25
1191.24	847.942
1190.31	899.255
1189.39	947.842
1188.47	896.23
1187.54	912.314
1186.62	912.153
1185.7	855.161
1184.77	919.947
1183.85	917.079
1182.92	900.688
1182	927.571
1181.07	897.665
1180.15	975.903
1179.23	983.839
1178.3	951.236
1177.37	953.769
1176.45	1013.03
1175.52	1020.96
1174.6	958.664
1173.67	1004.39
1172.75	939.427
1171.82	941.96
1170.89	922.903
1169.97	974.003
1169.04	963.04
1168.11	957.475
1167.19	879.103
1166.26	916.694
1165.33	865.313
1164.4	832.817
1163.48	889.259
1162.55	902.573
1161.62	910.494
1160.69	861.853
1159.76	832.079
1158.83	904.625
1157.91	880.238
1156.98	880.082
1156.05	887.998
1155.12	860.936
1154.19	887.683
1153.26	911.731
1152.33	890.057
1151.4	876.457
1150.47	868.237
1149.54	851.958
1148.61	865.242
1147.68	843.595
1146.75	875.679
1145.82	913.123
1144.89	848.517
1143.96	859.105
1143.02	832.11
1142.09	831.962
1141.16	901.58
1140.23	912.151
1139.3	901.259
1138.36	871.599
1137.43	887.532
1136.5	823.033
1135.57	873.815
1134.63	954.058
1133.7	894.94
1132.77	918.892
1131.83	883.908
1130.9	889.107
1129.97	931.79
1129.03	920.916
1128.1	955.548
1127.17	966.083
1126.23	955.209
1125.3	941.663
1124.36	941.496
1123.43	992.138
1122.49	962.551
1121.56	938.32
1120.62	996.955
1119.69	975.399
1118.75	999.272
1117.81	967.038
1116.88	942.828
1115.94	974.705
1115.01	1003.9
1114.07	1003.72
1113.13	1032.9
1112.2	960.669
1111.26	1059.22
1110.32	925.648
1109.38	976.159
1108.45	986.651
1107.51	978.477
1106.57	980.969
1105.63	959.472
1104.69	1001.94
1103.76	980.445
1102.82	924.331
1101.88	924.166
1100.94	953.293
1100	971.759
1099.06	902.377
1098.12	902.217
1097.18	904.717
1096.24	909.877
1095.3	880.455
1094.36	893.595
1093.42	874.823
1092.48	903.911
1091.54	885.143
1090.6	919.534
1089.66	911.399
1088.72	911.237
1087.78	863.263
1086.84	831.24
1085.9	865.61
1084.95	849.527
1084.01	833.45
1083.07	785.532
1082.13	849.073
1081.19	899.326
1080.24	856.727
1079.3	861.878
1078.36	790.135
1077.41	784.692
1076.47	784.552
1075.53	832.113
1074.58	831.964
1073.64	807.974
1072.7	794.586
1071.75	794.445
1070.81	836.666
1069.86	828.575
1068.92	833.72
1067.98	783.292
1067.03	785.798
1066.09	790.949
1065.14	851.639
1064.19	822.398
1063.25	864.554
1062.3	808.888
1061.36	790.242
1060.41	827.096
1059.46	808.454
1058.52	784.536
1057.57	800.242
1056.63	794.818
1055.68	794.676
1054.73	810.372
1053.78	836.619
1052.84	781.056
1051.89	762.449
1050.94	778.139
1049.99	812.285
1049.05	841.145
1048.1	767.176
1047.15	803.942
1046.2	780.079
1045.25	808.924
1044.3	808.779
1043.35	790.197
1042.4	800.589
1041.45	837.309
1040.5	808.2
1039.55	829.113
1038.6	784.227
1037.65	776.193
1036.7	826.037
1035.75	762.764
1034.8	815.222
1033.85	815.076
1032.9	833.332
1031.95	796.386
1031	843.545
1030.05	832.885
1029.1	837.989
1028.14	785.31
1027.19	782.543
1026.24	842.79
1025.29	766.513
1024.33	818.867
1023.38	805.6
1022.43	808.079
1021.48	807.934
1020.52	771.072
1019.57	823.378
1018.62	794.391
1017.66	796.87
1016.71	765.277
1015.75	780.862
1014.8	801.681
1013.85	754.388
1012.89	738.54
1011.94	811.724
1010.98	816.815
1010.03	756.465
1009.07	782.5
1008.12	764.043
1007.16	774.371
1006.2	805.62
1005.25	813.321
1004.29	839.322
1003.34	826.1
1002.38	841.634
1001.42	794.444
1000.47	809.978
999.508	762.81
998.551	780.957
997.594	786.039
996.636	759.789
995.679	822.304
994.721	756.906
993.763	798.523
992.805	840.125
991.846	821.714
990.888	753.754
989.929	795.342
988.97	743.055
988.011	748.135
987.052	761.032
986.093	820.828
985.133	773.785
984.173	807.509
983.213	734.441
982.253	796.803
981.293	765.418
980.333	744.457
979.372	757.336
978.411	775.414
977.45	803.892
976.489	832.36
975.528	751.59
974.566	787.857
973.605	839.71
972.643	782.376
971.681	751.049
970.719	758.709
969.756	758.573
968.794	779.215
967.831	766.091
966.868	784.128
965.905	752.835
964.942	783.846
963.979	770.73
963.015	755.023
962.052	731.54
961.088	801.437
960.124	837.598
959.159	788.185
958.195	741.383
957.23	780.126
956.266	735.933
955.301	753.937
954.336	740.849
953.37	800.284
952.405	722.456
951.439	768.928
950.473	732.55
949.507	735.006
948.541	740.049
947.575	755.438
946.608	770.822
945.642	765.51
944.675	724.001
943.708	757.479
942.741	752.173
941.773	772.712
940.806	718.311
939.838	728.516
938.87	800.706
937.902	826.386
936.934	684.228
935.965	777.039
934.997	727.859
934.028	787.081
933.059	779.199
932.09	794.536
931.121	781.497
930.151	745.254
929.182	750.276
928.212	775.919
927.242	780.933
926.272	785.946
925.301	796.11
924.331	801.118
923.36	782.945
922.389	728.728
921.418	795.535
920.447	767.077
919.475	748.923
918.504	777.092
917.532	715.207
916.56	774.239
915.588	774.099
914.616	809.958
913.643	784.103
912.671	737.695
911.698	752.981
910.725	770.831
909.752	824.64
908.779	793.669
907.805	832.046
906.831	811.355
905.858	772.702
904.883	811.062
903.909	821.18
902.935	815.9
901.96	764.448
900.986	789.957
900.011	833.408
899.036	789.672
898.06	838.234
897.085	835.519
896.109	791.806
895.133	855.713
894.157	847.873
893.181	850.281
892.205	850.127
891.229	816.691
890.252	880.536
889.275	870.14
888.298	849.512
887.321	836.567
886.343	849.205
885.366	864.395
884.388	874.466
883.41	935.663
882.432	884.374
881.454	850.992
880.475	876.388
879.497	927.322
878.518	868.408
877.539	855.483
876.56	840.009
875.58	898.57
874.601	885.645
873.621	857.415
872.641	862.362
871.661	918.326
870.681	864.6
869.701	861.894
868.72	902.53
867.739	897.268
866.758	917.494
865.777	891.846
864.796	963.019
863.815	878.787
862.833	990.684
861.851	954.857
860.869	1051.42
859.887	1140.32
858.905	1063.77
857.922	1106.83
856.939	1121.89
855.956	1136.95
854.973	1085.88
853.99	1106.03
853.007	1118.54
852.023	1021.75
851.039	1046.98
850.055	1079.82
849.071	1097.4
848.087	1015.93
847.102	1018.28
846.118	919.083
845.133	893.531
844.148	921.287
843.163	923.657
842.177	905.73
841.192	958.834
840.206	920.618
839.22	854.523
838.234	889.861
837.248	856.747
836.261	836.317
835.274	874.173
834.288	896.814
833.301	861.191
832.313	850.904
831.326	888.73
830.339	918.946
829.351	885.875
828.363	860.408
827.375	877.963
826.387	928.397
825.398	890.29
824.409	849.668
823.421	902.608
822.432	877.165
821.443	869.423
820.453	866.738
819.464	884.266
818.474	886.631
817.484	856.163
816.494	903.984
815.504	883.622
814.513	873.365
813.523	820.208
812.532	855.384
811.541	809.818
810.55	867.685
809.559	812.045
808.567	849.719
807.575	804.187
806.583	846.889
805.591	897.136
804.599	876.815
803.607	831.312
802.614	858.865
801.621	813.381
800.628	856.035
799.635	792.947
798.642	850.689
797.649	868.149
796.655	895.666
795.661	928.203
794.667	875.219
793.673	922.836
792.678	912.612
791.684	879.768
790.689	841.91
789.694	897.036
788.699	793.871
787.704	843.962
786.708	843.808
785.713	821.056
784.717	853.542
783.721	843.346
782.724	803.04
781.728	750.204
780.731	810.273
779.735	812.633
778.738	774.87
777.741	789.772
776.743	797.148
775.746	784.471
774.748	791.845
773.75	776.669
772.752	801.576
771.754	761.358
770.756	801.283
769.757	731.038
768.758	770.954
767.759	770.813
766.76	788.187
765.761	823.068
764.761	785.398
763.762	800.26
762.762	837.619
761.762	777.468
760.762	789.823
759.761	744.697
758.761	802.027
757.76	794.387
756.759	779.256
755.758	806.582
754.756	861.362
753.755	746.377
752.753	811.131
751.751	781.039
750.749	823.309
749.747	778.259
748.745	785.599
747.742	837.819
746.739	762.874
745.736	790.153
744.733	809.945
743.73	799.831
742.726	807.158
741.723	831.918
740.719	814.334
739.715	799.245
738.71	739.353
737.706	793.975
736.701	841.111
735.697	776.268
734.692	803.489
733.686	850.598
732.681	830.549
731.675	803.048
730.67	860.074
729.664	854.945
728.658	775.274
727.651	802.46
726.645	789.893
725.638	747.529
724.631	779.672
723.624	794.424
722.617	831.511
721.61	769.317
720.602	793.988
719.595	816.169
718.587	818.5
717.578	840.668
716.57	833.076
715.562	845.318
714.553	862.513
713.544	837.574
712.535	849.808
711.526	832.313
710.516	839.59
709.507	824.579
708.497	906.128
707.487	871.307
706.477	895.896
705.467	945.219
704.456	900.515
703.445	996.816
702.434	971.903
701.423	966.779
700.412	919.631
699.401	865.086
698.389	901.995
697.377	840.06
696.365	795.441
695.353	800.234
694.34	827.251
693.328	770.313
692.315	829.416
691.302	821.859
690.289	799.5
689.276	784.55
688.262	846.073
687.249	789.194
686.235	821.105
685.221	803.696
684.206	759.181
683.192	808.33
682.177	808.181
681.162	812.96
680.147	854.683
679.132	852.063
678.117	832.209
677.101	832.056
676.086	772.833
675.07	824.368
674.054	834.057
673.037	799.466
672.021	833.751
671.004	811.466
669.987	850.654
668.97	825.916
667.953	815.934
666.936	776.469
665.918	756.672
664.9	840.046
663.882	793.231
662.864	820.094
661.846	871.497
660.827	795.248
659.808	839.274
658.789	839.119
657.77	821.793
656.751	846.168
655.731	828.847
654.712	811.532
653.692	857.957
652.672	840.643
651.652	747.373
650.631	796.235
649.611	813.234
648.59	844.922
647.569	783.552
646.548	871.541
645.526	849.351
644.505	829.616
643.483	819.676
642.461	834.203
641.439	885.413
640.417	843.677
639.394	855.747
638.371	882.479
637.348	904.313
636.325	891.928
635.302	940.627
634.279	989.309
633.255	1111.24
632.231	1208.71
631.207	1101.07
630.183	1017.87
629.159	934.706
628.134	919.893
627.109	888.009
626.084	870.771
625.059	868.172
624.034	824.123
623.008	838.598
621.983	814.07
620.957	823.667
619.931	874.68
618.904	813.619
617.878	832.953
616.851	866.89
615.824	796.126
614.797	886.044
613.77	910.217
612.743	912.483
611.715	883.12
610.687	836.741
609.659	836.587
608.631	887.494
607.603	831.416
606.574	872.582
605.546	831.108
604.517	828.525
603.487	876.957
602.458	835.505
601.429	879.061
600.399	808.489
599.369	820.477
598.339	883.427
597.309	837.16
596.278	868.544
595.248	858.681
594.217	831.845
593.186	800.169
592.155	870.326
591.123	836.231
590.091	845.77
589.06	789.885
588.028	859.992
586.996	804.125
585.963	772.495
584.931	830.461
583.898	823.045
582.865	839.834
581.832	846.938
580.798	825.007
579.765	856.3
578.731	844.049
577.697	855.983
576.663	812.308
575.629	829.078
574.594	845.841
573.56	836.019
572.525	876.933
571.49	838.125
570.455	816.235
569.419	782.282
568.384	835.245
567.348	786.819
566.312	810.804
565.276	854.082
564.239	791.206
563.203	846.53
562.166	860.841
561.129	892.023
560.092	819.545
559.054	894.102
558.017	877.069
556.979	884.134
555.941	830.98
554.903	804.336
553.865	859.565
552.826	907.551
551.787	806.295
550.749	849.461
549.709	827.649
548.67	767.358
547.631	856.203
546.591	856.044
545.551	853.481
544.511	884.571
543.471	819.518
542.43	848.2
541.39	821.616
540.349	881.512
539.308	888.553
538.267	864.377
537.225	833.009
536.184	852.056
535.142	871.095
534.1	873.332
533.058	817.997
532.015	808.252
530.973	815.295
529.93	800.759
528.887	817.389
527.844	869.963
526.801	769.163
525.757	838.495
524.713	807.201
523.669	833.394
522.625	881.126
521.581	859.417
520.537	847.29
519.492	911.744
518.447	858.937
517.402	818.111
516.357	817.959
515.311	822.589
514.265	827.218
513.22	846.187
512.174	836.47
511.127	790.914
510.081	807.49
509.034	807.34
507.987	761.815
506.94	799.876
505.893	773.468
504.846	816.286
503.798	754.089
502.75	835.069
501.702	808.674
500.654	870.534
499.606	808.373
