3200.54	46.3077
3199.95	46.3077
3199.35	8.41831
3198.76	21.0426
3198.16	37.8709
3197.57	46.2797
3196.98	58.8926
3196.38	29.4418
3195.79	42.0534
3195.19	58.8658
3194.6	37.8366
3194	33.6275
3193.41	16.8112
3192.81	33.6173
3192.22	25.2092
3191.62	33.6071
3191.03	29.4018
3190.43	62.9943
3189.84	8.39797
3189.24	46.1818
3188.65	58.768
3188.05	29.3796
3187.45	58.7502
3186.86	29.3707
3186.26	20.9759
3185.67	50.3345
3185.07	37.7451
3184.47	58.7058
3183.88	62.8895
3183.28	37.728
3182.69	37.7223
3182.09	46.0981
3181.49	62.8515
3180.9	37.7052
3180.3	12.5665
3179.7	25.1292
3179.1	37.6881
3178.51	37.6824
3177.91	29.3041
3177.31	20.9283
3176.72	46.0353
3176.12	46.0283
3175.52	58.5726
3174.92	46.0144
3174.33	29.2775
3173.73	54.3642
3173.13	50.1747
3172.53	58.5283
3171.93	25.0798
3171.34	58.5106
3170.74	29.2509
3170.14	25.0684
3169.54	37.5968
3168.94	45.9447
3168.34	54.2901
3167.74	45.9308
3167.15	25.0494
3166.55	45.9169
3165.95	37.5627
3165.35	62.595
3164.75	33.3789
3164.15	45.8891
3163.55	37.5399
3162.95	33.3638
3162.35	25.019
3161.75	41.6921
3161.15	37.5172
3160.55	41.6794
3159.95	58.3423
3159.35	50.0001
3158.75	49.9926
3158.15	33.3233
3157.55	41.6478
3156.95	49.9698
3156.35	24.9811
3155.75	58.2804
3155.15	62.4339
3154.55	12.4849
3153.95	37.449
3153.35	49.9244
3152.75	20.7987
3152.15	37.4319
3151.54	74.8525
3150.94	62.3676
3150.34	62.3581
3149.74	37.4092
3149.14	66.4952
3148.54	41.5532
3147.94	49.8562
3147.33	70.6189
3146.73	33.2274
3146.13	16.6112
3145.53	45.6738
3144.93	45.6669
3144.32	62.2636
3143.72	66.4044
3143.12	41.4964
3142.52	37.3411
3141.91	49.7806
3141.31	58.0686
3140.71	62.2069
3140.1	29.0255
3139.5	20.7293
3138.9	41.4524
3138.29	49.7353
3137.69	29.0078
3137.09	45.5768
3136.48	70.4262
3135.88	41.4209
3135.28	41.4146
3134.67	70.3941
3134.07	57.9628
3133.47	70.3727
3132.86	62.0842
3132.26	57.9364
3131.65	49.6522
3131.05	45.5076
3130.45	33.0914
3129.84	70.3086
3129.24	70.2979
3128.63	37.2109
3128.03	33.0713
3127.42	37.1996
3126.82	61.9899
3126.21	53.7164
3125.61	37.1826
3125	20.6539
3124.4	78.4728
3123.79	45.4247
3123.19	41.2889
3122.58	45.4109
3121.97	61.9145
3121.37	33.0161
3120.76	41.2638
3120.16	45.3833
3119.55	57.7517
3118.94	32.996
3118.34	45.3626
3117.73	61.8486
3117.13	45.3488
3116.52	70.0738
3115.91	41.2136
3115.31	41.2073
3114.7	28.8407
3114.09	61.7922
3113.48	65.9017
3112.88	65.8916
3112.27	57.6464
3111.66	78.2225
3111.06	53.5125
3110.45	78.1987
3109.84	24.6906
3109.23	53.4881
3108.63	32.9107
3108.02	61.6982
3107.41	45.2385
3106.8	45.2316
3106.19	78.1154
3105.59	57.5499
3104.98	65.7614
3104.37	45.204
3103.76	57.5237
3103.15	36.9739
3102.54	61.6137
3101.93	69.8183
3101.33	28.7443
3100.72	78.0084
3100.11	53.366
3099.5	77.9846
3098.89	36.9345
3098.28	77.9609
3097.67	61.5387
3097.06	53.3254
3096.45	65.6213
3095.84	77.9134
3095.23	82.0016
3094.62	61.4918
3094.01	81.9766
3093.4	81.9641
3092.79	49.171
3092.18	61.4543
3091.57	77.8303
3090.96	102.393
3090.35	65.5213
3089.74	85.9836
3089.13	61.4075
3088.52	73.6778
3087.91	94.1295
3087.3	94.1151
3086.69	85.9181
3086.08	94.0864
3085.46	77.7117
3084.85	73.6104
3084.24	94.0434
3083.63	98.1173
3083.02	85.8395
3082.41	110.348
3081.79	118.504
3081.18	126.657
3080.57	110.298
3079.96	102.112
3079.35	85.761
3078.73	97.9976
3078.12	110.23
3077.51	102.05
3076.9	110.197
3076.28	130.584
3075.67	93.8427
3075.06	110.146
3074.45	89.7352
3073.83	126.426
3073.22	85.6302
3072.61	81.5401
3071.99	85.604
3071.38	114.121
3070.77	105.954
3070.15	105.937
3069.54	44.8128
3068.93	93.6853
3068.31	57.0171
3067.7	93.6566
3067.08	77.3567
3066.47	69.2033
3065.86	93.6137
3065.24	69.1822
3064.63	81.3784
3064.01	89.5026
3063.4	77.2858
3062.78	65.0729
3062.17	89.4615
3061.55	56.9214
3060.94	73.1734
3060.32	73.1623
3059.71	105.663
3059.09	65.0132
3058.48	60.9406
3057.86	77.1796
3057.25	73.1064
3056.63	93.3994
3056.02	81.2045
3055.4	52.7748
3054.78	40.5898
3054.17	64.9338
3053.55	48.6929
3052.94	73.0282
3052.32	68.9605
3051.7	56.7823
3051.09	89.2157
3050.47	56.765
3049.85	64.8643
3049.24	72.9612
3048.62	81.0556
3048	52.6781
3047.39	68.8762
3046.77	64.8147
3046.15	68.8551
3045.53	72.8943
3044.92	60.7359
3044.3	76.9204
3043.68	52.6217
3043.06	68.8025
3042.45	72.8385
3041.83	60.6895
3041.21	72.8162
3040.59	72.8051
3039.97	76.8381
3039.35	64.6958
3038.74	60.6431
3038.12	68.7183
3037.5	84.8743
3036.88	48.4922
3036.26	72.7271
3035.64	76.7558
3035.02	76.744
3034.41	76.7323
3033.79	72.6826
3033.17	96.8953
3032.55	96.8804
3031.93	48.4328
3031.31	80.709
3030.69	88.7663
3030.07	64.5474
3029.45	72.6047
3028.83	52.4287
3028.21	108.874
3027.59	92.73
3026.97	76.5913
3026.35	64.4881
3025.73	68.5081
3025.11	76.5561
3024.49	60.4298
3023.87	64.4486
3023.25	68.4661
3022.63	52.3484
3022	108.707
3021.38	104.665
3020.76	72.4491
3020.14	104.633
3019.52	80.4743
3018.9	64.3696
3018.28	60.3372
3017.66	88.4811
3017.03	76.4037
3016.41	76.392
3015.79	72.3603
3015.17	80.388
3014.55	60.2818
3013.92	76.3452
3013.3	68.2984
3012.68	76.3218
3012.06	60.2448
3011.43	92.3612
3010.81	112.422
3010.19	68.246
3009.57	80.2771
3008.94	88.2913
3008.32	60.1893
3007.7	84.2522
3007.07	84.2392
3006.45	84.2263
3005.83	88.2235
3005.2	96.2291
3004.58	88.1965
3003.96	84.1746
3003.33	92.1771
3002.71	92.1629
3002.08	116.188
3001.46	72.1054
3000.84	116.152
3000.21	120.139
2999.59	112.112
2998.96	100.085
2998.34	124.086
2997.71	100.054
2997.09	80.031
2996.46	116.027
2995.84	80.0064
2995.21	95.993
2994.59	59.9864
2993.96	135.948
2993.34	91.9509
2992.71	107.926
2992.09	119.899
2991.46	95.9045
2990.84	99.8852
2990.21	107.859
2989.58	131.808
2988.96	107.826
2988.33	87.845
2987.71	71.8621
2987.08	95.8014
2986.45	51.8845
2985.83	75.8195
2985.2	91.7674
2984.57	107.71
2983.95	75.7845
2983.32	91.7251
2982.69	111.648
2982.07	87.71
2981.44	107.628
2980.81	107.611
2980.18	103.61
2979.56	87.6561
2978.93	111.545
2978.3	99.5786
2977.67	139.389
2977.05	95.566
2976.42	115.458
2975.79	119.421
2975.16	91.5418
2974.53	167.138
2973.91	95.4925
2973.28	123.326
2972.65	111.374
2972.02	123.288
2971.39	111.339
2970.76	159.032
2970.13	115.28
2969.5	135.135
2968.88	127.167
2968.25	147.014
2967.62	131.1
2966.99	139.024
2966.36	178.718
2965.73	154.865
2965.1	162.782
2964.47	146.878
2963.84	154.794
2963.21	134.928
2962.58	142.842
2961.95	174.558
2961.32	150.732
2960.69	142.776
2960.06	166.547
2959.43	146.697
2958.8	150.639
2958.17	166.47
2957.53	142.667
2956.9	174.343
2956.27	126.776
2955.64	134.678
2955.01	162.381
2954.38	166.316
2953.75	170.25
2953.12	146.471
2952.48	146.449
2951.85	158.299
2951.22	146.404
2950.59	146.381
2949.96	134.492
2949.33	162.156
2948.69	138.405
2948.06	150.245
2947.43	138.362
2946.8	146.246
2946.16	146.223
2945.53	126.444
2944.9	126.424
2944.26	130.355
2943.63	130.335
2943	138.213
2942.37	134.243
2941.73	134.222
2941.1	134.202
2940.47	118.395
2939.83	106.539
2939.2	153.866
2938.56	114.395
2937.93	161.707
2937.3	149.851
2936.66	165.6
2936.03	118.267
2935.39	149.782
2934.76	141.877
2934.13	130.034
2933.49	106.375
2932.86	141.811
2932.22	157.544
2931.59	126.015
2930.95	137.808
2930.32	125.976
2929.68	129.893
2929.05	157.422
2928.41	121.983
2927.78	129.833
2927.14	121.946
2926.5	117.994
2925.87	117.975
2925.23	137.617
2924.6	106.145
2923.96	125.782
2923.32	141.483
2922.69	106.096
2922.05	137.51
2921.42	157.13
2920.78	157.106
2920.14	137.447
2919.51	153.131
2918.87	86.3684
2918.23	160.934
2917.6	121.663
2916.96	113.796
2916.32	145.166
2915.68	145.144
2915.05	145.121
2914.41	129.412
2913.77	129.392
2913.13	129.372
2912.5	137.192
2911.86	125.413
2911.22	172.417
2910.58	199.816
2909.94	152.777
2909.31	141.003
2908.67	176.226
2908.03	176.199
2907.39	137.022
2906.75	199.63
2906.11	148.721
2905.47	140.872
2904.83	144.763
2904.2	156.476
2903.56	168.186
2902.92	164.249
2902.28	152.493
2901.64	144.651
2901	128.993
2900.36	160.239
2899.72	160.214
2899.08	175.818
2898.44	128.913
2897.8	167.951
2897.16	171.831
2896.52	167.899
2895.88	148.353
2895.24	148.33
2894.6	128.793
2893.96	159.991
2893.32	140.458
2892.67	148.239
2892.03	156.016
2891.39	175.491
2890.75	120.875
2890.11	155.944
2889.47	155.92
2888.83	151.998
2888.19	148.078
2887.54	175.328
2886.9	171.405
2886.26	167.484
2885.62	194.719
2884.98	155.751
2884.33	190.765
2883.69	198.521
2883.05	140.111
2882.41	179.002
2881.77	213.991
2881.12	206.178
2880.48	171.14
2879.84	182.78
2879.19	178.864
2878.55	163.285
2877.91	171.034
2877.26	174.894
2876.62	182.639
2875.98	167.069
2875.33	143.735
2874.69	194.206
2874.05	166.991
2873.4	135.902
2872.76	166.94
2872.11	174.677
2871.47	151.363
2870.83	182.384
2870.18	135.797
2869.54	182.327
2868.89	143.512
2868.25	190.027
2867.6	166.733
2866.96	143.445
2866.31	135.67
2865.67	193.785
2865.02	178.254
2864.38	151.105
2863.73	178.199
2863.09	182.045
2862.44	170.398
2861.8	154.884
2861.15	150.988
2860.5	127.739
2859.86	116.109
2859.21	181.875
2858.57	150.894
2857.92	158.608
2857.27	174.055
2856.63	146.957
2855.98	143.067
2855.33	158.509
2854.69	177.812
2854.04	193.244
2853.39	200.943
2852.75	200.911
2852.1	185.428
2851.45	185.399
2850.81	142.89
2850.16	212.37
2849.51	185.313
2848.86	189.144
2848.21	169.817
2847.57	165.932
2846.92	173.623
2846.27	196.742
2845.62	204.425
2844.97	173.542
2844.33	212.074
2843.68	154.211
2843.03	173.461
2842.38	200.412
2841.73	188.821
2841.08	181.086
2840.43	165.648
2839.78	169.474
2839.14	177.15
2838.49	177.123
2837.84	119.347
2837.19	169.369
2836.54	157.796
2835.89	146.228
2835.24	153.9
2834.59	161.57
2833.94	173.083
2833.29	134.6
2832.64	192.255
2831.99	153.78
2831.34	172.976
2830.69	142.202
2830.04	172.922
2829.39	157.527
2828.74	111.404
2828.08	134.432
2827.43	165.134
2826.78	130.551
2826.13	122.852
2825.48	145.864
2824.83	138.165
2824.18	141.981
2823.53	141.959
2822.87	138.101
2822.22	138.079
2821.57	126.553
2820.92	145.705
2820.27	157.184
2819.61	160.992
2818.96	130.307
2818.31	149.446
2817.66	149.423
2817	145.569
2816.35	164.697
2815.7	130.205
2815.05	156.988
2814.39	130.165
2813.74	141.628
2813.09	122.47
2812.43	122.451
2811.78	179.822
2811.13	149.19
2810.47	145.342
2809.82	149.144
2809.16	130.003
2808.51	149.097
2807.86	194.943
2807.2	137.585
2806.55	156.67
2805.89	149.004
2805.24	164.261
2804.58	122.222
2803.93	137.478
2803.28	156.548
2802.62	145.071
2801.97	141.231
2801.31	160.291
2800.66	156.45
2800	133.534
2799.34	141.143
2798.69	160.191
2798.03	160.166
2797.38	194.457
2796.72	175.365
2796.07	167.715
2795.41	152.444
2794.75	148.61
2794.1	140.967
2793.44	144.754
2792.79	175.201
2792.13	118.052
2791.47	144.686
2790.82	148.471
2790.16	144.641
2789.5	159.842
2788.84	156.011
2788.19	167.401
2787.53	163.571
2786.87	182.562
2786.22	163.52
2785.56	193.912
2784.9	155.865
2784.24	171.045
2783.59	155.817
2782.93	136.793
2782.27	167.166
2781.61	178.535
2780.95	129.133
2780.29	174.682
2779.64	151.874
2778.98	151.85
2778.32	193.579
2777.66	140.417
2777	151.779
2776.34	144.167
2775.68	178.284
2775.02	155.5
2774.36	144.1
2773.71	174.409
2773.05	200.919
2772.39	178.145
2771.73	185.697
2771.07	208.403
2770.41	143.965
2769.75	181.822
2769.09	151.494
2768.43	140.11
2767.77	177.95
2767.11	132.495
2766.45	151.4
2765.79	200.573
2765.12	181.623
2764.46	147.545
2763.8	181.566
2763.14	162.627
2762.48	170.165
2761.82	162.577
2761.16	170.112
2760.5	181.424
2759.83	151.163
2759.17	196.481
2758.51	139.782
2757.85	177.533
2757.19	192.612
2756.53	185.03
2755.86	162.348
2755.2	139.673
2754.54	181.169
2753.88	184.914
2753.21	162.246
2752.55	173.538
2751.89	177.283
2751.23	184.798
2750.56	173.457
2749.9	188.511
2749.24	199.79
2748.57	169.606
2747.91	192.19
2747.25	169.553
2746.58	169.527
2745.92	177.033
2745.25	177.006
2744.59	192.04
2743.93	176.95
2743.26	195.744
2742.6	161.84
2741.93	191.92
2741.27	191.889
2740.61	191.859
2739.94	165.5
2739.28	180.517
2738.61	157.928
2737.95	218.056
2737.28	154.119
2736.62	195.437
2735.95	191.649
2735.29	195.376
2734.62	161.536
2733.95	229.119
2733.29	195.284
2732.62	183.989
2731.96	180.206
2731.29	176.424
2730.62	157.631
2729.96	213.894
2729.29	176.341
2728.63	206.324
2727.96	206.292
2727.29	206.259
2726.63	217.476
2725.96	213.693
2725.29	202.414
2724.62	224.869
2723.96	243.57
2723.29	213.558
2722.62	198.541
2721.96	228.473
2721.29	194.734
2720.62	194.703
2719.95	209.647
2719.28	175.926
2718.62	179.641
2717.95	250.71
2717.28	224.481
2716.61	190.779
2715.94	198.229
2715.27	160.802
2714.61	179.472
2713.94	228.043
2713.27	201.843
2712.6	231.709
2711.93	194.306
2711.26	239.108
2710.59	209.187
2709.92	209.154
2709.25	160.575
2708.58	194.153
2707.91	194.123
2707.24	205.29
2706.57	190.33
2705.9	227.614
2705.23	246.232
2704.56	175.319
2703.89	201.399
2703.22	178.993
2702.55	205.064
2701.88	182.665
2701.21	193.818
2700.54	182.607
2699.87	193.757
2699.2	242.158
2698.53	212.321
2697.86	204.839
2697.19	189.911
2696.51	238.283
2695.84	212.187
2695.17	215.876
2694.5	200.956
2693.83	163.716
2693.15	230.655
2692.48	197.142
2691.81	230.582
2691.14	182.206
2690.47	237.945
2689.79	215.604
2689.12	234.154
2688.45	215.536
2687.77	222.933
2687.1	230.328
2686.43	245.15
2685.76	204.259
2685.08	219.08
2684.41	193.057
2683.74	215.299
2683.06	192.996
2682.39	233.786
2681.71	200.356
2681.04	252.26
2680.37	274.475
2679.69	207.678
2679.02	229.894
2678.34	218.735
2677.67	203.874
2676.99	214.96
2676.32	185.281
2675.65	200.072
2674.97	233.381
2674.3	211.121
2673.62	240.714
2672.95	233.27
2672.27	255.446
2671.59	259.108
2670.92	214.655
2670.24	210.921
2669.57	221.987
2668.89	192.359
2668.22	240.411
2667.54	214.486
2666.86	218.15
2666.19	214.419
2665.51	243.955
2664.83	236.525
2664.16	221.708
2663.48	203.2
2662.8	232.72
2662.13	217.909
2661.45	232.646
2660.77	203.072
2660.1	214.115
2659.42	188.243
2658.74	236.19
2658.06	191.874
2657.39	236.115
2656.71	261.899
2656.03	243.417
2655.35	243.379
2654.68	213.844
2654	239.615
2653.32	232.206
2652.64	239.54
2651.96	202.656
2651.28	198.94
2650.6	206.275
2649.93	250.437
2649.25	239.351
2648.57	217.223
2647.89	254
2647.21	231.876
2646.53	242.88
2645.85	239.162
2645.17	261.197
2644.49	250.121
2643.81	235.371
2643.13	220.625
2642.45	301.474
2641.77	257.315
2641.09	216.846
2640.41	209.462
2639.73	246.171
2639.05	238.784
2638.37	246.093
2637.69	246.054
2637.01	201.953
2636.33	256.99
2635.65	242.267
2634.96	231.218
2634.28	245.86
2633.6	253.159
2632.92	216.435
2632.24	231.072
2631.56	282.376
2630.88	230.999
2630.19	267.623
2629.51	234.591
2628.83	252.879
2628.15	267.496
2627.46	227.152
2626.78	219.79
2626.1	256.381
2625.42	267.327
2624.73	274.607
2624.05	281.886
2623.37	241.578
2622.69	263.498
2622	256.138
2621.32	252.439
2620.64	234.109
2619.95	274.303
2619.27	259.633
2618.58	241.311
2617.9	292.451
2617.22	277.785
2616.53	252.159
2615.85	270.389
2615.16	292.266
2614.48	284.914
2613.79	266.609
2613.11	281.173
2612.43	273.826
2611.74	251.88
2611.06	262.79
2610.37	284.644
2609.69	251.76
2609	284.554
2608.31	273.566
2607.63	295.405
2606.94	273.479
2606.26	284.374
2605.57	295.264
2604.89	266.06
2604.2	291.527
2603.51	273.263
2602.83	295.077
2602.14	302.315
2601.45	254.924
2600.77	276.731
2600.08	327.656
2599.39	243.883
2598.71	276.599
2598.02	269.278
2597.33	247.405
2596.65	265.555
2595.96	247.327
2595.27	287.29
2594.58	298.152
2593.9	309.011
2593.21	276.249
2592.52	290.742
2591.83	272.527
2591.14	294.283
2590.46	305.134
2589.77	276.03
2589.08	305.037
2588.39	265.05
2587.7	294.05
2587.01	308.522
2586.32	312.102
2585.64	290.281
2584.95	264.839
2584.26	286.562
2583.57	308.277
2582.88	286.471
2582.19	268.297
2581.5	319.005
2580.81	293.583
2580.12	286.289
2579.43	322.477
2578.74	278.952
2578.05	275.286
2577.36	296.972
2576.67	307.788
2575.98	336.703
2575.29	267.871
2574.6	289.545
2573.91	278.643
2573.22	278.598
2572.52	285.789
2571.83	274.893
2571.14	303.781
2570.45	282.037
2569.76	285.608
2569.07	285.562
2568.38	314.43
2567.68	303.539
2566.99	307.104
2566.3	307.055
2565.61	288.947
2564.92	310.569
2564.22	306.909
2563.53	296.03
2562.84	292.373
2562.14	299.545
2561.45	328.364
2560.76	266.979
2560.07	321.045
2559.37	357.061
2558.68	295.701
2557.99	310.076
2557.29	306.421
2556.6	313.581
2555.91	302.72
2555.21	266.64
2554.52	342.253
2553.82	284.565
2553.13	302.528
2552.44	306.08
2551.74	324.033
2551.05	320.382
2550.35	320.331
2549.66	331.076
2548.96	280.65
2548.27	284.203
2547.57	309.337
2546.88	287.709
2546.18	291.259
2545.49	301.998
2544.79	319.924
2544.1	305.496
2543.4	355.757
2542.7	298.213
2542.01	305.35
2541.31	301.71
2540.62	355.53
2539.92	301.614
2539.22	348.237
2538.53	297.928
2537.83	323.003
2537.13	315.775
2536.44	308.549
2535.74	301.326
2535.04	312.038
2534.35	297.644
2533.65	319.109
2532.95	340.568
2532.25	326.176
2531.56	315.373
2530.86	351.155
2530.16	311.69
2529.46	315.222
2528.76	308.009
2528.07	343.769
2527.37	322.232
2526.67	322.181
2525.97	347.184
2525.27	311.342
2524.57	336.339
2523.88	321.975
2523.18	321.924
2522.48	346.907
2521.78	336.125
2521.08	325.345
2520.38	289.547
2519.68	335.964
2518.98	307.322
2518.28	328.711
2517.58	317.941
2516.88	371.468
2516.18	349.981
2515.48	310.648
2514.78	328.449
2514.08	349.813
2513.38	353.327
2512.68	374.68
2511.98	328.239
2511.28	342.456
2510.58	317.434
2509.88	313.817
2509.17	345.857
2508.47	345.802
2507.77	352.876
2507.07	292.234
2506.37	317.13
2505.67	302.829
2504.97	338.402
2504.26	363.279
2503.56	338.294
2502.86	356.042
2502.16	377.344
2501.45	323.895
2500.75	338.078
2500.05	345.14
2499.35	316.624
2498.64	309.46
2497.94	387.652
2497.24	344.919
2496.53	344.864
2495.83	351.919
2495.13	334.092
2494.42	380.235
2493.72	341.091
2493.02	323.274
2492.31	340.982
2491.61	344.479
2490.9	323.119
2490.2	315.967
2489.5	386.909
2488.79	308.768
2488.09	393.882
2487.38	340.6
2486.68	379.567
2485.97	372.412
2485.27	386.538
2484.56	351.019
2483.86	361.599
2483.15	336.729
2482.45	365.027
2481.74	329.535
2481.04	350.739
2480.33	357.767
2479.62	332.918
2478.92	364.735
2478.21	368.217
2477.51	329.218
2476.8	332.705
2476.09	322.035
2475.39	367.981
2474.68	360.847
2473.97	343.104
2473.27	339.512
2472.56	385.426
2471.85	364.152
2471.14	364.093
2470.44	367.569
2469.73	406.382
2469.02	378.051
2468.31	385.056
2467.61	367.334
2466.9	328.429
2466.19	402.525
2465.48	367.157
2464.77	335.33
2464.07	331.747
2463.36	381.096
2462.65	381.035
2461.94	349.226
2461.23	328.008
2460.52	384.378
2459.81	352.584
2459.1	401.881
2458.4	433.539
2457.69	373.559
2456.98	327.693
2456.27	415.715
2455.56	352.245
2454.85	334.579
2454.14	355.653
2453.43	383.762
2452.72	411.862
2452.01	369.56
2451.3	341.349
2450.59	394.071
2449.88	369.383
2449.16	379.876
2448.45	376.298
2447.74	390.302
2447.03	369.146
2446.32	330.42
2445.61	365.513
2444.9	337.342
2444.19	404.043
2443.47	403.978
2442.76	368.791
2442.05	347.661
2441.34	421.34
2440.63	403.719
2439.91	372.064
2439.2	386.042
2438.49	452.649
2437.78	431.527
2437.06	399.887
2436.35	403.33
2435.64	396.252
2434.93	410.213
2434.21	410.147
2433.5	403.071
2432.79	381.98
2432.07	374.911
2431.36	416.89
2430.64	406.315
2429.93	413.254
2429.22	416.689
2428.5	469.138
2427.79	430.557
2427.07	412.989
2426.36	409.423
2425.65	374.369
2424.93	423.284
2424.22	395.235
2423.5	384.68
2422.79	433.57
2422.07	405.532
2421.36	412.458
2420.64	415.886
2419.92	405.337
2419.21	415.753
2418.49	398.22
2417.78	429.589
2417.06	377.14
2416.35	425.96
2415.63	411.928
2414.91	446.765
2414.2	415.285
2413.48	401.261
2412.76	383.753
2412.05	394.156
2411.33	404.555
2410.61	470.743
2409.9	421.857
2409.18	425.275
2408.46	397.324
2407.74	404.23
2407.03	411.133
2406.31	404.1
2405.59	383.136
2404.87	431.83
2404.16	421.314
2403.44	442.135
2402.72	435.102
2402	445.473
2401.28	452.36
2400.56	420.975
2399.85	452.215
2399.13	420.84
2398.41	417.294
2397.69	399.843
2396.97	417.16
2396.25	403.19
2395.53	441.352
2394.81	413.484
2394.09	413.417
2393.37	409.877
2392.65	416.757
2391.93	434.052
2391.21	399.263
2390.49	430.441
2389.77	468.549
2389.05	451.123
2388.33	457.99
2387.61	444.04
2386.89	395.409
2386.17	447.364
2385.45	447.292
2384.73	443.753
2384	454.081
2383.28	412.419
2382.56	467.795
2381.84	464.255
2381.12	457.252
2380.4	453.715
2379.67	467.493
2378.95	457.031
2378.23	408.492
2377.51	429.193
2376.79	460.27
2376.06	453.276
2375.34	425.526
2374.62	453.129
2373.9	456.515
2373.17	432.236
2372.45	456.367
2371.73	501.232
2371	463.133
2370.28	445.779
2369.56	386.971
2368.83	480.181
2368.11	435.202
2367.38	421.318
2366.66	407.438
2365.94	469.514
2365.21	421.114
2364.49	452.106
2363.76	452.033
2363.04	462.311
2362.31	438.089
2361.59	465.61
2360.86	437.948
2360.14	475.803
2359.41	475.727
2358.69	458.416
2357.96	472.127
2357.24	434.149
2356.51	489.2
2355.79	444.342
2355.06	513.149
2354.33	499.293
2353.61	430.355
2352.88	481.92
2352.15	454.308
2351.43	498.97
2350.7	454.161
2349.98	505.689
2349.25	457.454
2348.52	416.113
2347.79	491.69
2347.07	484.735
2346.34	464.033
2345.61	508.635
2344.88	470.755
2344.16	522.213
2343.43	484.343
2342.7	487.699
2341.97	497.922
2341.25	484.108
2340.52	494.328
2339.79	463.358
2339.06	504.463
2338.33	470.07
2337.6	490.578
2336.87	435.617
2336.14	497.278
2335.42	500.626
2334.69	469.69
2333.96	514.176
2333.23	496.956
2332.5	448.901
2331.77	493.369
2331.04	472.735
2330.31	496.634
2329.58	476.007
2328.85	469.082
2328.12	489.546
2327.39	468.93
2326.66	465.432
2325.93	526.947
2325.2	550.81
2324.47	526.777
2323.73	519.851
2323	516.347
2322.27	502.588
2321.54	526.435
2320.81	495.589
2320.08	509.178
2319.35	474.928
2318.61	515.846
2317.88	536.256
2317.15	536.169
2316.42	478.035
2315.69	556.479
2314.95	464.226
2314.22	515.344
2313.49	532.322
2312.76	508.354
2312.02	508.271
2311.29	491.135
2310.56	494.466
2309.82	545.529
2309.09	507.941
2308.36	541.944
2307.62	524.816
2306.89	477.028
2306.16	534.866
2305.42	551.811
2304.69	534.693
2303.95	500.555
2303.22	503.878
2302.48	517.412
2301.75	507.118
2301.02	520.647
2300.28	520.563
2299.55	564.702
2298.81	530.598
2298.08	533.912
2297.34	462.422
2296.6	550.737
2295.87	550.648
2295.13	550.558
2294.4	489.306
2293.66	479.034
2292.93	512.925
2292.19	573.975
2291.45	556.903
2290.72	536.441
2289.98	566.906
2289.24	543.055
2288.51	505.638
2287.77	539.486
2287.03	515.651
2286.3	552.878
2285.56	532.44
2284.82	573.043
2284.08	562.779
2283.35	511.842
2282.61	613.433
2281.87	525.23
2281.13	508.205
2280.4	525.06
2279.66	508.04
2278.92	535.048
2278.18	568.819
2277.44	531.489
2276.7	534.787
2275.97	544.853
2275.23	558.299
2274.49	564.974
2273.75	585.177
2273.01	558.026
2272.27	564.698
2271.53	557.845
2270.79	510.429
2270.05	547.524
2269.31	604.882
2268.57	594.647
2267.83	618.197
2267.09	591.076
2266.35	604.488
2265.61	533.484
2264.87	590.788
2264.13	553.562
2263.39	566.972
2262.65	516.265
2261.91	543.171
2261.17	624.039
2260.42	573.348
2259.68	542.906
2258.94	603.505
2258.2	535.987
2257.46	576.345
2256.72	559.401
2255.97	549.202
2255.23	616.489
2254.49	535.55
2253.75	602.817
2253	538.743
2252.26	562.222
2251.52	602.523
2250.78	612.521
2250.03	582.136
2249.29	625.779
2248.55	612.221
2247.8	635.665
2247.06	618.747
2246.32	598.473
2245.57	611.822
2244.83	635.25
2244.09	625.065
2243.34	598.083
2242.6	621.502
2241.85	591.17
2241.11	580.999
2240.36	641.345
2239.62	547.237
2238.88	547.147
2238.13	620.894
2237.39	550.324
2236.64	587.141
2235.89	583.69
2235.15	643.967
2234.4	590.207
2233.66	606.875
2232.91	600.071
2232.17	643.547
2231.42	599.875
2230.67	606.479
2229.93	606.38
2229.18	653.176
2228.44	592.786
2227.69	589.341
2226.94	579.2
2226.2	656.097
2225.45	602.439
2224.7	629.112
2223.95	582.168
2223.21	645.633
2222.46	665.595
2221.71	615.324
2220.96	625.255
2220.22	581.693
2219.47	581.598
2218.72	624.948
2217.97	598.115
2217.22	624.744
2216.48	621.302
2215.73	597.822
2214.98	550.975
2214.23	641.029
2213.48	644.263
2212.73	627.47
2211.98	607.345
2211.23	683.985
2210.48	620.49
2209.73	633.73
2208.98	660.306
2208.23	650.195
2207.48	646.755
2206.73	629.983
2205.98	629.88
2205.23	659.766
2204.48	593.026
2203.73	619.578
2202.98	606.154
2202.23	609.385
2201.48	669.215
2200.73	619.172
2199.98	705.608
2199.23	658.903
2198.48	635.505
2197.72	648.708
2196.97	655.254
2196.22	645.17
2195.47	625.114
2194.72	718.098
2193.97	698.037
2193.21	668.011
2192.46	681.194
2191.71	701.016
2190.96	617.856
2190.2	694.144
2189.45	674.106
2188.7	690.597
2187.94	713.721
2187.19	683.732
2186.44	696.895
2185.68	693.463
2184.93	703.301
2184.18	633.531
2183.42	626.794
2182.67	669.797
2181.91	610.013
2181.16	639.745
2180.41	652.897
2179.65	669.359
2178.9	679.188
2178.14	649.264
2177.39	731.958
2176.63	721.904
2175.88	678.743
2175.12	678.632
2174.37	695.07
2173.61	685.028
2172.86	691.533
2172.1	681.495
2171.34	674.768
2170.59	664.736
2169.83	651.401
2169.08	667.824
2168.32	664.409
2167.56	700.655
2166.81	680.713
2166.05	733.464
2165.29	667.277
2164.54	644.047
2163.78	657.151
2163.02	706.569
2162.27	653.634
2161.51	719.54
2160.75	735.922
2159.99	699.506
2159.23	679.597
2158.48	682.784
2157.72	689.268
2156.96	675.965
2156.2	649.479
2155.44	672.447
2154.69	609.717
2153.93	728.245
2153.17	724.831
2152.41	747.771
2151.65	727.886
2150.89	658.613
2150.13	698.015
2149.37	760.448
2148.61	727.408
2147.85	747.034
2147.09	664.653
2146.33	717.18
2145.57	661.145
2144.81	736.677
2144.05	647.775
2143.29	766.024
2142.53	706.73
2141.77	703.327
2141.01	699.926
2140.25	758.95
2139.49	729.26
2138.73	699.581
2137.97	719.169
2137.2	679.651
2136.44	659.842
2135.68	685.992
2134.92	744.95
2134.16	734.984
2133.4	741.424
2132.63	672.42
2131.87	741.18
2131.11	793.523
2130.35	750.772
2129.58	767.038
2128.82	740.693
2128.06	734.017
2127.29	769.936
2126.53	743.603
2125.77	815.536
2125	766.281
2124.24	710.494
2123.48	739.84
2122.71	746.264
2121.95	706.871
2121.19	736.203
2120.42	752.439
2119.66	703.251
2118.89	781.625
2118.13	725.908
2117.36	715.981
2116.6	738.744
2115.83	813.792
2115.07	767.911
2114.3	826.593
2113.54	757.858
2112.77	777.329
2112.01	741.28
2111.24	705.243
2110.48	724.714
2109.71	819.248
2108.94	753.845
2108.18	756.984
2107.41	730.761
2106.64	769.782
2105.88	756.61
2105.11	795.614
2104.34	782.442
2103.58	739.938
2102.81	765.889
2102.04	817.899
2101.28	759.12
2100.51	752.48
2099.74	710.015
2098.97	797.821
2098.21	774.899
2097.44	800.814
2096.67	748.605
2095.9	768.007
2095.13	758.119
2094.36	797.032
2093.6	793.648
2092.83	809.778
2092.06	799.889
2091.29	777
2090.52	809.377
2089.75	760.494
2088.98	789.613
2088.21	799.23
2087.44	737.379
2086.67	815.205
2085.9	782.598
2085.13	821.429
2084.36	821.294
2083.59	811.421
2082.82	791.816
2082.05	820.887
2081.28	726.673
2080.51	726.553
2079.74	826.966
2078.97	787.92
2078.2	820.209
2077.43	852.488
2076.65	826.42
2075.88	878.129
2075.11	800.229
2074.34	806.575
2073.57	858.261
2072.8	715.639
2072.02	867.691
2071.25	896.681
2070.48	851.221
2069.71	805.776
2068.93	837.998
2068.16	844.329
2067.39	785.97
2066.61	863.453
2065.84	885.944
2065.07	811.443
2064.29	830.702
2063.52	833.797
2062.75	849.815
2061.97	768.907
2061.2	901.216
2060.43	810.638
2059.65	758.838
2058.88	842.655
2058.1	765.043
2057.33	826.239
2056.55	880.961
2055.78	874.362
2055	912.928
2054.23	848.27
2053.45	867.478
2052.68	883.456
2051.9	809.164
2051.13	934.735
2050.35	899.131
2049.57	863.538
2048.8	882.725
2048.02	850.368
2047.25	843.786
2046.47	830.766
2045.69	898.238
2044.92	898.089
2044.14	801.388
2043.36	894.574
2042.59	862.252
2041.81	804.207
2041.03	810.506
2040.25	836.098
2039.48	903.479
2038.7	822.962
2037.92	864.61
2037.14	886.962
2036.37	848.258
2035.59	860.967
2034.81	847.977
2034.03	912.066
2033.25	902.282
2032.47	911.764
2031.69	879.514
2030.92	879.368
2030.14	876.013
2029.36	834.16
2028.58	927.047
2027.8	955.759
2027.02	862.605
2026.24	843.225
2025.46	878.348
2024.68	842.946
2023.9	858.829
2023.12	909.951
2022.34	877.765
2021.56	896.837
2020.78	944.725
2020	925.357
2019.21	854.773
2018.43	925.05
2017.65	915.295
2016.87	918.343
2016.09	831.81
2015.31	911.641
2014.53	921.084
2013.74	917.734
2012.96	923.976
2012.18	907.839
2011.4	926.865
2010.62	869.191
2009.83	875.437
2009.05	904.042
2008.27	935.831
2007.49	903.741
2006.7	922.749
2005.92	913.018
2005.14	884.14
2004.35	957.393
2003.57	899.8
2002.79	966.646
2002	947.347
2001.22	944.001
2000.43	921.523
1999.65	934.122
1998.87	933.967
1998.08	898.754
1997.3	1048.37
1996.51	933.501
1995.73	869.637
1994.94	920.451
1994.16	913.929
1993.37	929.697
1992.59	929.542
1991.8	961.216
1991.02	951.509
1990.23	887.716
1989.44	983.005
1988.66	957.396
1987.87	938.156
1987.09	922.101
1986.3	902.873
1985.51	963.116
1984.73	947.066
1983.94	1023.17
1983.15	1035.71
1982.37	1022.83
1981.58	914.676
1980.79	987.559
1980	952.47
1979.22	939.614
1978.43	923.589
1977.64	888.528
1976.85	1021.64
1976.06	958.022
1975.28	999.095
1974.49	998.929
1973.7	976.568
1972.91	995.426
1972.12	1080.84
1971.33	969.742
1970.54	988.592
1969.76	991.595
1968.97	1004.1
1968.18	950.094
1967.39	1006.93
1966.6	921.284
1965.81	1025.59
1965.02	1006.43
1964.23	895.509
1963.44	996.601
1962.65	936.333
1961.86	983.618
1961.07	1046.7
1960.28	992.775
1959.48	1033.71
1958.69	1093.59
1957.9	998.599
1957.11	1030.03
1956.32	1033.02
1955.53	979.148
1954.74	1076.88
1953.94	1000.92
1953.15	1022.86
1952.36	969.026
1951.57	1006.74
1950.78	1047.59
1949.98	993.78
1949.19	1003.08
1948.4	1009.22
1947.61	1062.65
1946.81	1037.26
1946.02	1005.56
1945.23	961.268
1944.43	1027.28
1943.64	1017.66
1942.85	985.988
1942.05	1055.11
1941.26	1039.19
1940.46	1067.36
1939.67	1048.29
1938.88	1067
1938.08	969.266
1937.29	1010.01
1936.49	1031.86
1935.7	1053.71
1934.9	1081.83
1934.11	1034.49
1933.31	996.589
1932.52	1012.14
1931.72	1018.26
1930.93	1014.94
1930.13	1090.17
1929.33	1017.75
1928.54	1017.58
1927.74	1089.63
1926.95	1039.21
1926.15	1010.79
1925.35	1117.33
1924.56	1010.45
1923.76	1007.14
1922.96	1132.45
1922.17	997.396
1921.37	1128.94
1920.57	1066.04
1919.77	1087.81
1918.98	987.326
1918.18	1099.98
1917.38	1081
1916.58	1105.88
1915.78	1099.43
1914.99	1071.06
1914.19	1133.5
1913.39	1045.65
1912.59	1051.74
1911.79	1082.86
1910.99	1073.29
1910.19	1101.27
1909.39	1047.91
1908.59	1079.01
1907.8	1141.37
1907	1069.27
1906.2	1097.22
1905.4	1025.15
1904.6	1062.48
1903.8	1099.79
1903	1040.26
1902.2	1083.81
1901.39	1114.86
1900.59	1058.47
1899.79	1058.29
1898.99	1111.18
1898.19	1092.26
1897.39	1048.4
1896.59	1098.14
1895.79	1097.95
1894.99	1144.55
1894.18	1060.17
1893.38	1147.28
1892.58	1078.52
1891.78	1178.07
1890.98	1131.13
1890.17	1155.86
1889.37	1130.75
1888.57	1199.08
1887.76	1102.34
1886.96	1108.39
1886.16	1086.41
1885.36	1120.46
1884.55	1163.84
1883.75	1148.09
1882.94	1101.23
1882.14	1181.92
1881.34	1166.17
1880.53	1131.77
1879.73	1134.69
1878.92	1078.55
1878.12	1075.27
1877.32	1047.12
1876.51	1168.1
1875.71	1130.63
1874.9	1152.18
1874.1	1173.73
1873.29	1220.1
1872.49	1095.73
1871.68	1132.79
1870.87	1160.53
1870.07	1147.92
1869.26	1150.83
1868.46	1144.43
1867.65	1131.84
1866.84	1113.05
1866.04	1125.26
1865.23	1183.96
1864.42	1233.34
1863.62	1137.09
1862.81	1174.07
1862	1142.9
1861.2	1176.77
1860.39	1127.03
1859.58	1185.66
1858.77	1104.99
1857.96	1095.52
1857.16	1129.37
1856.35	1160.12
1855.54	1243.44
1854.73	1221.58
1853.92	1174.99
1853.12	1131.51
1852.31	1220.96
1851.5	1211.49
1850.69	1140.21
1849.88	1133.84
1849.07	1084.23
1848.26	1114.93
1847.45	1195.03
1846.64	1201
1845.83	1139.06
1845.02	1166.65
1844.21	1218.91
1843.4	1212.53
1842.59	1215.42
1841.78	1187.45
1840.97	1258.18
1840.16	1180.89
1839.35	1186.85
1838.54	1180.49
1837.72	1146.39
1836.91	1183.17
1836.1	1170.65
1835.29	1201.26
1834.48	1238.01
1833.67	1268.59
1832.85	1243.75
1832.04	1138.88
1831.23	1203.32
1830.42	1147.73
1829.6	1221.38
1828.79	1193.49
1827.98	1264.02
1827.17	1165.41
1826.35	1220.55
1825.54	1248.01
1824.73	1152.53
1823.91	1235.3
1823.1	1176.72
1822.29	1228.74
1821.47	1286.89
1820.66	1225.26
1819.84	1200.49
1819.03	1234.05
1818.21	1273.74
1817.4	1224.43
1816.58	1251.84
1815.77	1196.41
1814.95	1233.01
1814.14	1278.8
1813.32	1296.99
1812.51	1235.45
1811.69	1265.9
1810.88	1259.55
1810.06	1237.89
1809.25	1253
1808.43	1240.54
1807.61	1252.58
1806.8	1249.31
1805.98	1206.23
1805.16	1291.74
1804.35	1205.83
1803.53	1254.58
1802.71	1223.78
1801.89	1238.86
1801.08	1400.75
1800.26	1284.31
1799.44	1250.47
1798.62	1283.88
1797.81	1246.99
1796.99	1304.84
1796.17	1368.78
1795.35	1252.47
1794.53	1353.05
1793.71	1358.93
1792.9	1315.95
1792.08	1279.09
1791.26	1288.04
1790.44	1229.84
1789.62	1327.27
1788.8	1256.88
1787.98	1253.61
1787.16	1180.21
1786.34	1240.99
1785.52	1295.66
1784.7	1268.01
1783.88	1283.03
1783.06	1282.81
1782.24	1258.22
1781.42	1306.75
1780.6	1288.25
1779.78	1300.22
1778.95	1257.37
1778.13	1281.51
1777.31	1290.43
1776.49	1351.07
1775.67	1363.01
1774.85	1362.78
1774.02	1286.51
1773.2	1420.09
1772.38	1362.09
1771.56	1301.06
1770.74	1343.39
1769.91	1349.24
1769.09	1263.94
1768.27	1257.65
1767.44	1375.89
1766.62	1375.66
1765.8	1311.66
1764.97	1347.87
1764.15	1320.33
1763.33	1335.28
1762.5	1398.77
1761.68	1325.72
1760.85	1349.76
1760.03	1349.53
1759.21	1400.85
1758.38	1376.36
1757.56	1333.69
1756.73	1363.77
1755.91	1408.99
1755.08	1387.55
1754.26	1369.14
1753.43	1435.53
1752.6	1398.96
1751.78	1398.72
1750.95	1443.89
1750.13	1498.12
1749.3	1473.66
1748.47	1488.53
1747.65	1488.28
1746.82	1485.01
1745.99	1530.11
1745.17	1508.69
1744.34	1656.56
1743.51	1626.05
1742.69	1580.45
1741.86	1643.63
1741.03	1703.77
1740.2	1766.91
1739.38	1760.57
1738.55	1995.77
1737.72	1944.12
1736.89	1922.66
1736.06	1955.53
1735.23	2045.71
1734.4	2102.69
1733.58	2210.91
1732.75	2177.37
1731.92	2237.3
1731.09	2252
1730.26	2266.68
1729.43	2338.63
1728.6	2419.59
1727.77	2446.29
1726.94	2485.03
1726.11	2538.82
1725.28	2526.35
1724.45	2592.15
1723.62	2579.67
1722.79	2546.13
1721.96	2512.59
1721.13	2548.27
1720.3	2481.66
1719.46	2276.72
1718.63	2318.44
1717.8	2197.78
1716.97	2278.57
1716.14	2191.02
1715.31	2154.59
1714.47	2034.04
1713.64	1967.61
1712.81	1946.25
1711.98	1852.83
1711.14	1888.54
1710.31	1777.15
1709.48	1770.85
1708.65	1680.52
1707.81	1599.22
1706.98	1598.95
1706.15	1547.69
1705.31	1592.41
1704.48	1589.14
1703.64	1528.91
1702.81	1498.68
1701.98	1600.31
1701.14	1450.22
1700.31	1440.99
1699.47	1473.69
1698.64	1485.42
1697.8	1449.24
1696.97	1478.93
1696.13	1418.81
1695.3	1481.42
1694.46	1475.18
1693.63	1510.83
1692.79	1441.78
1691.95	1531.25
1691.12	1513.05
1690.28	1539.7
1689.45	1464.71
1688.61	1521.24
1687.77	1482.14
1686.94	1502.8
1686.1	1493.58
1685.26	1496.32
1684.42	1484.12
1683.59	1462.96
1682.75	1486.6
1681.91	1516.19
1681.07	1495.04
1680.24	1470.92
1679.4	1607.89
1678.56	1464.45
1677.72	1523.84
1676.88	1529.55
1676.04	1410.04
1675.21	1505.18
1674.37	1466.18
1673.53	1519.57
1672.69	1456.75
1671.85	1456.5
1671.01	1477.1
1670.17	1521.51
1669.33	1464.68
1668.49	1541.82
1667.65	1425.5
1666.81	1547.25
1665.97	1419.06
1665.13	1549.69
1664.29	1513.74
1663.45	1537.27
1662.61	1465.66
1661.77	1548.64
1660.92	1465.16
1660.08	1488.68
1659.24	1491.4
1658.4	1508.97
1657.56	1541.38
1656.72	1550.02
1655.87	1523.04
1655.03	1525.75
1654.19	1486.9
1653.35	1548.96
1652.5	1533.86
1651.66	1601.83
1650.82	1545.2
1649.98	1512.32
1649.13	1497.24
1648.29	1579.98
1647.45	1541.19
1646.6	1529.07
1645.76	1508.07
1644.91	1510.77
1644.07	1522.36
1643.23	1536.91
1642.38	1450.78
1641.54	1548.22
1640.69	1450.29
1639.85	1473.71
1639	1585.89
1638.16	1541.25
1637.31	1517.32
1636.47	1543.68
1635.62	1552.29
1634.78	1614.1
1633.93	1531.06
1633.08	1504.21
1632.24	1610.32
1631.39	1615.95
1630.55	1509.34
1629.7	1574.05
1628.85	1671.22
1628.01	1632.56
1627.16	1555.54
1626.31	1741.19
1625.46	1605.16
1624.62	1628.49
1623.77	1604.62
1622.92	1754.75
1622.07	1795.73
1621.23	1889.76
1620.38	1915.97
1619.53	2027.63
1618.68	2195.24
1617.83	2404.04
1616.98	2701.14
1616.13	2933.34
1615.29	3306.8
1614.44	3456.39
1613.59	3608.86
1612.74	3652.39
1611.89	3510.52
1611.04	3359.87
1610.19	3221.04
1609.34	3008.73
1608.49	2784.73
1607.64	2531.41
1606.79	2433.97
1605.94	2330.68
1605.09	2212.74
1604.24	2065.46
1603.38	2091.54
1602.53	1976.64
1601.68	1905.82
1600.83	1870.26
1599.98	1796.55
1599.13	1775.7
1598.27	1740.18
1597.42	1760.42
1596.57	1701.45
1595.72	1718.76
1594.87	1695
1594.01	1653.66
1593.16	1606.47
1592.31	1617.92
1591.45	1667.46
1590.6	1626.16
1589.75	1576.08
1588.89	1722.26
1588.04	1648.75
1587.19	1575.26
1586.33	1627.69
1585.48	1659.61
1584.62	1668.1
1583.77	1565.41
1582.92	1641.2
1582.06	1635.07
1581.21	1696.2
1580.35	1652.05
1579.5	1672.23
1578.64	1631.02
1577.78	1636.59
1576.93	1639.23
1576.07	1606.81
1575.22	1659.11
1574.36	1699.71
1573.51	1693.58
1572.65	1582.35
1571.79	1625.86
1570.94	1651.85
1570.08	1607.8
1569.22	1642.53
1568.37	1624.75
1567.51	1659.46
1566.65	1603.78
1565.79	1586.01
1564.94	1594.48
1564.08	1594.21
1563.22	1631.81
1562.36	1602.4
1561.5	1660.38
1560.65	1677.57
1559.79	1581.19
1558.93	1644.97
1558.07	1726.19
1557.21	1580.37
1556.35	1644.12
1555.49	1690.39
1554.63	1675.55
1553.77	1564.74
1552.91	1637.17
1552.05	1581.65
1551.19	1656.96
1550.33	1618.89
1549.47	1720.32
1548.61	1647.38
1547.75	1652.91
1546.89	1594.54
1546.03	1710.42
1545.17	1599.8
1544.31	1704.03
1543.45	1610.85
1542.58	1651.2
1541.72	1598.69
1540.86	1627.43
1540	1589.44
1539.14	1670.37
1538.28	1530.91
1537.41	1632.1
1536.55	1666.6
1535.69	1622.85
1534.82	1674.72
1533.96	1648.36
1533.1	1662.56
1532.24	1679.65
1531.37	1589.6
1530.51	1650.12
1529.64	1586.16
1528.78	1646.66
1527.92	1689.78
1527.05	1703.95
1526.19	1628.45
1525.32	1576.12
1524.46	1677.04
1523.59	1595.81
1522.73	1734.28
1521.86	1667.51
1521	1678.78
1520.13	1643.82
1519.27	1698.42
1518.4	1695.24
1517.54	1640.08
1516.67	1625.36
1515.8	1648.18
1514.94	1636.35
1514.07	1656.26
1513.21	1658.86
1512.34	1658.58
1511.47	1669.83
1510.6	1652.24
1509.74	1651.95
1508.87	1743.91
1508	1657.14
1507.14	1685.67
1506.27	1668.1
1505.4	1604.44
1504.53	1644.48
1503.66	1693.15
1502.8	1641.03
1501.93	1721.35
1501.06	1723.93
1500.19	1749.53
1499.32	1683.05
1498.45	1674.13
1497.58	1630.7
1496.71	1673.56
1495.84	1589.89
1494.97	1664.35
1494.1	1655.44
1493.23	1715.5
1492.36	1686.47
1491.49	1591.39
1490.62	1683.02
1489.75	1685.6
1488.88	1610.66
1488.01	1748.17
1487.14	1739.26
1486.27	1707.39
1485.4	1744.39
1484.52	1767.04
1483.65	1738.05
1482.78	1620.18
1481.91	1680.11
1481.04	1697.02
1480.17	1682.4
1479.29	1705.03
1478.42	1756.31
1477.55	1629.96
1476.67	1755.7
1475.8	1738.21
1474.93	1689.24
1474.06	1720.44
1473.18	1728.72
1472.31	1656.88
1471.43	1785.35
1470.56	1782.18
1469.69	1784.73
1468.81	1707.21
1467.94	1701.2
1467.06	1800.95
1466.19	1772.06
1465.31	1743.18
1464.44	1757.16
1463.56	1816.85
1462.69	1833.67
1461.81	1747.68
1460.94	1684.56
1460.06	1724.24
1459.19	1915.17
1458.31	1854.91
1457.43	1866
1456.56	1837.15
1455.68	1845.39
1454.8	1853.62
1453.93	1873.26
1453.05	1830.18
1452.17	1881.16
1451.3	1803.89
1450.42	1814.98
1449.54	1911.52
1448.66	1800.11
1447.78	1973.51
1446.91	1913.37
1446.03	1918.73
1445.15	1875.71
1444.27	1881.07
1443.39	1846.6
1442.51	1863.35
1441.64	1865.87
1440.76	1865.55
1439.88	1839.64
1439	1799.52
1438.12	1810.57
1437.24	1855.73
1436.36	1932.12
1435.48	1772.7
1434.6	1860.44
1433.72	1757.88
1432.84	1791.65
1431.96	1814.05
1431.08	1782.51
1430.2	1807.75
1429.31	1804.59
1428.43	1775.91
1427.55	1755.75
1426.67	1752.61
1425.79	1783.49
1424.91	1839.88
1424.02	1709.18
1423.14	1791.06
1422.26	1796.42
1421.38	1722.45
1420.49	1809.96
1419.61	1843.63
1418.73	1837.64
1417.85	1780.7
1416.96	1814.36
1416.08	1819.7
1415.2	1774.12
1414.31	1813.41
1413.43	1923.41
1412.54	1886.31
1411.66	1911.43
1410.78	1863.04
1409.89	1899.46
1409.01	1845.43
1408.12	1853.59
1407.24	1881.52
1406.35	1799.28
1405.47	1841.33
1404.58	1787.36
1403.7	1919.73
1402.81	1789.56
1401.92	1792.07
1401.04	1724.04
1400.15	1797.09
1399.27	1819.34
1398.38	1813.38
1397.49	1717.2
1396.61	1753.55
1395.72	1888.54
1394.83	1795.21
1393.94	1766.72
1393.06	1746.69
1392.17	1811.17
1391.28	1760.16
1390.39	1720.44
1389.51	1717.32
1388.62	1778.95
1387.73	1739.24
1386.84	1758.63
1385.95	1817.4
1385.06	1772.08
1384.17	1808.33
1383.29	1748.97
1382.4	1793.65
1381.51	1689.33
1380.62	1764.92
1379.73	1775.85
1378.84	1812.06
1377.95	1828.6
1377.06	1833.9
1376.17	1842
1375.28	1819.22
1374.39	1897.5
1373.5	1801.75
1372.6	1829.49
1371.71	1812.34
1370.82	1795.19
1369.93	1836.95
1369.04	1833.82
1368.15	1797.06
1367.26	1878.03
1366.36	1790.82
1365.47	1686.84
1364.58	1745.37
1363.69	1857.11
1362.79	1845.59
1361.9	1853.66
1361.01	1828.14
1360.11	1777.44
1359.22	1816.31
1358.33	1757.23
1357.43	1796.09
1356.54	1711.86
1355.65	1773.09
1354.75	1842.69
1353.86	1859.14
1352.96	1744.21
1352.07	1788.62
1351.17	1791.1
1350.28	1860.63
1349.39	1709.47
1348.49	1812.51
1347.59	1778.68
1346.7	1716.95
1345.8	1833.89
1344.91	1761
1344.01	1796.97
1343.12	1760.39
1342.22	1846.55
1341.32	1798.82
1340.43	1798.5
1339.53	1753.58
1338.63	1853.62
1337.74	1803.13
1336.84	1811.18
1335.94	1877.72
1335.04	1774.33
1334.15	1768.45
1333.25	1879.52
1332.35	1829.08
1331.45	1901.13
1330.55	1822.87
1329.66	1808.64
1328.76	1755.47
1327.86	1735.69
1326.96	1854.97
1326.06	1826.84
1325.16	1837.64
1324.26	1784.51
1323.36	1900.92
1322.46	1811.67
1321.56	1919.7
1320.66	1824.92
1319.76	1888.48
1318.86	1860.38
1317.96	1885.04
1317.06	1845.85
1316.16	1931.56
1315.26	1978.39
1314.36	1878.17
1313.46	1944.41
1312.55	2016.18
1311.65	1902.14
1310.75	2084.78
1309.85	2067.78
1308.95	1962.11
1308.04	2114.16
1307.14	2135.95
1306.24	2124.5
1305.34	2118.59
1304.43	2107.14
1303.53	2128.92
1302.63	2045.5
1301.72	2158.61
1300.82	2169.3
1299.92	2188.29
1299.01	2182.37
1298.11	2242.83
1297.21	2380.69
1296.3	2316.68
1295.4	2354.97
1294.49	2307.58
1293.59	2334.81
1292.68	2389.65
1291.78	2361.61
1290.87	2419.19
1289.97	2529.21
1289.06	2376.93
1288.16	2500.72
1287.25	2434.05
1286.34	2430.86
1285.44	2438.71
1284.53	2366.57
1283.62	2319.27
1282.72	2368.49
1281.81	2357.05
1280.9	2326.31
1280	2306.62
1279.09	2231.82
1278.18	2294.79
1277.27	2354.98
1276.37	2249.92
1275.46	2194.45
1274.55	2163.79
1273.64	2229.46
1272.73	2165.78
1271.82	2091.11
1270.92	2143.01
1270.01	2071.12
1269.1	2114.75
1268.19	2067.64
1267.28	2012.3
1266.37	2042.18
1265.46	2099.53
1264.55	1986.51
1263.64	2024.62
1262.73	1878.69
1261.82	1999.19
1260.91	1946.67
1260	1935.35
1259.09	1940.49
1258.18	1929.18
1257.27	1983.71
1256.35	1991.59
1255.44	1958.33
1254.53	1900.4
1253.62	1861.68
1252.71	1894.24
1251.79	1844.58
1250.88	1860.69
1249.97	1879.54
1249.06	1860.04
1248.14	1856.97
1247.23	1914.15
1246.32	1880.96
1245.41	1913.48
1244.49	1820.08
1243.58	1871.75
1242.66	1813.97
1241.75	1879.3
1240.84	1810.59
1239.92	1862.23
1239.01	1897.45
1238.09	1935.38
1237.18	1929.57
1236.26	1967.49
1235.35	1907.04
1234.43	1879.38
1233.52	1868.13
1232.6	1870.53
1231.69	1848.36
1230.77	1856.22
1229.86	1787.66
1228.94	1806.45
1228.02	1833.41
1227.11	1884.92
1226.19	1851.86
1225.27	1813.35
1224.36	1911.18
1223.44	1796.36
1222.52	1905.06
1221.6	1771.2
1220.69	1852.62
1219.77	1914.95
1218.85	1846.52
1217.93	1816.24
1217.01	1815.92
1216.1	1883.65
1215.18	1809.84
1214.26	1809.52
1213.34	1847.29
1212.42	1806.16
1211.5	1816.72
1210.58	1857.18
1209.66	1720.92
1208.74	1791.29
1207.82	1807.28
1206.9	1864.02
1205.98	1708.84
1205.06	1779.16
1204.14	1822.3
1203.22	1794.82
1202.3	1878.67
1201.38	1886.48
1200.46	1853.58
1199.54	1864.1
1198.61	1804.09
1197.69	1836.32
1196.77	1887.52
1195.85	1884.48
1194.93	1827.21
1194	1807.92
1193.08	1888.9
1192.16	1899.4
1191.24	1874.68
1190.31	1863.52
1189.39	1857.77
1188.47	1917.01
1187.54	1935.62
1186.62	1913.63
1185.7	1948.47
1184.77	1975.18
1183.85	1912.61
1182.92	1912.27
1182	1920.05
1181.07	1917
1180.15	1959.92
1179.23	1927.13
1178.3	1926.79
1177.37	1964.28
1176.45	2009.85
1175.52	2017.6
1174.6	2025.35
1173.67	1997.99
1172.75	1957.14
1171.82	1983.78
1170.89	1951.05
1169.97	1929.12
1169.04	1947.66
1168.11	1906.86
1167.19	1914.61
1166.26	1879.22
1165.33	1849.24
1164.4	1873.17
1163.48	1886.31
1162.55	1883.28
1161.62	1831.76
1160.69	1960.72
1159.76	1866.12
1158.83	1814.63
1157.91	1854.69
1156.98	1800.53
1156.05	1843.27
1155.12	1834.87
1154.19	1810.34
1153.26	1909.52
1152.33	1833.89
1151.4	1814.75
1150.47	1873.56
1149.54	1878.61
1148.61	1870.21
1147.68	1920.93
1146.75	1936.7
1145.82	1920.24
1144.89	1911.85
1143.96	1844.39
1143.02	1956.8
1142.09	1824.95
1141.16	1907.81
1140.23	1896.74
1139.3	1928.59
1138.36	1944.34
1137.43	1903.77
1136.5	1935.6
1135.57	1988.87
1134.63	1945.64
1133.7	1993.52
1132.77	1920.83
1131.83	1968.7
1130.9	2032.63
1129.97	2051.01
1129.03	2031.91
1128.1	2034.22
1127.17	2082.03
1126.23	2078.98
1125.3	2070.59
1124.36	2072.89
1123.43	2168.8
1122.49	2077.51
1121.56	2143.97
1120.62	2103.49
1119.69	2169.93
1118.75	2180.23
1117.81	2161.14
1116.88	2150.07
1115.94	2163.04
1115.01	2162.66
1114.07	2127.57
1113.13	2063.14
1112.2	2233.56
1111.26	2107.76
1110.32	2040.69
1109.38	2149.68
1108.45	2133.3
1107.51	2108.92
1106.57	2020.58
1105.63	2094.85
1104.69	2091.81
1103.76	2086.11
1102.82	2053.77
1101.88	2072.05
1100.94	2063.69
1100	2050.01
1099.06	2169.43
1098.12	2083.88
1097.18	2083.51
1096.24	2157.63
1095.3	2098.73
1094.36	2031.87
1093.42	2183.07
1092.48	2126.85
1091.54	2123.81
1090.6	2139.38
1089.66	1987.54
1088.72	2088.14
1087.78	1965.58
1086.84	1975.86
1085.9	2047.19
1084.95	1863.65
1084.01	1964.18
1083.07	1924.02
1082.13	1947.56
1081.19	1928.64
1080.24	1946.87
1079.3	1965.08
1078.36	1970.03
1077.41	1916.66
1076.47	1924.27
1075.53	1889.48
1074.58	1830.85
1073.64	1923.24
1072.7	1962.63
1071.75	1925.2
1070.81	1983.11
1069.86	1913.93
1068.92	1963.87
1067.98	1913.24
1067.03	1912.9
1066.09	1880.82
1065.14	1943.96
1064.19	1975.34
1063.25	1922.11
1062.3	1927.06
1061.36	1926.71
1060.41	1981.86
1059.46	1965.65
1058.52	1938.89
1057.57	1877.8
1056.63	1956.68
1055.68	1824.32
1054.73	1874.15
1053.78	1947.71
1052.84	1833.9
1051.89	1944.38
1050.94	1975.68
1049.99	1848.74
1049.05	1922.24
1048.1	1966.71
1047.15	1937.37
1046.2	1918.57
1045.25	1984.1
1044.3	1989.02
1043.35	1935.98
1042.4	2001.47
1041.45	1916.86
1040.5	1966.53
1039.55	1984.61
1038.6	1963.2
1037.65	1976
1036.7	1875.68
1035.75	2014.75
1034.8	2006.5
1033.85	1971.96
1032.9	2037.33
1031.95	1871.38
1031	2005.06
1030.05	1931.14
1029.1	1996.46
1028.14	1914.69
1027.19	2019.38
1026.24	1977.01
1025.29	1918.91
1024.33	2026.17
1023.38	1986.45
1022.43	2051.68
1021.48	1972.62
1020.52	1927.68
1019.57	2026.98
1018.62	2013.51
1017.66	2026.25
1016.71	1947.26
1015.75	1946.92
1014.8	1972.76
1013.85	1927.88
1012.89	1938.01
1011.94	1903.62
1010.98	1911.14
1010.03	1978.85
1009.07	1941.86
1008.12	1944.12
1007.16	1969.94
1006.2	1943.43
1005.25	1995.38
1004.29	1927.04
1003.34	1997.28
1002.38	2020.45
1001.42	1986.11
1000.47	1962.24
999.508	2019.36
998.551	2032.05
997.594	1961.18
996.636	1929.5
995.679	2023.13
994.721	1920.98
993.763	1897.14
992.805	1995.95
991.846	2032.11
990.888	1945.68
989.929	1851.45
988.97	1950.19
988.011	1902.92
987.052	1957.31
986.093	2014.29
985.133	1933.16
984.173	1878.11
983.213	1981.95
982.253	1947.74
981.293	1864.08
980.333	1952.25
979.372	1892.04
978.411	1899.5
977.45	1982.41
976.489	1935.24
975.528	1960.9
974.566	1968.34
973.605	1871.8
972.643	1928.65
971.681	2034.85
970.719	1935.75
969.756	1932.8
968.794	1971.42
967.831	1989.24
966.868	1996.67
965.905	1983.33
964.942	1985.57
963.979	1915.15
963.015	2005.61
962.052	1989.69
961.088	1973.77
960.124	1903.4
959.159	1970.46
958.195	2003.81
957.23	2039.73
956.266	1982.36
955.301	1906.86
954.336	1906.52
953.37	1986.46
952.405	1892.89
951.439	1954.68
950.473	1975.04
949.507	2034.21
948.541	1951.04
947.575	1942.92
946.608	2009.83
945.642	1924.12
944.675	1993.59
943.708	1907.92
942.741	2003.21
941.773	1914.98
940.806	1981.82
939.838	1981.46
938.87	1996.6
937.902	2014.32
936.934	2034.61
935.965	1920.66
934.997	1990
934.028	1989.64
933.059	1948
932.09	1950.23
931.121	1944.72
930.151	1908.26
929.182	1925.97
928.212	2015.84
927.242	1933
926.272	1984.19
925.301	2040.51
924.331	1986.05
923.36	2024.32
922.389	2060.01
921.418	1992.7
920.447	2030.95
919.475	1994.55
918.504	1976.18
917.532	1952.67
916.56	2037.2
915.588	2008.54
914.616	2064.75
913.643	2095.23
912.671	2007.46
911.698	1996.81
910.725	1970.76
909.752	2037.2
908.779	2057.38
907.805	2018.48
906.831	2110.55
905.858	2123.01
904.883	2091.82
903.909	2034.99
902.935	2060.28
901.96	2134.3
900.986	2141.61
900.011	2159.17
899.036	2079.3
898.06	2068.67
897.085	2147.75
896.109	2131.98
895.133	2126.47
894.157	2195.25
893.181	2107.78
892.205	2150.92
891.229	2237.58
890.252	2183.42
889.275	2249.57
888.298	2154.49
887.321	2172
886.343	2184.4
885.366	2171.22
884.388	2216.85
883.41	2229.23
882.432	2231.38
881.454	2246.31
880.475	2235.68
879.497	2263.38
878.518	2194.01
877.539	2160.41
876.56	2231.51
875.58	2279.61
874.601	2138.82
873.621	2227.75
872.641	2196.73
871.661	2239.69
870.681	2292.85
869.701	2249.08
868.72	2307.31
867.739	2327.29
866.758	2230.02
865.777	2232.16
864.796	2351.5
863.815	2389.28
862.833	2419.41
861.851	2523.37
860.869	2563.64
859.887	2609
858.905	2707.77
857.922	2760.72
856.939	2806.01
855.956	2701.21
854.973	2736.33
853.99	2667.18
853.007	2552.3
852.023	2483.21
851.039	2543.75
850.055	2403.55
849.071	2370.09
848.087	2346.8
847.102	2389.54
846.118	2333.25
845.133	2327.75
844.148	2324.79
843.163	2268.54
842.177	2242.76
841.192	2272.79
840.206	2173.47
839.22	2213.65
838.234	2261.41
837.248	2261
836.261	2242.85
835.274	2105.62
834.288	2221.77
833.301	2180.84
832.313	2251.35
831.326	2256.01
830.339	2215.09
829.351	2199.5
828.363	2176.33
827.375	2335.33
826.387	2228.66
825.398	2334.48
824.409	2265.78
823.421	2217.33
822.432	2204.29
821.443	2231.69
820.453	2163.06
819.464	2215.72
818.474	2270.89
817.484	2267.95
816.494	2209.46
815.504	2249.45
814.513	2312.15
813.523	2258.73
812.532	2270.93
811.541	2212.49
810.55	2290.28
809.559	2292.39
808.567	2239.02
807.575	2306.68
806.583	2162.59
805.591	2205.04
804.599	2187
803.607	2242.02
802.614	2208.87
801.621	2359.56
800.628	2215.62
799.635	2200.11
798.642	2227.4
797.649	2254.67
796.655	2294.51
795.661	2387.17
794.667	2419.43
793.673	2258.06
792.678	2330.55
791.684	2307.51
790.689	2309.6
789.694	2233.8
788.699	2220.83
787.704	2283.22
786.708	2189.88
785.713	2202.04
784.717	2176.53
783.721	2176.13
782.724	2215.89
781.728	2115.12
780.731	2195.01
779.735	2242.27
778.738	2199.23
777.741	2183.78
776.743	2138.26
775.746	2157.92
774.748	2190.1
773.75	2229.79
772.752	2061.55
771.754	2166.36
770.756	2196.02
769.757	2210.64
768.758	2190.21
767.759	2179.8
766.76	2209.43
765.761	2201.52
764.761	2168.6
763.762	2225.72
762.762	2212.81
761.762	2222.41
760.762	2217
759.761	2191.61
758.761	2156.23
757.76	2190.81
756.759	2180.42
755.758	2289.89
754.756	2187.11
753.755	2256.61
752.753	2193.8
751.751	2250.79
750.749	2322.73
749.747	2182.62
748.745	2222.12
747.742	2201.77
746.739	2131.56
745.736	2223.4
744.733	2227.97
743.73	2180.22
742.726	2224.67
741.723	2259.13
740.719	2251.25
739.715	2248.34
738.71	2223.04
737.706	2155.43
736.701	2259.55
735.697	2256.65
734.692	2305.99
733.686	2153.85
732.681	2240.49
731.675	2319.64
730.67	2274.47
729.664	2194.53
728.658	2271.15
727.651	2278.19
726.645	2198.29
725.638	2143.25
724.631	2254.59
723.624	2214.46
722.617	2181.78
721.61	2223.57
720.602	2265.35
719.595	2220.28
718.587	2306.68
717.578	2269.06
716.57	2246.33
715.562	2354.99
714.553	2277.73
713.544	2307.05
712.535	2319.01
711.526	2330.97
710.516	2295.87
709.507	2268.21
708.497	2428.72
707.487	2264.9
706.477	2316.46
705.467	2387.79
704.456	2488.79
703.445	2490.8
702.434	2480.45
701.423	2512.14
700.412	2437.52
699.401	2464.26
698.389	2367.43
697.377	2322.52
696.365	2369.03
695.353	2331.55
694.34	2229.87
693.328	2293.66
692.315	2177.22
691.302	2327.37
690.289	2267.72
689.276	2185.89
688.262	2244.68
687.249	2323.19
686.235	2273.45
685.221	2337.13
684.206	2270.15
683.192	2272.2
682.177	2254.53
681.162	2308.31
680.147	2305.43
679.132	2307.46
678.117	2388.29
677.101	2387.85
676.086	2276.66
675.07	2340.22
674.054	2371.77
673.037	2314.76
672.021	2437.31
671.004	2316.37
669.987	2345.44
668.97	2305.68
667.953	2268.39
666.936	2297.46
665.918	2284.76
664.9	2303.99
663.882	2306.02
662.864	2376.8
661.846	2369
660.827	2299.84
659.808	2377.94
658.789	2323.53
657.77	2303.47
656.751	2310.41
655.731	2241.32
654.712	2253.17
653.692	2314.03
652.672	2252.34
651.652	2278.88
650.631	2200.06
649.611	2322.13
648.59	2390.27
647.569	2304.13
646.548	2396.74
645.526	2291.04
644.505	2339.57
643.483	2456.58
642.461	2436.56
641.439	2389.64
640.417	2384.31
639.394	2381.42
638.371	2376.09
637.348	2451.42
636.325	2472.96
635.302	2599.55
634.279	2728.54
633.255	2886.78
632.231	2942.41
631.207	2888.16
630.183	2619.12
629.159	2560.07
628.134	2430.27
627.109	2393.23
626.084	2436.7
625.059	2397.23
624.034	2399.22
623.008	2430.47
621.983	2376.4
620.957	2407.64
619.931	2482.73
618.904	2345.85
617.878	2455.02
616.851	2374.21
615.824	2381.07
614.797	2327.08
613.77	2372.89
612.743	2394.35
611.715	2374.45
610.687	2347.25
609.659	2351.68
608.631	2438.78
607.603	2428.61
606.574	2389.27
605.546	2422.85
604.517	2371.38
603.487	2417.1
602.458	2385.08
601.429	2459.91
600.399	2338.06
599.369	2400.75
598.339	2431.85
597.309	2419.27
596.278	2491.61
595.248	2401.4
594.217	2434.9
593.186	2325.34
592.155	2441.28
591.123	2416.59
590.091	2319.2
589.06	2439.92
588.028	2473.39
586.996	2349.4
585.963	2380.45
584.931	2394.53
583.898	2398.93
582.865	2495.3
581.832	2492.42
580.798	2467.76
579.765	2476.98
578.731	2372.53
577.697	2379.34
576.663	2473.19
575.629	2450.98
574.594	2375.6
573.56	2435.57
572.525	2352.98
571.49	2398.44
570.455	2361.77
569.419	2390.31
568.384	2411.59
567.348	2403.9
566.312	2417.93
565.276	2460.91
564.239	2390.5
563.203	2476.88
562.166	2377.56
561.129	2408.46
560.092	2448.99
559.054	2460.59
558.017	2426.4
556.979	2531.95
555.941	2529.07
554.903	2538.23
553.865	2422.19
552.826	2407.3
551.787	2361.12
550.749	2428.06
549.709	2396.33
548.67	2451.22
547.631	2335.32
546.591	2322.86
545.551	2358.49
544.511	2410.94
543.471	2391.26
542.43	2395.62
541.39	2440.82
540.349	2452.38
539.308	2480.74
538.267	2465.88
537.225	2429.41
536.184	2390.56
535.142	2507.7
534.1	2552.82
533.058	2398.82
532.015	2328.82
530.973	2383.54
529.93	2311.17
528.887	2385.05
527.844	2394.19
526.801	2305.09
525.757	2326.22
524.713	2337.77
523.669	2397.2
522.625	2420.7
521.581	2276.62
520.537	2415.01
519.492	2385.85
518.447	2461.97
517.402	2396.92
516.357	2477.79
515.311	2379.29
514.265	2438.62
513.22	2347.33
512.174	2346.9
511.127	2344.07
510.081	2341.24
509.034	2285.87
507.987	2237.68
506.94	2263.53
505.893	2325.18
504.846	2351
503.798	2250.33
502.75	2395.46
501.702	2395.01
500.654	2318.24
499.606	2401.27
