3200.54	42.0979
3199.95	54.7273
3199.35	37.8824
3198.76	50.5022
3198.16	12.6236
3197.57	29.4507
3196.98	0
3196.38	50.4717
3195.79	46.2587
3195.19	33.6376
3194.6	46.2447
3194	46.2378
3193.41	54.6364
3192.81	42.0216
3192.22	29.4107
3191.62	46.2098
3191.03	42.0025
3190.43	79.7928
3189.84	50.3878
3189.24	46.1818
3188.65	54.5703
3188.05	67.1533
3187.45	58.7502
3186.86	33.5665
3186.26	29.3662
3185.67	12.5836
3185.07	50.3269
3184.47	16.7731
3183.88	41.9264
3183.28	37.728
3182.69	20.9568
3182.09	41.9073
3181.49	41.901
3180.9	58.6525
3180.3	62.8325
3179.7	62.8229
3179.1	58.6259
3178.51	41.8693
3177.91	50.2355
3177.31	25.114
3176.72	41.8503
3176.12	41.8439
3175.52	54.3889
3174.92	46.0144
3174.33	41.8249
3173.73	25.0912
3173.13	37.631
3172.53	16.7224
3171.93	71.0593
3171.34	54.3312
3170.74	54.323
3170.14	37.6025
3169.54	58.484
3168.94	33.4144
3168.34	45.9378
3167.74	37.5798
3167.15	58.4486
3166.55	45.9169
3165.95	70.9517
3165.35	50.076
3164.75	37.5513
3164.15	54.2325
3163.55	50.0532
3162.95	25.0228
3162.35	37.5285
3161.75	62.5381
3161.15	41.6857
3160.55	37.5115
3159.95	58.3423
3159.35	37.5001
3158.75	24.9963
3158.15	41.6541
3157.55	49.9774
3156.95	54.134
3156.35	33.3082
3155.75	49.9547
3155.15	41.6226
3154.55	41.6163
3153.95	54.0929
3153.35	41.6036
3152.75	45.7571
3152.15	54.0683
3151.54	45.7432
3150.94	58.2098
3150.34	54.0437
3149.74	29.096
3149.14	41.5595
3148.54	49.8638
3147.94	58.1656
3147.33	49.8487
3146.73	58.148
3146.13	49.8335
3145.53	58.1303
3144.93	49.8184
3144.32	70.5654
3143.72	58.1038
3143.12	66.3943
3142.52	58.0862
3141.91	53.929
3141.31	58.0686
3140.71	66.354
3140.1	49.7579
3139.5	58.0421
3138.9	66.3238
3138.29	45.5907
3137.69	49.7277
3137.09	41.4335
3136.48	49.7126
3135.88	49.7051
3135.28	74.5463
3134.67	53.8308
3134.07	20.701
3133.47	66.2332
3132.86	53.8063
3132.26	41.3831
3131.65	57.9276
3131.05	41.3706
3130.45	37.2279
3129.84	62.037
3129.24	45.4869
3128.63	28.9418
3128.03	45.4731
3127.42	66.1326
3126.82	49.5919
3126.21	82.6406
3125.61	66.1024
3125	61.9616
3124.4	41.3015
3123.79	66.0723
3123.19	41.2889
3122.58	37.1544
3121.97	70.1698
3121.37	53.6511
3120.76	33.011
3120.16	57.7605
3119.55	61.8769
3118.94	61.8675
3118.34	41.2387
3117.73	70.0951
3117.13	32.9809
3116.52	49.4639
3115.91	57.6991
3115.31	53.5695
3114.7	32.9609
3114.09	41.1948
3113.48	65.9017
3112.88	61.7734
3112.27	41.176
3111.66	45.2867
3111.06	53.5125
3110.45	78.1987
3109.84	49.3811
3109.23	69.9459
3108.63	82.2768
3108.02	94.6039
3107.41	65.8014
3106.8	37.0077
3106.19	82.2267
3105.59	65.7714
3104.98	49.321
3104.37	65.7513
3103.76	49.306
3103.15	73.9477
3102.54	24.6455
3101.93	49.2835
3101.33	61.595
3100.72	65.6913
3100.11	86.2067
3099.5	82.0891
3098.89	45.1421
3098.28	45.1352
3097.67	77.949
3097.06	86.141
3096.45	69.7226
3095.84	53.3092
3095.23	82.0016
3094.62	61.4918
3094.01	77.8778
3093.4	86.0623
3092.79	73.7564
3092.18	98.3269
3091.57	36.867
3090.96	110.584
3090.35	102.377
3089.74	126.928
3089.13	73.689
3088.52	98.237
3087.91	77.7591
3087.3	114.575
3086.69	81.8268
3086.08	85.905
3085.46	89.982
3084.85	122.684
3084.24	118.576
3083.63	106.294
3083.02	122.628
3082.41	85.8264
3081.79	134.85
3081.18	126.657
3080.57	147.064
3079.96	114.365
3079.35	93.9287
3078.73	130.663
3078.12	114.313
3077.51	114.296
3076.9	122.441
3076.28	126.503
3075.67	102.003
3075.06	159.1
3074.45	114.208
3073.83	150.895
3073.22	130.484
3072.61	126.387
3071.99	105.986
3071.38	126.349
3070.77	97.8033
3070.15	93.7139
3069.54	105.921
3068.93	85.5387
3068.31	105.889
3067.7	89.5846
3067.08	81.4281
3066.47	93.628
3065.86	89.5436
3065.24	69.1822
3064.63	85.4473
3064.01	130.186
3063.4	93.5566
3062.78	65.0729
3062.17	81.3287
3061.55	81.3162
3060.94	117.891
3060.32	81.2914
3059.71	81.279
3059.09	69.0766
3058.48	60.9406
3057.86	85.3038
3057.25	69.0449
3056.63	64.9735
3056.02	64.9636
3055.4	85.2517
3054.78	85.2386
3054.17	81.1672
3053.55	73.0393
3052.94	52.7426
3052.32	44.6215
3051.7	113.565
3051.09	68.9394
3050.47	56.765
3049.85	89.1884
3049.24	81.068
3048.62	64.8445
3048	81.0432
3047.39	89.1339
3046.77	60.7638
3046.15	60.7545
3045.53	56.6955
3044.92	89.0794
3044.3	80.9689
3043.68	72.8608
3043.06	80.9441
3042.45	84.9783
3041.83	64.7354
3041.21	80.9069
3040.59	84.9393
3039.97	80.8822
3039.35	76.8263
3038.74	56.6002
3038.12	60.6338
3037.5	84.8743
3036.88	64.6562
3036.26	101.01
3035.64	80.7955
3035.02	64.6265
3034.41	64.6166
3033.79	64.6067
3033.17	56.5222
3032.55	80.7337
3031.93	64.5771
3031.31	108.957
3030.69	48.418
3030.07	68.5816
3029.45	92.7727
3028.83	88.7255
3028.21	56.453
3027.59	56.4444
3026.97	72.5602
3026.35	76.5796
3025.73	92.6874
3025.11	88.644
3024.49	88.6304
3023.87	100.701
3023.25	84.5758
3022.63	56.3752
3022	80.5237
3021.38	76.4858
3020.76	64.3992
3020.14	64.3893
3019.52	80.4743
3018.9	52.3003
3018.28	88.4946
3017.66	84.4592
3017.03	100.531
3016.41	84.4333
3015.79	104.52
3015.17	76.3686
3014.55	108.507
3013.92	100.454
3013.3	92.4037
3012.68	88.3726
3012.06	96.3916
3011.43	96.3769
3010.81	96.3621
3010.19	88.3184
3009.57	80.2771
3008.94	116.384
3008.32	88.2777
3007.7	80.2401
3007.07	128.365
3006.45	112.302
3005.83	104.264
3005.2	80.1909
3004.58	108.241
3003.96	112.233
3003.33	96.1848
3002.71	116.205
3002.08	96.1553
3001.46	96.1405
3000.84	76.0995
3000.21	112.129
2999.59	92.0922
2998.96	112.095
2998.34	100.069
2997.71	116.063
2997.09	96.0372
2996.46	112.026
2995.84	132.011
2995.21	111.992
2994.59	103.976
2993.96	135.948
2993.34	95.9487
2992.71	119.918
2992.09	127.892
2991.46	103.897
2990.84	91.8944
2990.21	115.849
2989.58	83.8778
2988.96	111.82
2988.33	115.796
2987.71	131.747
2987.08	119.752
2986.45	87.8045
2985.83	107.743
2985.2	131.666
2984.57	119.678
2983.95	131.626
2983.32	123.629
2982.69	111.648
2982.07	127.578
2981.44	131.545
2980.81	103.625
2980.18	119.549
2979.56	147.422
2978.93	115.529
2978.3	95.5954
2977.67	107.528
2977.05	123.439
2976.42	151.29
2975.79	115.44
2975.16	147.263
2974.53	171.117
2973.91	95.4925
2973.28	131.282
2972.65	131.262
2972.02	131.242
2971.39	127.245
2970.76	115.298
2970.13	162.983
2969.5	155.008
2968.88	151.01
2968.25	154.961
2967.62	162.882
2966.99	162.857
2966.36	135.031
2965.73	142.952
2965.1	158.812
2964.47	178.636
2963.84	198.453
2963.21	186.518
2962.58	142.842
2961.95	178.526
2961.32	190.398
2960.69	166.573
2960.06	166.547
2959.43	170.486
2958.8	166.496
2958.17	182.324
2957.53	198.148
2956.9	170.381
2956.27	190.163
2955.64	166.367
2955.01	170.302
2954.38	166.316
2953.75	158.372
2953.12	182.1
2952.48	142.491
2951.85	158.299
2951.22	150.361
2950.59	142.425
2949.96	185.915
2949.33	162.156
2948.69	170.04
2948.06	166.06
2947.43	146.268
2946.8	166.009
2946.16	150.175
2945.53	154.103
2944.9	122.474
2944.26	169.857
2943.63	146.133
2943	169.804
2942.37	138.191
2941.73	142.118
2941.1	138.149
2940.47	110.502
2939.83	134.16
2939.2	153.866
2938.56	126.23
2937.93	130.154
2937.3	130.134
2936.66	98.5712
2936.03	145.863
2935.39	157.665
2934.76	110.349
2934.13	118.212
2933.49	126.074
2932.86	118.176
2932.22	133.912
2931.59	126.015
2930.95	98.4343
2930.32	102.356
2929.68	94.4678
2929.05	122.002
2928.41	141.658
2927.78	129.833
2927.14	86.542
2926.5	137.659
2925.87	98.3128
2925.23	117.957
2924.6	129.733
2923.96	129.713
2923.32	110.042
2922.69	113.955
2922.05	125.724
2921.42	86.4218
2920.78	70.6978
2920.14	94.2492
2919.51	141.352
2918.87	102.072
2918.23	153.084
2917.6	121.663
2916.96	129.492
2916.32	102.009
2915.68	137.298
2915.05	125.51
2914.41	133.334
2913.77	90.1826
2913.13	129.372
2912.5	97.9943
2911.86	109.737
2911.22	121.475
2910.58	86.195
2909.94	137.107
2909.31	117.502
2908.67	137.065
2908.03	137.044
2907.39	133.107
2906.75	105.687
2906.11	117.411
2905.47	152.611
2904.83	121.288
2904.2	109.533
2903.56	136.895
2902.92	148.606
2902.28	129.033
2901.64	125.103
2901	160.264
2900.36	117.248
2899.72	132.861
2899.08	132.84
2898.44	117.194
2897.8	109.364
2897.16	132.778
2896.52	136.662
2895.88	132.737
2895.24	136.62
2894.6	109.279
2893.96	152.187
2893.32	117.049
2892.67	101.426
2892.03	117.012
2891.39	128.694
2890.75	120.875
2890.11	132.552
2889.47	124.736
2888.83	167.588
2888.19	132.491
2887.54	124.678
2886.9	128.554
2886.26	140.219
2885.62	124.62
2884.98	132.388
2884.33	109.009
2883.69	136.24
2883.05	144.002
2882.41	124.523
2881.77	147.849
2881.12	147.826
2880.48	132.245
2879.84	151.669
2879.19	139.98
2878.55	112.744
2877.91	112.727
2877.26	85.5037
2876.62	147.665
2875.98	155.413
2875.33	124.311
2874.69	132.06
2874.05	116.506
2873.4	139.785
2872.76	139.763
2872.11	139.742
2871.47	100.909
2870.83	124.176
2870.18	186.236
2869.54	116.379
2868.89	120.24
2868.25	135.734
2867.6	124.08
2866.96	147.322
2866.31	147.299
2865.67	120.147
2865.02	108.503
2864.38	127.858
2863.73	104.595
2863.09	131.692
2862.44	135.544
2861.8	127.779
2861.15	139.374
2860.5	131.61
2859.86	108.368
2859.21	139.309
2858.57	166.371
2857.92	162.476
2857.27	146.98
2856.63	154.691
2855.98	131.467
2855.33	139.179
2854.69	127.561
2854.04	162.325
2853.39	142.978
2852.75	135.229
2852.1	131.345
2851.45	166.087
2850.81	139.028
2850.16	123.561
2849.51	158.288
2848.86	142.823
2848.21	142.801
2847.57	100.331
2846.92	146.615
2846.27	150.45
2845.62	123.427
2844.97	138.833
2844.33	158.091
2843.68	173.488
2843.03	127.205
2842.38	138.747
2841.73	138.725
2841.08	161.821
2840.43	181.057
2839.78	157.919
2839.14	146.341
2838.49	146.319
2837.84	146.296
2837.19	127.027
2836.54	142.402
2835.89	150.076
2835.24	153.9
2834.59	192.345
2833.94	138.467
2833.29	161.519
2832.64	138.424
2831.99	149.936
2831.34	123.005
2830.69	169.106
2830.04	169.079
2829.39	165.211
2828.74	107.562
2828.08	130.591
2827.43	168.974
2826.78	111.352
2826.13	153.565
2825.48	176.572
2824.83	153.517
2824.18	153.493
2823.53	141.959
2822.87	168.79
2822.22	122.737
2821.57	130.388
2820.92	157.208
2820.27	138.015
2819.61	164.825
2818.96	111.144
2818.31	164.774
2817.66	134.098
2817	145.569
2816.35	145.546
2815.7	134.035
2815.05	107.211
2814.39	137.822
2813.74	176.078
2813.09	183.705
2812.43	160.717
2811.78	168.344
2811.13	214.222
2810.47	145.342
2809.82	168.265
2809.16	107.061
2808.51	145.274
2807.86	152.897
2807.2	122.298
2806.55	164.313
2805.89	171.928
2805.24	175.721
2804.58	179.513
2803.93	164.21
2803.28	171.821
2802.62	167.976
2801.97	167.95
2801.31	133.576
2800.66	183.161
2800	160.241
2799.34	125.884
2798.69	164.005
2798.03	160.166
2797.38	167.767
2796.72	137.242
2796.07	156.28
2795.41	156.255
2794.75	205.767
2794.1	171.446
2793.44	148.563
2792.79	144.731
2792.13	137.093
2791.47	144.686
2790.82	178.926
2790.16	163.673
2789.5	178.87
2788.84	144.596
2788.19	159.792
2787.53	163.571
2786.87	144.528
2786.22	163.52
2785.56	174.901
2784.9	163.469
2784.24	186.249
2783.59	186.22
2782.93	182.391
2782.27	151.969
2781.61	189.931
2780.95	182.306
2780.29	170.885
2779.64	167.061
2778.98	167.035
2778.32	163.213
2777.66	151.803
2777	147.984
2776.34	163.137
2775.68	174.491
2775.02	155.5
2774.36	163.06
2773.71	181.992
2773.05	197.128
2772.39	155.403
2771.73	159.169
2771.07	155.355
2770.41	155.33
2769.75	181.822
2769.09	155.282
2768.43	166.618
2767.77	140.089
2767.11	143.852
2766.45	170.325
2765.79	185.436
2765.12	215.677
2764.46	132.413
2763.8	189.131
2763.14	177.756
2762.48	147.476
2761.82	181.481
2761.16	181.452
2760.5	188.983
2759.83	162.5
2759.17	211.595
2758.51	166.227
2757.85	207.752
2757.19	169.952
2756.53	203.91
2755.86	177.45
2755.2	169.872
2754.54	158.523
2753.88	200.009
2753.21	158.473
2752.55	184.856
2751.89	165.967
2751.23	192.341
2750.56	188.54
2749.9	207.362
2749.24	211.099
2748.57	199.759
2747.91	188.422
2747.25	188.392
2746.58	165.759
2745.92	173.267
2745.25	169.474
2744.59	203.336
2743.93	184.48
2743.26	184.451
2742.6	188.186
2741.93	203.209
2741.27	214.465
2740.61	184.336
2739.94	165.5
2739.28	210.603
2738.61	191.769
2737.95	199.258
2737.28	221.781
2736.62	195.437
2735.95	195.407
2735.29	161.561
2734.62	214.129
2733.95	217.851
2733.29	206.551
2732.62	183.989
2731.96	191.469
2731.29	183.931
2730.62	262.718
2729.96	180.121
2729.29	191.349
2728.63	165.059
2727.96	210.042
2727.29	210.009
2726.63	183.729
2725.96	187.45
2725.29	179.923
2724.62	183.643
2723.96	206.097
2723.29	206.065
2722.62	194.795
2721.96	224.728
2721.29	209.713
2720.62	232.146
2719.95	183.441
2719.28	198.385
2718.62	217.066
2717.95	232
2717.28	205.774
2716.61	205.742
2715.94	209.45
2715.27	186.979
2714.61	239.296
2713.94	175.705
2713.27	190.629
2712.6	175.65
2711.93	179.359
2711.26	231.636
2710.59	209.187
2709.92	224.093
2709.25	186.715
2708.58	205.354
2707.91	216.522
2707.24	216.488
2706.57	201.526
2705.9	182.837
2705.23	212.655
2704.56	212.621
2703.89	190.21
2703.22	208.825
2702.55	193.879
2701.88	178.937
2701.21	197.545
2700.54	208.694
2699.87	190.031
2699.2	190.001
2698.53	197.421
2697.86	212.287
2697.19	208.53
2696.51	234.559
2695.84	182.406
2695.17	215.876
2694.5	200.956
2693.83	234.412
2693.15	193.452
2692.48	185.983
2691.81	219.425
2691.14	215.672
2690.47	208.202
2689.79	237.908
2689.12	226.72
2688.45	234.117
2687.77	185.778
2687.1	241.473
2686.43	215.435
2685.76	241.397
2685.08	219.08
2684.41	226.471
2683.74	222.723
2683.06	237.534
2682.39	200.388
2681.71	248.59
2681.04	211.454
2680.37	215.129
2679.69	222.513
2679.02	233.601
2678.34	233.565
2677.67	181.633
2676.99	244.61
2676.32	222.337
2675.65	218.597
2674.97	259.312
2674.3	229.64
2673.62	229.604
2672.95	240.676
2672.27	225.829
2671.59	236.899
2670.92	218.356
2670.24	214.622
2669.57	244.186
2668.89	281.14
2668.22	240.411
2667.54	251.467
2666.86	218.15
2666.19	225.509
2665.51	221.777
2664.83	225.438
2664.16	225.403
2663.48	232.756
2662.8	221.638
2662.13	295.47
2661.45	240.032
2660.77	236.302
2660.1	214.115
2659.42	243.609
2658.74	247.261
2658.06	247.222
2657.39	247.183
2656.71	236.078
2656.03	232.353
2655.35	239.691
2654.68	254.401
2654	221.184
2653.32	221.149
2652.64	261.651
2651.96	254.241
2651.28	265.253
2650.6	254.16
2649.93	246.754
2649.25	235.669
2648.57	206.177
2647.89	239.275
2647.21	198.751
2646.53	239.2
2645.85	261.238
2645.17	294.307
2644.49	239.086
2643.81	272.148
2643.13	253.719
2642.45	220.591
2641.77	283.047
2641.09	253.599
2640.41	213.137
2639.73	246.171
2639.05	238.784
2638.37	249.766
2637.69	249.726
2637.01	271.718
2636.33	253.319
2635.65	238.596
2634.96	245.898
2634.28	253.199
2633.6	264.166
2632.92	311.813
2632.24	271.418
2631.56	220.034
2630.88	271.332
2630.19	230.962
2629.51	227.26
2628.83	267.538
2628.15	249.174
2627.46	289.436
2626.78	256.422
2626.1	227.081
2625.42	245.355
2624.73	252.639
2624.05	270.903
2623.37	237.918
2622.69	274.477
2622	259.797
2621.32	270.732
2620.64	259.715
2619.95	285.275
2619.27	270.603
2618.58	237.654
2617.9	288.796
2617.22	277.785
2616.53	274.086
2615.85	270.389
2615.16	248.426
2614.48	262.998
2613.79	288.522
2613.11	266.566
2612.43	266.524
2611.74	288.385
2611.06	295.639
2610.37	251.8
2609.69	255.409
2609	262.665
2608.31	299.099
2607.63	331.874
2606.94	258.894
2606.26	298.957
2605.57	284.328
2604.89	309.796
2604.2	287.882
2603.51	287.837
2602.83	302.363
2602.14	269.534
2601.45	327.76
2600.77	254.884
2600.08	298.531
2599.39	247.523
2598.71	258.402
2598.02	272.917
2597.33	283.788
2596.65	287.381
2595.96	258.238
2595.27	258.197
2594.58	250.884
2593.9	279.928
2593.21	305.327
2592.52	294.376
2591.83	250.725
2591.14	287.017
2590.46	290.604
2589.77	297.822
2589.08	279.617
2588.39	275.942
2587.7	312.201
2587.01	290.373
2586.32	239.52
2585.64	312.052
2584.95	246.7
2584.26	293.816
2583.57	268.382
2582.88	271.966
2582.19	271.923
2581.5	246.504
2580.81	246.465
2580.12	304.408
2579.43	278.997
2578.74	282.575
2578.05	282.53
2577.36	286.107
2576.67	257.093
2575.98	289.637
2575.29	264.252
2574.6	264.21
2573.91	347.398
2573.22	296.689
2572.52	318.347
2571.83	289.361
2571.14	300.164
2570.45	289.269
2569.76	296.454
2569.07	318.095
2568.38	314.43
2567.68	343.289
2566.99	354.073
2566.3	317.893
2565.61	292.559
2564.92	299.735
2564.22	281.634
2563.53	303.25
2562.84	274.325
2562.14	270.673
2561.45	328.364
2560.76	313.881
2560.07	306.616
2559.37	281.321
2558.68	270.458
2557.99	277.626
2557.29	295.606
2556.6	306.373
2555.91	324.343
2555.21	363.927
2554.52	291.816
2553.82	342.199
2553.13	302.528
2552.44	345.691
2551.74	284.429
2551.05	280.784
2550.35	287.938
2549.66	291.491
2548.96	349.014
2548.27	366.946
2547.57	291.352
2546.88	309.287
2546.18	305.642
2545.49	287.618
2544.79	316.329
2544.1	291.12
2543.4	334.196
2542.7	265.877
2542.01	355.643
2541.31	323.261
2540.62	283.706
2539.92	301.614
2539.22	355.417
2538.53	272.802
2537.83	297.881
2537.13	301.422
2536.44	333.664
2535.74	333.611
2535.04	329.971
2534.35	304.816
2533.65	322.695
2532.95	304.719
2532.25	362.02
2531.56	383.465
2530.86	283.074
2530.16	290.194
2529.46	304.476
2528.76	315.172
2528.07	340.188
2527.37	322.232
2526.67	336.5
2525.97	379.397
2525.27	314.921
2524.57	386.432
2523.88	343.441
2523.18	300.463
2522.48	364.789
2521.78	350.428
2521.08	318.195
2520.38	314.57
2519.68	328.816
2518.98	335.91
2518.28	314.419
2517.58	292.935
2516.88	321.462
2516.18	307.126
2515.48	321.36
2514.78	307.028
2514.08	314.118
2513.38	360.464
2512.68	324.723
2511.98	321.103
2511.28	324.619
2510.58	328.134
2509.88	356.611
2509.17	324.464
2508.47	352.932
2507.77	313.667
2507.07	324.309
2506.37	342.073
2505.67	402.584
2504.97	356.212
2504.26	363.279
2503.56	341.855
2502.86	384.525
2502.16	352.425
2501.45	355.928
2500.75	334.519
2500.05	320.233
2499.35	394.891
2498.64	380.6
2497.94	327.192
2497.24	359.143
2496.53	359.085
2495.83	327.035
2495.13	344.754
2494.42	312.717
2493.72	380.174
2493.02	337.484
2492.31	344.534
2491.61	376.441
2490.9	365.728
2490.2	355.019
2489.5	354.962
2488.79	298.121
2488.09	333.558
2487.38	372.532
2486.68	383.114
2485.97	393.693
2485.27	375.899
2484.56	372.293
2483.86	425.41
2483.15	343.818
2482.45	372.115
2481.74	411.032
2481.04	393.253
2480.33	332.971
2479.62	400.21
2478.92	385.982
2478.21	385.92
2477.51	371.698
2476.8	368.099
2476.09	382.196
2475.39	360.905
2474.68	304.244
2473.97	357.252
2473.27	410.244
2472.56	374.818
2471.85	342.939
2471.14	399.442
2470.44	367.569
2469.73	360.443
2469.02	342.719
2468.31	377.991
2467.61	381.462
2466.9	377.869
2466.19	356.623
2465.48	402.461
2464.77	360.039
2464.07	359.981
2463.36	366.981
2462.65	395.147
2461.94	349.226
2461.23	366.805
2460.52	384.378
2459.81	359.635
2459.1	380.729
2458.4	412.391
2457.69	377.083
2456.98	394.641
2456.27	440.376
2455.56	369.857
2454.85	359.232
2454.14	366.217
2453.43	422.49
2452.72	352.019
2452.01	380.119
2451.3	387.097
2450.59	439.812
2449.88	351.793
2449.16	425.601
2448.45	376.298
2447.74	351.624
2447.03	414.85
2446.32	365.571
2445.61	386.6
2444.9	375.996
2444.19	428.637
2443.47	393.44
2442.76	386.352
2442.05	393.313
2441.34	379.206
2440.63	396.698
2439.91	386.104
2439.2	382.533
2438.49	368.435
2437.78	431.527
2437.06	382.348
2436.35	361.244
2435.64	389.239
2434.93	368.14
2434.21	364.575
2433.5	350.497
2432.79	399.502
2432.07	451.996
2431.36	416.89
2430.64	413.321
2429.93	423.761
2429.22	413.188
2428.5	427.125
2427.79	448.06
2427.07	374.49
2426.36	381.428
2425.65	398.861
2424.93	423.284
2424.22	426.714
2423.5	419.651
2422.79	419.584
2422.07	416.02
2421.36	405.467
2420.64	450.835
2419.92	401.842
2419.21	412.259
2418.49	450.617
2417.78	426.097
2417.06	426.028
2416.35	418.977
2415.63	418.909
2414.91	422.332
2414.2	394.346
2413.48	446.621
2412.76	390.731
2412.05	453.454
2411.33	428.968
2410.61	463.769
2409.9	414.884
2409.18	442.704
2408.46	428.692
2407.74	428.623
2407.03	442.491
2406.31	445.903
2405.59	407.518
2404.87	438.795
2404.16	383.013
2403.44	438.653
2402.72	445.544
2402	431.552
2401.28	441.921
2400.56	417.496
2399.85	452.215
2399.13	424.318
2398.41	424.249
2397.69	455.473
2396.97	431.065
2396.25	458.802
2395.53	444.827
2394.81	437.806
2394.09	479.425
2393.37	430.718
2392.65	413.284
2391.93	437.524
2391.21	458.285
2390.49	437.383
2389.77	409.547
2389.05	406.011
2388.33	426.763
2387.61	430.163
2386.89	440.499
2386.17	402.281
2385.45	416.086
2384.73	447.22
2384	422.884
2383.28	422.816
2382.56	471.26
2381.84	450.396
2381.12	412.219
2380.4	471.032
2379.67	464.03
2378.95	443.181
2378.23	453.495
2377.51	443.038
2376.79	442.967
2376.06	501.717
2375.34	473.96
2374.62	505.014
2373.9	456.515
2373.17	491.02
2372.45	497.855
2371.73	425.183
2371	473.501
2370.28	487.247
2369.56	418.067
2368.83	442.181
2368.11	424.84
2367.38	438.585
2366.66	466.137
2365.94	514.394
2365.21	445.276
2364.49	479.716
2363.76	472.737
2363.04	520.962
2362.31	458.786
2361.59	455.263
2360.86	482.777
2360.14	503.386
2359.41	437.806
2358.69	441.182
2357.96	489.358
2357.24	441.04
2356.51	499.535
2355.79	451.231
2355.06	461.49
2354.33	478.632
2353.61	430.355
2352.88	426.843
2352.15	447.425
2351.43	461.117
2350.7	447.28
2349.98	478.168
2349.25	481.53
2348.52	484.891
2347.79	502.005
2347.07	436.605
2346.34	450.284
2345.61	515.508
2344.88	460.446
2344.16	467.243
2343.43	508.388
2342.7	460.223
2341.97	494.488
2341.25	470.374
2340.52	504.627
2339.79	497.68
2339.06	501.032
2338.33	487.226
2337.6	518.022
2336.87	524.799
2336.14	521.284
2335.42	504.055
2334.69	476.546
2333.96	493.609
2333.23	534.656
2332.5	517.436
2331.77	469.386
2331.04	486.438
2330.31	476.084
2329.58	558.195
2328.85	496.473
2328.12	530.627
2327.39	479.198
2326.66	496.232
2325.93	465.356
2325.2	506.335
2324.47	516.515
2323.73	591.673
2323	482.152
2322.27	502.588
2321.54	488.833
2320.81	502.425
2320.08	550.186
2319.35	556.93
2318.61	519.262
2317.88	491.853
2317.15	505.433
2316.42	522.424
2315.69	549.651
2314.95	556.389
2314.22	535.821
2313.49	515.261
2312.76	542.471
2312.02	460.514
2311.29	497.957
2310.56	521.747
2309.82	531.891
2309.09	467.033
2308.36	565.803
2307.62	518
2306.89	504.287
2306.16	551.9
2305.42	521.155
2304.69	534.693
2303.95	548.227
2303.22	524.306
2302.48	568.473
2301.75	527.539
2301.02	500.23
2300.28	534.172
2299.55	557.898
2298.81	516.993
2298.08	530.512
2297.34	554.227
2296.6	489.544
2295.87	520.056
2295.13	530.167
2294.4	530.081
2293.66	502.816
2292.93	591.052
2292.19	536.615
2291.45	556.903
2290.72	611.136
2289.98	522.775
2289.24	546.449
2288.51	529.393
2287.77	529.307
2287.03	552.968
2286.3	559.662
2285.56	596.876
2284.82	528.963
2284.08	552.608
2283.35	549.129
2282.61	572.764
2281.87	576.059
2281.13	569.189
2280.4	525.06
2279.66	575.778
2278.92	541.821
2278.18	528.189
2277.44	609.35
2276.7	548.326
2275.97	527.932
2275.23	551.531
2274.49	558.208
2273.75	635.915
2273.01	568.172
2272.27	598.513
2271.53	496.989
2270.79	550.993
2270.05	493.448
2269.31	581.227
2268.57	584.511
2267.83	574.282
2267.09	611.342
2266.35	580.849
2265.61	516.601
2264.87	614.419
2264.13	567.064
2263.39	607.47
2262.65	580.376
2261.91	533.05
2261.17	543.082
2260.42	627.31
2259.68	586.743
2258.94	579.904
2258.2	532.616
2257.46	613.42
2256.72	589.73
2255.97	566.049
2255.23	555.85
2254.49	606.284
2253.75	592.714
2253	639.758
2252.26	605.987
2251.52	599.156
2250.78	592.328
2250.03	575.407
2249.29	575.313
2248.55	561.764
2247.8	571.762
2247.06	591.845
2246.32	672.442
2245.57	608.461
2244.83	581.473
2244.09	621.705
2243.34	571.203
2242.6	587.907
2241.85	624.76
2241.11	550.773
2240.36	580.904
2239.62	604.31
2238.88	600.855
2238.13	630.963
2237.39	630.86
2236.64	587.141
2235.89	640.718
2235.15	617.135
2234.4	660.629
2233.66	610.228
2232.91	663.766
2232.17	606.677
2231.42	619.983
2230.67	583.024
2229.93	666.683
2229.18	592.883
2228.44	643.022
2227.69	622.826
2226.94	555.765
2226.2	572.411
2225.45	625.868
2224.7	632.458
2223.95	608.934
2223.21	615.525
2222.46	545.186
2221.71	652.11
2220.96	625.255
2220.22	621.81
2219.47	641.763
2218.72	661.71
2217.97	634.871
2217.22	621.403
2216.48	611.281
2215.73	631.22
2214.98	614.42
2214.23	651.046
2213.48	627.572
2212.73	567.393
2211.98	607.345
2211.23	590.563
2210.48	647.178
2209.73	657.078
2208.98	636.962
2208.23	646.86
2207.48	706.763
2206.73	649.982
2205.98	633.212
2205.23	633.109
2204.48	672.985
2203.73	616.246
2202.98	616.146
2202.23	632.695
2201.48	692.521
2200.73	642.474
2199.98	688.966
2199.23	635.609
2198.48	658.795
2197.72	622.094
2196.97	658.58
2196.22	668.449
2195.47	595.188
2194.72	674.879
2193.97	641.529
2193.21	651.394
2192.46	677.871
2191.71	694.372
2190.96	651.074
2190.2	694.144
2189.45	694.031
2188.7	630.834
2187.94	637.37
2187.19	677.094
2186.44	736.717
2185.68	716.689
2184.93	643.587
2184.18	653.432
2183.42	666.591
2182.67	683.061
2181.91	682.949
2181.16	643.06
2180.41	689.354
2179.65	642.849
2178.9	665.936
2178.14	682.39
2177.39	702.15
2176.63	698.723
2175.88	665.499
2175.12	675.321
2174.37	665.281
2173.61	734.668
2172.86	711.386
2172.1	698.036
2171.34	770.691
2170.59	664.736
2169.83	704.306
2169.08	690.967
2168.32	730.519
2167.56	674.215
2166.81	720.366
2166.05	670.69
2165.29	700.31
2164.54	680.378
2163.78	657.151
2163.02	693.362
2162.27	722.959
2161.51	693.134
2160.75	699.621
2159.99	683.008
2159.23	659.803
2158.48	695.978
2157.72	728.843
2156.96	675.965
2156.2	718.713
2155.44	708.706
2154.69	688.815
2153.93	754.607
2153.17	784.135
2152.41	695.065
2151.65	665.308
2150.89	721.181
2150.13	694.722
2149.37	701.192
2148.61	720.825
2147.85	743.743
2147.09	717.298
2146.33	710.601
2145.57	720.352
2144.81	710.367
2144.05	752.997
2143.29	713.422
2142.53	762.611
2141.77	765.772
2141.01	739.358
2140.25	699.811
2139.49	676.701
2138.73	699.581
2137.97	771.711
2137.2	732.184
2136.44	679.539
2135.68	735.226
2134.92	721.978
2134.16	734.984
2133.4	738.144
2132.63	738.022
2131.87	724.782
2131.11	714.826
2130.35	708.152
2129.58	773.594
2128.82	724.306
2128.06	783.17
2127.29	760.107
2126.53	756.706
2125.77	753.306
2125	785.929
2124.24	798.897
2123.48	802.039
2122.71	772.449
2121.95	755.959
2121.19	768.923
2120.42	736.081
2119.66	778.482
2118.89	820.869
2118.13	778.226
2117.36	702.904
2116.6	670.1
2115.83	790.915
2115.07	748.304
2114.3	738.38
2113.54	757.858
2112.77	819.789
2112.01	744.546
2111.24	783.603
2110.48	780.21
2109.71	789.873
2108.94	773.426
2108.18	763.51
2107.41	779.696
2106.64	746.949
2105.88	776.177
2105.11	792.353
2104.34	785.702
2103.58	772.534
2102.81	762.629
2102.04	733.177
2101.28	824.28
2100.51	732.935
2099.74	749.099
2098.97	768.514
2098.21	833.505
2097.44	823.601
2096.67	764.879
2095.9	774.515
2095.13	800.418
2094.36	764.5
2093.6	774.132
2092.83	855.307
2092.06	806.393
2091.29	868.029
2090.52	799.625
2089.75	796.244
2088.98	854.602
2088.21	851.212
2087.44	812.091
2086.67	850.931
2085.9	769.608
2085.13	821.429
2084.36	831.032
2083.59	795.193
2082.82	834.003
2082.05	791.686
2081.28	811.019
2080.51	758.989
2079.74	810.751
2078.97	820.345
2078.2	755.371
2077.43	829.798
2076.65	862.07
2075.88	832.764
2075.11	900.662
2074.34	796.857
2073.57	806.442
2072.8	822.5
2072.02	838.552
2071.25	870.784
2070.48	822.092
2069.71	831.664
2068.93	825.056
2068.16	795.804
2067.39	863.596
2066.61	802.009
2065.84	853.611
2065.07	817.908
2064.29	843.631
2063.52	846.724
2062.75	827.196
2061.97	875.52
2061.2	830.153
2060.43	849.393
2059.65	846.024
2058.88	820.055
2058.1	865.112
2057.33	903.699
2056.55	861.599
2055.78	861.456
2055	864.54
2054.23	786.988
2053.45	790.082
2052.68	922.148
2051.9	863.967
2051.13	838.039
2050.35	860.459
2049.57	876.427
2048.8	908.498
2048.02	856.81
2047.25	847.007
2046.47	891.947
2045.69	853.165
2044.92	888.433
2044.14	891.504
2043.36	843.088
2042.59	852.6
2041.81	817.074
2041.03	884.481
2040.25	839.314
2039.48	832.744
2038.7	890.471
2037.92	919.251
2037.14	880.535
2036.37	918.946
2035.59	880.243
2034.81	941.126
2034.03	825.356
2033.25	834.852
2032.47	950.289
2031.69	889.143
2030.92	917.88
2030.14	892.057
2029.36	882.284
2028.58	917.424
2027.8	846.712
2027.02	836.952
2026.24	897.73
2025.46	920.021
2024.68	865.381
2023.9	942.148
2023.12	877.911
2022.34	909.8
2021.56	957.694
2020.78	867.866
2020	909.347
2019.21	880.384
2018.43	947.456
2017.65	905.694
2016.87	931.142
2016.09	930.988
2015.31	966.02
2014.53	991.445
2013.74	946.513
2012.96	923.976
2012.18	911.036
2011.4	939.649
2010.62	872.387
2009.83	907.387
2009.05	907.236
2008.27	903.892
2007.49	897.355
2006.7	964.257
2005.92	1031.14
2005.14	970.32
2004.35	966.967
2003.57	957.234
2002.79	953.885
2002	969.675
2001.22	944.001
2000.43	889.636
1999.65	937.311
1998.87	959.468
1998.08	933.812
1997.3	946.403
1996.51	997.222
1995.73	933.346
1994.94	914.081
1994.16	980.802
1993.37	932.881
1992.59	932.726
1991.8	1005.78
1991.02	945.145
1990.23	890.897
1989.44	944.83
1988.66	928.77
1987.87	960.417
1987.09	957.078
1986.3	995.068
1985.51	1029.87
1984.73	902.573
1983.94	975.506
1983.15	981.698
1982.37	943.417
1981.58	943.26
1980.79	1009.79
1980	977.869
1979.22	984.055
1978.43	1002.93
1977.64	993.248
1976.85	1024.81
1976.06	1034.16
1975.28	945.176
1974.49	929.162
1973.7	1030.47
1972.91	954.214
1972.12	1045.97
1971.33	995.094
1970.54	931.557
1969.76	1032.78
1968.97	1019.94
1968.18	969.096
1967.39	1010.1
1966.6	1022.59
1965.81	974.942
1965.02	1031.75
1964.23	999.932
1963.44	1056.71
1962.65	993.272
1961.86	1024.73
1961.07	929.696
1960.28	1109.76
1959.48	1040.03
1958.69	979.802
1957.9	1080.76
1957.11	1036.35
1956.32	1007.74
1955.53	1017.05
1954.74	994.775
1953.94	1000.92
1953.15	997.6
1952.36	1047.94
1951.57	997.268
1950.78	968.703
1949.98	1025.33
1949.19	1056.7
1948.4	1021.83
1947.61	1018.51
1946.81	1116.07
1946.02	992.951
1945.23	977.027
1944.43	1043.04
1943.64	1008.21
1942.85	1071.04
1942.05	1064.56
1941.26	1083.28
1940.46	1042.17
1939.67	1089.21
1938.88	1136.24
1938.08	1076.26
1937.29	1082.38
1936.49	1025.57
1935.7	1091.45
1934.9	1072.4
1934.11	1119.38
1933.31	1072.04
1932.52	1084.43
1931.72	1099.97
1930.93	1124.92
1930.13	992.782
1929.33	1083.71
1928.54	1030.14
1927.74	1070.79
1926.95	1070.61
1926.15	1108.1
1925.35	1042
1924.56	1041.83
1923.76	1129.51
1922.96	1063.44
1922.17	1063.26
1921.37	1097.58
1920.57	1103.67
1919.77	1078.4
1918.98	1081.36
1918.18	1115.65
1917.38	1040.26
1916.58	1052.62
1915.78	1146.41
1914.99	1083.58
1914.19	1120.98
1913.39	1139.57
1912.59	1101.82
1911.79	1151.71
1910.99	1164.04
1910.19	1063.73
1909.39	1179.29
1908.59	1044.6
1907.8	1194.53
1907	1113.04
1906.2	1172.25
1905.4	1093.91
1904.6	1115.6
1903.8	1102.92
1903	1130.85
1902.2	1118.17
1901.39	1117.98
1900.59	1095.94
1899.79	1136.34
1898.99	1111.18
1898.19	1101.63
1897.39	1110.8
1896.59	1063.82
1895.79	1122.91
1894.99	1060.35
1894.18	1125.65
1893.38	1141.05
1892.58	1103.45
1891.78	1156.25
1890.98	1118.66
1890.17	1049.93
1889.37	1121.4
1888.57	1133.67
1887.76	1114.8
1886.96	1145.75
1886.16	1204.7
1885.36	1117.35
1884.55	1126.5
1883.75	1148.09
1882.94	1154.12
1882.14	1172.59
1881.34	1206.6
1880.53	1203.29
1879.73	1237.28
1878.92	1131.39
1878.12	1109.45
1877.32	1140.34
1876.51	1214.7
1875.71	1174.12
1874.9	1204.98
1874.1	1155.1
1873.29	1207.68
1872.49	1191.96
1871.68	1170.03
1870.87	1203.97
1870.07	1191.36
1869.26	1160.14
1868.46	1206.46
1867.65	1231.07
1866.84	1134.75
1866.04	1181.06
1865.23	1205.65
1864.42	1199.25
1863.62	1189.76
1862.81	1130.7
1862	1242.01
1861.2	1186.06
1860.39	1288.04
1859.58	1188.76
1858.77	1200.94
1857.96	1185.26
1857.16	1166.5
1856.35	1246.74
1855.54	1206.32
1854.73	1181.37
1853.92	1221.37
1853.12	1245.9
1852.31	1168.41
1851.5	1257.84
1850.69	1192.74
1849.88	1257.42
1849.07	1220.14
1848.26	1182.87
1847.45	1182.68
1846.64	1139.25
1845.83	1253.28
1845.02	1203.68
1844.21	1265.2
1843.4	1200.19
1842.59	1233.92
1841.78	1233.72
1840.97	1258.18
1840.16	1199.39
1839.35	1260.84
1838.54	1149.67
1837.72	1189.54
1836.91	1220.15
1836.1	1213.78
1835.29	1281.34
1834.48	1265.72
1833.67	1166.98
1832.85	1237.59
1832.04	1209.68
1831.23	1277.18
1830.42	1181.58
1829.6	1316.75
1828.79	1255.01
1827.98	1236.34
1827.17	1285.33
1826.35	1251.3
1825.54	1287.97
1824.73	1281.61
1823.91	1244.52
1823.1	1268.89
1822.29	1265.6
1821.47	1289.96
1820.66	1277.46
1819.84	1277.24
1819.03	1240.19
1818.21	1292.16
1817.4	1270.46
1816.58	1245.7
1815.77	1279.24
1814.95	1242.21
1814.14	1272.67
1813.32	1290.85
1812.51	1284.5
1811.69	1189.27
1810.88	1277.94
1810.06	1213.38
1809.25	1234.62
1808.43	1237.48
1807.61	1307.7
1806.8	1310.55
1805.98	1319.51
1805.16	1276.43
1804.35	1337.43
1803.53	1245.4
1802.71	1266.61
1801.89	1330.63
1801.08	1305.94
1800.26	1317.95
1799.44	1326.9
1798.62	1314.45
1797.81	1277.55
1796.99	1252.89
1796.17	1304.62
1795.35	1338
1794.53	1392.75
1793.71	1221.51
1792.9	1306.79
1792.08	1291.31
1791.26	1291.09
1790.44	1327.49
1789.62	1336.42
1788.8	1317.89
1787.98	1366.47
1787.16	1344.89
1786.34	1335.52
1785.52	1350.53
1784.7	1374.69
1783.88	1322.65
1783.06	1444.31
1782.24	1352.67
1781.42	1248.87
1780.6	1327.85
1779.78	1385.48
1778.95	1275.64
1778.13	1366.74
1777.31	1363.47
1776.49	1357.15
1775.67	1384.31
1774.85	1335.4
1774.02	1326.05
1773.2	1368.4
1772.38	1401.61
1771.56	1380.1
1770.74	1370.74
1769.91	1358.36
1769.09	1321.67
1768.27	1339.67
1767.44	1385
1766.62	1327.07
1765.8	1436.15
1764.97	1399.48
1764.15	1314.25
1763.33	1332.24
1762.5	1432.14
1761.68	1389.43
1760.85	1422.56
1760.03	1479.94
1759.21	1455.43
1758.38	1427.9
1757.56	1464.03
1756.73	1391.05
1755.91	1478.69
1755.08	1390.58
1754.26	1447.89
1753.43	1447.65
1752.6	1450.43
1751.78	1465.32
1750.95	1483.24
1750.13	1489.04
1749.3	1473.66
1748.47	1536.94
1747.65	1654.66
1746.82	1593.89
1745.99	1684.33
1745.17	1693.12
1744.34	1759.34
1743.51	1746.95
1742.69	1801.05
1741.86	1888.36
1741.03	1978.67
1740.2	2002.49
1739.38	1932.7
1738.55	2116.55
1737.72	2188.64
1736.89	2179.21
1736.06	2260.32
1735.23	2359.51
1734.4	2331.96
1733.58	2467.3
1732.75	2494.02
1731.92	2565.96
1731.09	2595.67
1730.26	2489.74
1729.43	2513.42
1728.6	2654.62
1727.77	2699.35
1726.94	2795.29
1726.11	2746.62
1725.28	2839.5
1724.45	2793.86
1723.62	2781.35
1722.79	2943.39
1721.96	2753.32
1721.13	2831.08
1720.3	2803.52
1719.46	2685.75
1718.63	2610.12
1717.8	2642.75
1716.97	2612.24
1716.14	2548.68
1715.31	2373.96
1714.47	2379.56
1713.64	2225.95
1712.81	2243.6
1711.98	2141.11
1711.14	2086.71
1710.31	1945.26
1709.48	1833.88
1708.65	1836.56
1707.81	1785.25
1706.98	1697.94
1706.15	1718.65
1705.31	1688.37
1704.48	1685.09
1703.64	1636.83
1702.81	1585.6
1701.98	1564.35
1701.14	1579.07
1700.31	1554.83
1699.47	1539.59
1698.64	1614.2
1697.8	1536.07
1696.97	1571.74
1696.13	1466.7
1695.3	1571.2
1694.46	1511.09
1693.63	1546.73
1692.79	1495.62
1691.95	1474.43
1691.12	1525.01
1690.28	1548.67
1689.45	1551.4
1688.61	1539.18
1687.77	1509.03
1686.94	1523.71
1686.1	1526.44
1685.26	1562.02
1684.42	1579.67
1683.59	1549.55
1682.75	1564.21
1681.91	1522.16
1681.07	1503.99
1680.24	1503.74
1679.4	1560.16
1678.56	1518.14
1677.72	1523.84
1676.88	1598.12
1676.04	1520.34
1675.21	1469.41
1674.37	1537.7
1673.53	1495.73
1672.69	1569.95
1671.85	1471.39
1671.01	1515.81
1670.17	1521.51
1669.33	1512.32
1668.49	1506.11
1667.65	1514.78
1666.81	1463.93
1665.97	1552.93
1665.13	1403.95
1664.29	1528.61
1663.45	1448.07
1662.61	1599.44
1661.77	1507.02
1660.92	1480.02
1660.08	1524.34
1659.24	1571.61
1658.4	1396.09
1657.56	1538.41
1656.72	1538.14
1655.87	1552.73
1655.03	1602.92
1654.19	1561.1
1653.35	1501.49
1652.5	1530.9
1651.66	1554.37
1650.82	1530.38
1649.98	1521.22
1649.13	1520.96
1648.29	1577.02
1647.45	1556
1646.6	1564.63
1645.76	1525.84
1644.91	1498.92
1644.07	1590.48
1643.23	1596.13
1642.38	1545.53
1641.54	1563.02
1640.69	1613.07
1639.85	1571.37
1639	1479.38
1638.16	1632.95
1637.31	1567.6
1636.47	1585.08
1635.62	1596.64
1634.78	1593.41
1633.93	1628.6
1633.08	1628.32
1632.24	1625.09
1631.39	1657.31
1630.55	1665.89
1629.7	1733.53
1628.85	1659.41
1628.01	1747.69
1627.16	1738.54
1626.31	1782.51
1625.46	1708.44
1624.62	1719.95
1623.77	1681.31
1622.92	1790.14
1622.07	1946.11
1621.23	1936.93
1620.38	2128.2
1619.53	2260.45
1618.68	2501.69
1617.83	2722.22
1616.98	3134.14
1616.13	3378.05
1615.29	3777.94
1614.44	4033.43
1613.59	4209.36
1612.74	4355.79
1611.89	4149.06
1611.04	3995.36
1610.19	3777
1609.34	3464.6
1608.49	3169.95
1607.64	2963.6
1606.79	2833.75
1605.94	2509.97
1605.09	2477.21
1604.24	2359.27
1603.38	2162.04
1602.53	2038.32
1601.68	2061.46
1600.83	2037.62
1599.98	1928.65
1599.13	1860.82
1598.27	1801.81
1597.42	1848.44
1596.57	1710.25
1595.72	1818.48
1594.87	1692.07
1594.01	1688.85
1593.16	1758.91
1592.31	1776.2
1591.45	1638.16
1590.6	1675.97
1589.75	1579.01
1588.89	1789.62
1588.04	1719.03
1587.19	1712.88
1586.33	1700.88
1585.48	1729.86
1584.62	1662.25
1583.77	1647.33
1582.92	1685.08
1582.06	1696.49
1581.21	1681.58
1580.35	1713.45
1579.5	1695.62
1578.64	1689.48
1577.78	1683.35
1576.93	1729.81
1576.07	1741.2
1575.22	1670.8
1574.36	1705.55
1573.51	1681.9
1572.65	1629.06
1571.79	1710.51
1570.94	1698.55
1570.08	1674.91
1569.22	1648.36
1568.37	1744.34
1567.51	1647.8
1566.65	1615.44
1565.79	1644.32
1564.94	1611.97
1564.08	1713.7
1563.22	1666.78
1562.36	1698.54
1561.5	1654.56
1560.65	1584.37
1559.79	1636.51
1558.93	1647.88
1558.07	1740.75
1557.21	1676.42
1556.35	1751.79
1555.49	1588.56
1554.63	1661.01
1553.77	1768.33
1552.91	1619.72
1552.05	1645.61
1551.19	1697.65
1550.33	1627.61
1549.47	1627.33
1548.61	1603.8
1547.75	1676.15
1546.89	1704.91
1546.03	1693
1545.17	1701.42
1544.31	1686.61
1543.45	1651.49
1542.58	1691.83
1541.72	1587.09
1540.86	1595.52
1540	1609.74
1539.14	1705.17
1538.28	1626.59
1537.41	1640.8
1536.55	1727.47
1535.69	1625.75
1534.82	1703.7
1533.96	1645.46
1533.1	1691.52
1532.24	1589.87
1531.37	1737.27
1530.51	1647.23
1529.64	1557.21
1528.78	1681.39
1527.92	1759.22
1527.05	1634.52
1526.19	1683.41
1525.32	1743.85
1524.46	1746.44
1523.59	1705.67
1522.73	1670.69
1521.86	1638.61
1521	1701.89
1520.13	1710.27
1519.27	1620.43
1518.4	1695.24
1517.54	1645.86
1516.67	1683.1
1515.8	1625.08
1514.94	1688.29
1514.07	1644.72
1513.21	1601.16
1512.34	1713.38
1511.47	1721.74
1510.6	1730.09
1509.74	1660.6
1508.87	1709.32
1508	1619.68
1507.14	1685.67
1506.27	1725.72
1505.4	1762.86
1504.53	1748.16
1503.66	1765.14
1502.8	1635.28
1501.93	1706.96
1501.06	1827.54
1500.19	1634.43
1499.32	1700.32
1498.45	1691.39
1497.58	1780.26
1496.71	1685.06
1495.84	1693.39
1494.97	1638.48
1494.1	1764.66
1493.23	1752.86
1492.36	1706.59
1491.49	1723.53
1490.62	1714.61
1489.75	1682.73
1488.88	1725.5
1488.01	1699.37
1487.14	1773.7
1486.27	1655.74
1485.4	1773.08
1484.52	1827.28
1483.65	1695.03
1482.78	1760.69
1481.91	1728.85
1481.04	1737.15
1480.17	1708.19
1479.29	1773.8
1478.42	1762.04
1477.55	1793.24
1476.67	1781.48
1475.8	1804.08
1474.93	1706.42
1474.06	1740.47
1473.18	1840.35
1472.31	1714.12
1471.43	1776.76
1470.56	1813.64
1469.69	1707.51
1468.81	1732.95
1467.94	1855.59
1467.06	1855.27
1466.19	1726.33
1465.31	1794.61
1464.44	1737.16
1463.56	1811.13
1462.69	1893.65
1461.81	1716.27
1460.94	1838.74
1460.06	1838.43
1459.19	1918.02
1458.31	1792.13
1457.43	1854.59
1456.56	1905.62
1455.68	1973.74
1454.8	1845.07
1453.93	2012.97
1453.05	1972.71
1452.17	1784.25
1451.3	1872.29
1450.42	1923.25
1449.54	1911.52
1448.66	1942.52
1447.78	1933.64
1446.91	1901.98
1446.03	1952.9
1445.15	1901.32
1444.27	1835.54
1443.39	1903.51
1442.51	1880.42
1441.64	1942.67
1440.76	1885.46
1439.88	1802.67
1439	1910.39
1438.12	1941.32
1437.24	1852.89
1436.36	1841.2
1435.48	1832.36
1434.6	1928.61
1433.72	1865.8
1432.84	1854.12
1431.96	1899.22
1431.08	1810.9
1430.2	1895.72
1429.31	1872.69
1428.43	1812.79
1427.55	1843.68
1426.67	1826.34
1425.79	1809.01
1424.91	1808.7
1424.02	1816.89
1423.14	1876.08
1422.26	1802.09
1421.38	1841.44
1420.49	1951.58
1419.61	1874.78
1418.73	1877.28
1417.85	1950.56
1416.96	1783.22
1416.08	1907.44
1415.2	1813.73
1414.31	1943.55
1413.43	1926.24
1412.54	1894.8
1411.66	2007.57
1410.78	1894.14
1409.89	1972.95
1409.01	1983.91
1408.12	1980.74
1407.24	2031.25
1406.35	1940.51
1405.47	1878.04
1404.58	1939.83
1403.7	1843.51
1402.81	1905.29
1401.92	1919.07
1401.04	1963.88
1400.15	1876.08
1399.27	1864.47
1398.38	1883.89
1397.49	1832.8
1396.61	1917.06
1395.72	1899.82
1394.83	1845.94
1393.94	1882.25
1393.06	1831.21
1392.17	1856.24
1391.28	1858.73
1390.39	1847.15
1389.51	1793.33
1388.62	1950.65
1387.73	1829.3
1386.84	1865.56
1385.95	1910.24
1385.06	1870.53
1384.17	1887.08
1383.29	1914.87
1382.4	1861.12
1381.51	1855.17
1380.62	1882.95
1379.73	1966.92
1378.84	1901.96
1377.95	1887.59
1377.06	1839.51
1376.17	1878.5
1375.28	1973.63
1374.39	1883.46
1373.5	1880.33
1372.6	1896.83
1371.71	1907.73
1370.82	1865.32
1369.93	1884.62
1369.04	1945.98
1368.15	1982.09
1367.26	1886.44
1366.36	1944.96
1365.47	1882.98
1364.58	1949.89
1363.69	1781.48
1362.79	1898.8
1361.9	1878.87
1361.01	1900.93
1360.11	1850.22
1359.22	1863.89
1358.33	1824.39
1357.43	1894.01
1356.54	1857.32
1355.65	1848.6
1354.75	1895.81
1353.86	1845.16
1352.96	1867.2
1352.07	1824.95
1351.17	1824.63
1350.28	1866.22
1349.39	1821.2
1348.49	1857.19
1347.59	1817.77
1346.7	1859.33
1345.8	1895.3
1344.91	1827.98
1344.01	1875.1
1343.12	1832.92
1342.22	1790.76
1341.32	1896.43
1340.43	1815.23
1339.53	1898.55
1338.63	1920.52
1337.74	1847.72
1336.84	1858.55
1335.94	1827.58
1335.04	1877.39
1334.15	1835.29
1333.25	1840.54
1332.35	1848.57
1331.45	1787.01
1330.55	1831.22
1329.66	1791.95
1328.76	1930.74
1327.86	1841.39
1326.96	1891.12
1326.06	1907.48
1325.16	1815.4
1324.26	1909.59
1323.36	1981.51
1322.46	1861.68
1321.56	1925.25
1320.66	1930.47
1319.76	1857.93
1318.86	1899.25
1317.96	1901.7
1317.06	1923.57
1316.16	1942.66
1315.26	2033.88
1314.36	1969.72
1313.46	2060.91
1312.55	2052.23
1311.65	2096.23
1310.75	2051.51
1309.85	2076.1
1308.95	2142.24
1308.04	2136.33
1307.14	2188.59
1306.24	2163.28
1305.34	2149.05
1304.43	2209.59
1303.53	2151.06
1302.63	2208.81
1301.72	2119.87
1300.82	2116.73
1299.92	2204.88
1299.01	2284.71
1298.11	2311.97
1297.21	2214.78
1296.3	2313.92
1295.4	2366.03
1294.49	2379.43
1293.59	2508.88
1292.68	2541.59
1291.78	2472.09
1290.87	2421.95
1289.97	2650.7
1289.06	2581.22
1288.16	2514.52
1287.25	2621.7
1286.34	2521.91
1285.44	2582.16
1284.53	2545.85
1283.62	2534.37
1282.72	2509.11
1281.81	2489.37
1280.9	2469.64
1280	2427.87
1279.09	2364.07
1278.18	2402.22
1277.27	2335.7
1276.37	2247.16
1275.46	2307.34
1274.55	2323.45
1273.64	2268
1272.73	2286.86
1271.82	2113.12
1270.92	2206.28
1270.01	2161.88
1269.1	2018.5
1268.19	2128.13
1267.28	2097.52
1266.37	2154.87
1265.46	2022.58
1264.55	1992
1263.64	2032.86
1262.73	1977.57
1261.82	2015.67
1260.91	2015.31
1260	1954.56
1259.09	1984.41
1258.18	1934.66
1257.27	1926.09
1256.35	1933.98
1255.44	1865.07
1254.53	1853.78
1253.62	1842.48
1252.71	1891.5
1251.79	1830.87
1250.88	1852.47
1249.97	1868.58
1249.06	1887.43
1248.14	1843.28
1247.23	1788.18
1246.32	1834.41
1245.41	1902.53
1244.49	1828.29
1243.58	1882.7
1242.66	1885.1
1241.75	1860.15
1240.84	1742.22
1239.92	1919.66
1239.01	1801.75
1238.09	1856.11
1237.18	1801.12
1236.26	1784.41
1235.35	1882.45
1234.43	1770.12
1233.52	1895.44
1232.6	1739.46
1231.69	1848.36
1230.77	1763.41
1229.86	1763.1
1228.94	1820.09
1228.02	1732.47
1227.11	1789.44
1226.19	1748.22
1225.27	1756.09
1224.36	1807.58
1223.44	1793.63
1222.52	1782.42
1221.6	1817.52
1220.69	1789.96
1219.77	1754.23
1218.85	1718.52
1217.93	1802.63
1217.01	1791.42
1216.1	1826.49
1215.18	1763.57
1214.26	1776.86
1213.34	1806.48
1212.42	1683.75
1211.5	1765.04
1210.58	1778.33
1209.66	1799.76
1208.74	1804.88
1207.82	1744.77
1206.9	1774.35
1205.98	1825.66
1205.06	1868.8
1204.14	1806
1203.22	1678.06
1202.3	1835.23
1201.38	1851.19
1200.46	1769.45
1199.54	1774.56
1198.61	1790.52
1197.69	1798.35
1196.77	1773.62
1195.85	1759.75
1194.93	1735.04
1194	1788.94
1193.08	1750.68
1192.16	1866.89
1191.24	1733.81
1190.31	1817.47
1189.39	1841.52
1188.47	1811.41
1187.54	1767.78
1186.62	1889.27
1185.7	1853.75
1184.77	1834.48
1183.85	1893.67
1182.92	1933.91
1182	1925.45
1181.07	1922.41
1180.15	1911.26
1179.23	1973.08
1178.3	1994.35
1177.37	2080.46
1176.45	2007.15
1175.52	1960.88
1174.6	1938.93
1173.67	1976.39
1172.75	2000.33
1171.82	1886.62
1170.89	1918.67
1169.97	1904.84
1169.04	1904.5
1168.11	1858.31
1167.19	1812.14
1166.26	1795.64
1165.33	1824.98
1164.4	1851.6
1163.48	1773.13
1162.55	1775.51
1161.62	1772.5
1160.69	1812.58
1159.76	1860.73
1158.83	1801.17
1157.91	1819.7
1156.98	1787.08
1156.05	1776
1155.12	1705.73
1154.19	1802.27
1153.26	1850.36
1152.33	1798.94
1151.4	1825.5
1150.47	1814.43
1149.54	1703.92
1148.61	1800.35
1147.68	1751.67
1146.75	1802.4
1145.82	1869.22
1144.89	1895.74
1143.96	1879.29
1143.02	1809.17
1142.09	1857.15
1141.16	1824.63
1140.23	1867.23
1139.3	1813.25
1138.36	1850.47
1137.43	1842.1
1136.5	1879.3
1135.57	1849.49
1134.63	1932.24
1133.7	1937.25
1132.77	1843.14
1131.83	1952.63
1130.9	1960.32
1129.97	1981.39
1129.03	2007.81
1128.1	2157.34
1127.17	2028.51
1126.23	2081.66
1125.3	2022.44
1124.36	2040.8
1123.43	2096.59
1122.49	2160.39
1121.56	2106.54
1120.62	2146.26
1119.69	2145.88
1118.75	2198.93
1117.81	2179.84
1116.88	2110.01
1115.94	2133.67
1115.01	2237.42
1114.07	2159.6
1113.13	2124.52
1112.2	2073.44
1111.26	2099.76
1110.32	2104.72
1109.38	2109.68
1108.45	2127.97
1107.51	2114.26
1106.57	2007.25
1105.63	2060.2
1104.69	2054.5
1103.76	2075.45
1102.82	2040.45
1101.88	2018.78
1100.94	2029.08
1100	2050.01
1099.06	1988.42
1098.12	1961.46
1097.18	1971.75
1096.24	1902.23
1095.3	2040.21
1094.36	1970.7
1093.42	1962.37
1092.48	1946.07
1091.54	1937.75
1090.6	2009.16
1089.66	1886.57
1088.72	1949.99
1087.78	1891.21
1086.84	1832.45
1085.9	1927.71
1084.95	1895.51
1084.01	1786.34
1083.07	1812.56
1082.13	1833.47
1081.19	1875.59
1080.24	1893.82
1079.3	1856.35
1078.36	1840.11
1077.41	1892.8
1076.47	1863.31
1075.53	1913.33
1074.58	1764.61
1073.64	1822.58
1072.7	1867.28
1071.75	1766.32
1070.81	1821.6
1069.86	1831.86
1068.92	1807.72
1067.98	1788.87
1067.03	1875.86
1066.09	1740.62
1065.14	1848.74
1064.19	1724.13
1063.25	1797.85
1062.3	1742.02
1061.36	1799.85
1060.41	1746.68
1059.46	1796.56
1058.52	1746.05
1057.57	1846.1
1056.63	1753.35
1055.68	1760.96
1054.73	1887.35
1053.78	1839.51
1052.84	1926.25
1051.89	1883.7
1050.94	1809.5
1049.99	1883.02
1049.05	1877.41
1048.1	1745.26
1047.15	1800.3
1046.2	1876.41
1045.25	1849.72
1044.3	1807.24
1043.35	1809.55
1042.4	1774.99
1041.45	1798.37
1040.5	1869.13
1039.55	1810.89
1038.6	1892.14
1037.65	1831.29
1036.7	1802.02
1035.75	1872.72
1034.8	1914.46
1033.85	1874.68
1032.9	1871.71
1031.95	1813.55
1031	1939.37
1030.05	1931.14
1029.1	1922.91
1028.14	1933.07
1027.19	1861.82
1026.24	1795.85
1025.29	1808.66
1024.33	1866.07
1023.38	1855.24
1022.43	1910
1021.48	1844.08
1020.52	1877.85
1019.57	1974.53
1018.62	1869.31
1017.66	1884.7
1016.71	1889.61
1015.75	1787.07
1014.8	1852.25
1013.85	1899.07
1012.89	1885.63
1011.94	1869.58
1010.98	1864.01
1010.03	1824.42
1009.07	1865.96
1008.12	1891.79
1007.16	1797.27
1006.2	1878.04
1005.25	1820.16
1004.29	1788.46
1003.34	1884.87
1002.38	1921.12
1001.42	1831.93
1000.47	1949.17
999.508	1831.27
998.551	1864.89
997.594	1833.22
996.636	1874.67
995.679	1845.62
994.721	1766.98
993.763	1818.86
992.805	1886.37
991.846	1839.07
990.888	1838.74
989.929	1846.24
988.97	1762.47
988.011	1923.77
987.052	1876.52
986.093	1860.54
985.133	1810.71
984.173	1904.16
983.213	1851.73
982.253	1820.15
981.293	1835.44
980.333	1783.05
979.372	1853
978.411	1813.64
977.45	1847.13
976.489	1779.17
975.528	1880.28
974.566	1820.13
973.605	1793.81
972.643	1793.49
971.681	1819.15
970.719	1865.59
969.756	1870.45
968.794	1792.2
967.831	1807.45
966.868	1835.69
965.905	1822.38
964.942	1798.69
963.979	1798.37
963.015	1842.15
962.052	1839.23
961.088	1815.55
960.124	1830.79
959.159	1814.9
958.195	1819.76
957.23	1871.27
956.266	1855.38
955.301	1834.32
954.336	1878.03
953.37	1926.9
952.405	1848.87
951.439	1866.66
950.473	1760.19
949.507	1827.16
948.541	1813.9
947.575	1834.27
946.608	1916.71
945.642	1841.36
944.675	1833.27
943.708	1894.99
942.741	1855.88
941.773	1796.1
940.806	1808.7
939.838	1860.04
938.87	1875.2
937.902	1859.37
936.934	1833.21
935.965	1807.07
934.997	1848.04
934.028	1852.87
933.059	1847.37
932.09	1893.47
931.121	1820.91
930.151	1903.1
929.182	1822.84
928.212	1907.57
927.242	1835.06
926.272	1811.54
925.301	1875.62
924.331	1867.56
923.36	1872.37
922.389	1761.31
921.418	1866.55
920.447	1938.28
919.475	1850.43
918.504	1901.56
917.532	1880.64
916.56	1913.73
915.588	1915.96
914.616	1835.9
913.643	1874.14
912.671	1876.37
911.698	1899.16
910.725	1911.66
909.752	1898.47
908.779	1957.2
907.805	1905.49
906.831	1889.74
905.858	1963.84
904.883	1978.89
903.909	2006.76
902.935	1867.85
901.96	1916.25
900.986	1977.46
900.011	2002.74
899.036	1953.67
898.06	2037.91
897.085	2050.35
896.109	1991.05
895.133	2018.87
894.157	2074.86
893.181	2051.43
892.205	2061.3
891.229	1986.69
890.252	2073.36
889.275	2098.57
888.298	2123.78
887.321	2095.25
886.343	2089.76
885.366	2181.45
884.388	2127.36
883.41	2188.33
882.432	2172.59
881.454	2253.98
880.475	2105.38
879.497	2186.74
878.518	2155.7
877.539	2145.09
876.56	2124.28
875.58	2098.36
874.601	2120.95
873.621	2061.88
872.641	2155.91
871.661	2073.89
870.681	2183.18
869.701	2198.08
868.72	2172.19
867.739	2166.7
866.758	2191.79
865.777	2137.88
864.796	2244.5
863.815	2307.77
862.833	2325.18
861.851	2436.79
860.869	2494.91
859.887	2670.08
858.905	2682.32
857.922	2602.96
856.939	2671.18
855.956	2665.6
854.973	2639.69
853.99	2626.5
853.007	2623.48
852.023	2577.25
851.039	2528.5
850.055	2479.77
849.071	2392.95
848.087	2308.7
847.102	2427.63
846.118	2231.7
845.133	2249.06
844.148	2304.49
843.163	2187.34
842.177	2242.76
841.192	2209.38
840.206	2137.96
839.22	2129.97
838.234	2220.85
837.248	2096.24
836.261	2065.45
835.274	2070.14
834.288	2115.37
833.301	2145.38
832.313	2046.22
831.326	2005.34
830.339	2151.8
829.351	2194.44
828.363	2113.06
827.375	2226.53
826.387	2167.95
825.398	2159.96
824.409	2103.94
823.421	2164.24
822.432	2191.65
821.443	2112.9
820.453	2203.49
819.464	2144.98
818.474	2131.96
817.484	2091.16
816.494	2131.18
815.504	2118.17
814.513	2077.4
813.523	2114.87
812.532	2220.47
811.541	2169.61
810.55	2075.89
809.559	2206.64
808.567	2075.13
807.575	2150.38
806.583	2167.63
805.591	2058.88
804.599	2121.49
803.607	2153.85
802.614	2090.49
801.621	2143
800.628	2074.63
799.635	2179.97
798.642	2068.84
797.649	2221.96
796.655	2186.33
795.661	2112.98
794.667	2238.35
793.673	2288.23
792.678	2204.85
791.684	2181.82
790.689	2075.87
789.694	2211.18
788.699	2062.56
787.704	2019.48
786.708	2019.11
785.713	2048.87
784.717	2106.24
783.721	2035.58
782.724	2007.6
781.728	1957.05
780.731	1956.7
779.735	1993.96
778.738	1958.49
777.741	1998.25
776.743	1967.8
775.746	1919.82
774.748	1997.15
773.75	2026.85
772.752	2091.61
771.754	1993.56
770.756	2048.28
769.757	1997.84
768.758	1982.45
767.759	1972.08
766.76	2026.77
765.761	1886.3
764.761	1973.5
763.762	2060.67
762.762	2055.29
761.762	2009.92
760.762	1944.57
759.761	2044.17
758.761	2011.31
757.76	1936.01
756.759	2020.57
755.758	1937.79
754.756	1979.88
753.755	2016.97
752.753	1986.65
751.751	2038.69
750.749	2045.8
749.747	1940.66
748.745	2020.11
747.742	2092.05
746.739	1999.43
745.736	1989.09
744.733	2001.19
743.73	2003.31
742.726	2010.42
741.723	2059.87
740.719	2029.61
739.715	2051.65
738.71	2061.23
737.706	2085.74
736.701	2075.4
735.697	2057.61
734.692	2014.94
733.686	2091.67
732.681	1999.28
731.675	2063.56
730.67	2045.78
729.664	2042.92
728.658	2005.28
727.651	2059.56
726.645	2069.12
725.638	2019.07
724.631	2100.64
723.624	2075.43
722.617	1983.22
721.61	2069.71
720.602	1994.89
719.595	2051.59
718.587	2175.23
717.578	2085.55
716.57	1978.56
715.562	2117.01
714.553	2039.79
713.544	2079.07
712.535	2058.87
711.526	2194.73
710.516	2115.07
709.507	2156.78
708.497	2205.9
707.487	2272.33
706.477	2187.77
705.467	2286.34
704.456	2436.83
703.445	2302.82
702.434	2282.61
701.423	2326.7
700.412	2247.16
699.401	2308.54
698.389	2159.85
697.377	2169.33
696.365	2191.17
695.353	2161.13
694.34	2121.22
693.328	2147.99
692.315	2105.63
691.302	2060.82
690.289	1974.07
689.276	2005.78
688.262	2074.48
687.249	2054.37
686.235	2189.61
685.221	2102.92
684.206	2122.26
683.192	2075.04
682.177	2160.9
681.162	2194.99
680.147	2105.92
679.132	2176.95
678.117	2188.86
677.101	2121.99
676.086	2143.75
675.07	2158.12
674.054	2120.82
673.037	2061.39
672.021	2046.26
671.004	2092.6
669.987	2079.92
668.97	2094.29
667.953	2088.99
666.936	2076.32
665.918	2053.82
664.9	2105.03
663.882	2141.48
662.864	2057.6
661.846	2084.23
660.827	2098.57
659.808	2088.37
658.789	2078.17
657.77	2038.54
656.751	2173.06
655.731	2148.14
654.712	2079.09
653.692	2117.93
652.672	2137.15
651.652	2109.8
650.631	2192.71
649.611	2109.02
648.59	2069.45
647.569	2230.67
646.548	2147.03
645.526	2119.71
644.505	2055.69
643.483	2101.8
642.461	2128.32
641.439	2176.84
640.417	2132.43
639.394	2156.48
638.371	2207.42
637.348	2224.12
636.325	2248.15
635.302	2384.55
634.279	2662.58
633.255	2767.11
632.231	2920.44
631.207	2893.04
630.183	2597.16
629.159	2413.64
628.134	2215.55
627.109	2202.95
626.084	2200.1
625.059	2214.33
624.034	2216.36
623.008	2184.25
621.983	2205.79
620.957	2090.85
619.931	2124.57
618.904	2199.69
617.878	2221.21
616.851	2123.39
615.824	2125.44
614.797	2139.65
613.77	2124.65
612.743	2165.63
611.715	2162.79
610.687	2218.34
609.659	2161.99
608.631	2161.59
607.603	2166.06
606.574	2119.47
605.546	2128.8
604.517	2065.24
603.487	2162.03
602.458	2207.77
601.429	2149.09
600.399	2199.67
599.369	2211.4
598.339	2203.71
597.309	2145.07
596.278	2200.47
595.248	2105.47
594.217	2168.13
593.186	2170.16
592.155	2286.12
591.123	2130.57
590.091	2137.45
589.06	2178.24
588.028	2235.98
586.996	2119.31
585.963	2160.08
584.931	2106.42
583.898	2166.54
582.865	2108.06
581.832	2163.32
580.798	2179.86
579.765	2172.2
578.731	2176.63
577.697	2231.84
576.663	2209.67
575.629	2228.6
574.594	2194.35
573.56	2218.11
572.525	2220.11
571.49	2219.7
570.455	2142.01
569.419	2151.28
568.384	2218.47
567.348	2109.45
566.312	2191.1
565.276	2144.86
564.239	2151.69
563.203	2197.12
562.166	2269.05
561.129	2258.99
560.092	2248.93
559.054	2267.79
558.017	2252.91
556.979	2295.86
555.941	2254.48
554.903	2184.23
553.865	2174.19
552.826	2181.01
551.787	2118.03
550.749	2163.36
549.709	2187.02
548.67	2092.79
547.631	2224.68
546.591	2171.37
545.551	2122.88
544.511	2180.18
543.471	2194.19
542.43	2148.13
541.39	2239.02
540.349	2308.26
539.308	2190.16
538.267	2156.14
537.225	2143.74
536.184	2229.75
535.142	2183.74
534.1	2171.33
533.058	2182.93
532.015	2187.32
530.973	2062.22
529.93	2076.22
528.887	2109.39
527.844	2089.83
526.801	2130.17
525.757	2029.16
524.713	2074.29
523.669	2143.35
522.625	2126.2
521.581	2226.34
520.537	2225.93
519.492	2259.02
518.447	2301.67
517.402	2188.81
516.357	2250.58
515.311	2262.12
514.265	2225.84
513.22	2082
512.174	2081.61
511.127	2181.59
510.081	2064.12
509.034	2049.4
507.987	2034.69
506.94	2017.6
505.893	2057.81
504.846	2038.33
503.798	2076.13
502.75	2113.92
501.702	2130.22
500.654	2153.68
499.606	2193.81
