3200.54	50.5175
3199.95	21.049
3199.35	46.3007
3198.76	29.4596
3198.16	21.0394
3197.57	50.487
3196.98	25.2397
3196.38	54.6777
3195.79	37.8481
3195.19	50.4564
3194.6	42.0407
3194	29.424
3193.41	50.4336
3192.81	37.8194
3192.22	33.6122
3191.62	42.0089
3191.03	46.2028
3190.43	67.1939
3189.84	25.1939
3189.24	41.9835
3188.65	50.3726
3188.05	58.7591
3187.45	54.5538
3186.86	12.5874
3186.26	25.171
3185.67	46.1399
3185.07	33.5512
3184.47	29.3529
3183.88	37.7337
3183.28	41.92
3182.69	16.7655
3182.09	58.6703
3181.49	37.7109
3180.9	41.8946
3180.3	25.133
3179.7	46.0702
3179.1	25.1254
3178.51	75.3647
3177.91	4.18629
3177.31	33.4853
3176.72	33.4802
3176.12	33.4751
3175.52	71.1239
3174.92	58.5638
3174.33	54.3724
3173.73	25.0912
3173.13	33.4498
3172.53	37.6253
3171.93	50.1595
3171.34	33.4346
3170.74	50.1443
3170.14	12.5342
3169.54	45.9517
3168.94	37.5912
3168.34	20.8808
3167.74	58.4574
3167.15	41.749
3166.55	45.9169
3165.95	16.6945
3165.35	33.384
3164.75	54.2408
3164.15	45.8891
3163.55	16.6844
3162.95	29.1933
3162.35	70.8872
3161.75	37.5229
3161.15	45.8543
3160.55	41.6794
3159.95	16.6692
3159.35	12.5
3158.75	41.6605
3158.15	29.1579
3157.55	54.1422
3156.95	41.6415
3156.35	49.9622
3155.75	62.4433
3155.15	45.7848
3154.55	24.9698
3153.95	29.127
3153.35	49.9244
3152.75	45.7571
3152.15	37.4319
3151.54	37.4262
3150.94	41.5784
3150.34	37.4149
3149.74	66.5053
3149.14	33.2476
3148.54	58.1744
3147.94	41.5469
3147.33	58.1568
3146.73	53.9945
3146.13	45.6807
3145.53	20.7608
3144.93	41.5153
3144.32	20.7545
3143.72	41.5027
3143.12	33.1972
3142.52	58.0862
3141.91	41.4838
3141.31	45.6253
3140.71	33.177
3140.1	53.9044
3139.5	33.1669
3138.9	45.5976
3138.29	33.1569
3137.69	66.3036
3137.09	53.8635
3136.48	57.9981
3135.88	57.9892
3135.28	45.5561
3134.67	74.535
3134.07	66.2432
3133.47	24.8374
3132.86	57.9452
3132.26	53.7981
3131.65	33.1015
3131.05	49.6447
3130.45	49.6371
3129.84	41.358
3129.24	57.8924
3128.63	70.2872
3128.03	37.2052
3127.42	49.5994
3126.82	82.6532
3126.21	45.4523
3125.61	70.2338
3125	37.177
3124.4	61.9522
3123.79	49.5542
3123.19	82.5778
3122.58	61.9239
3121.97	70.1698
3121.37	66.0321
3120.76	24.7583
3120.16	66.012
3119.55	16.5005
3118.94	32.996
3118.34	24.7432
3117.73	53.6022
3117.13	45.3488
3116.52	65.9518
3115.91	57.6991
3115.31	61.811
3114.7	70.0418
3114.09	57.6727
3113.48	28.832
3112.88	45.3005
3112.27	49.4112
3111.66	37.0528
3111.06	57.6289
3110.45	61.7358
3109.84	61.7264
3109.23	49.3736
3108.63	49.3661
3108.02	78.1511
3107.41	24.6755
3106.8	65.7914
3106.19	28.7794
3105.59	73.9928
3104.98	41.1008
3104.37	65.7513
3103.76	45.1972
3103.15	69.8395
3102.54	65.7213
3101.93	36.9626
3101.33	45.1696
3100.72	57.4799
3100.11	57.4711
3099.5	61.5668
3098.89	53.3498
3098.28	57.4449
3097.67	73.8464
3097.06	45.1215
3096.45	32.8106
3095.84	53.3092
3095.23	36.9007
3094.62	61.4918
3094.01	61.4824
3093.4	94.2587
3092.79	98.3419
3092.18	61.4543
3091.57	53.2523
3090.96	61.4356
3090.35	98.282
3089.74	57.3224
3089.13	77.7829
3088.52	85.9574
3087.91	65.4814
3087.3	57.2875
3086.69	61.3701
3086.08	102.268
3085.46	94.0721
3084.85	65.4315
3084.24	73.5992
3083.63	94.029
3083.02	77.6643
3082.41	110.348
3081.79	77.6406
3081.18	89.886
3080.57	98.0425
3079.96	93.943
3079.35	110.264
3078.73	102.081
3078.12	130.644
3077.51	102.05
3076.9	77.5459
3076.28	122.422
3075.67	114.243
3075.06	81.5899
3074.45	93.8141
3073.83	77.4868
3073.22	81.5526
3072.61	69.3091
3071.99	97.8332
3071.38	65.2122
3070.77	93.7282
3070.15	65.1923
3069.54	57.0345
3068.93	77.3922
3068.31	89.5983
3067.7	73.2965
3067.08	89.5709
3066.47	56.991
3065.86	69.1928
3065.24	65.1127
3064.63	93.5851
3064.01	69.1611
3063.4	69.1505
3062.78	93.5423
3062.17	65.0629
3061.55	69.1188
3060.94	77.2386
3060.32	48.7748
3059.71	97.5348
3059.09	85.3299
3058.48	73.1287
3057.86	56.8692
3057.25	77.1678
3056.63	93.3994
3056.02	60.9034
3055.4	101.49
3054.78	77.1207
3054.17	97.4007
3053.55	64.9239
3052.94	60.8568
3052.32	56.791
3051.7	68.95
3051.09	48.6631
3050.47	64.8742
3049.85	72.9724
3049.24	60.801
3048.62	68.8973
3048	76.991
3047.39	56.7216
3046.77	56.7129
3046.15	56.7042
3045.53	52.6459
3044.92	80.9812
3044.3	76.9204
3043.68	44.5261
3043.06	89.0385
3042.45	56.6522
3041.83	40.4597
3041.21	72.8162
3040.59	76.8498
3039.97	72.7939
3039.35	80.8698
3038.74	32.343
3038.12	72.7605
3037.5	60.6245
3036.88	84.8613
3036.26	88.8887
3035.64	80.7955
3035.02	72.7048
3034.41	84.8093
3033.79	72.6826
3033.17	100.933
3032.55	64.587
3031.93	72.6492
3031.31	68.6026
3030.69	104.906
3030.07	80.6842
3029.45	64.5375
3028.83	44.3627
3028.21	96.7766
3027.59	76.6031
3026.97	96.747
3026.35	76.5796
3025.73	80.5978
3025.11	52.3805
3024.49	88.6304
3023.87	112.785
3023.25	76.521
3022.63	72.4824
3022	80.5237
3021.38	56.3579
3020.76	52.3244
3020.14	120.73
3019.52	72.4269
3018.9	96.5544
3018.28	108.607
3017.66	72.3936
3017.03	84.4462
3016.41	96.4952
3015.79	92.4604
3015.17	92.4462
3014.55	64.3005
3013.92	76.3452
3013.3	96.4212
3012.68	76.3218
3012.06	88.359
3011.43	76.2983
3010.81	92.347
3010.19	104.376
3009.57	100.346
3008.94	56.1853
3008.32	88.2777
3007.7	52.1561
3007.07	116.33
3006.45	84.2263
3005.83	136.345
3005.2	104.248
3004.58	96.2143
3003.96	104.216
3003.33	104.2
3002.71	108.191
3002.08	124.201
3001.46	128.187
3000.84	76.0995
3000.21	88.1017
2999.59	100.1
2998.96	76.0645
2998.34	120.083
2997.71	92.0498
2997.09	76.0295
2996.46	80.0187
2995.84	88.0071
2995.21	95.993
2994.59	75.9828
2993.96	75.9711
2993.34	83.9552
2992.71	127.912
2992.09	59.9495
2991.46	71.9284
2990.84	95.8898
2990.21	95.8751
2989.58	71.8953
2988.96	103.833
2988.33	75.8661
2987.71	115.778
2987.08	127.735
2986.45	87.8045
2985.83	99.7625
2985.2	123.686
2984.57	119.678
2983.95	115.671
2983.32	103.689
2982.69	79.7487
2982.07	107.644
2981.44	103.641
2980.81	103.625
2980.18	127.519
2979.56	103.594
2978.93	83.6589
2978.3	95.5954
2977.67	131.423
2977.05	103.53
2976.42	99.5326
2975.79	79.6139
2975.16	111.442
2974.53	79.5894
2973.91	123.345
2973.28	127.304
2972.65	111.374
2972.02	147.15
2971.39	147.127
2970.76	147.104
2970.13	123.231
2969.5	139.11
2968.88	170.88
2968.25	170.854
2967.62	123.155
2966.99	111.22
2966.36	115.174
2965.73	135.011
2965.1	166.752
2964.47	150.848
2963.84	127.01
2963.21	162.707
2962.58	123.003
2961.95	142.82
2961.32	174.531
2960.69	142.776
2960.06	158.616
2959.43	170.486
2958.8	142.711
2958.17	170.434
2957.53	130.778
2956.9	166.419
2956.27	142.623
2955.64	158.445
2955.01	138.618
2954.38	134.637
2953.75	114.82
2953.12	158.348
2952.48	138.533
2951.85	158.299
2951.22	150.361
2950.59	150.337
2949.96	126.58
2949.33	185.886
2948.69	130.496
2948.06	138.383
2947.43	122.549
2946.8	122.53
2946.16	154.127
2945.53	86.9302
2944.9	126.424
2944.26	142.205
2943.63	122.436
2943	118.468
2942.37	110.553
2941.73	102.641
2941.1	118.413
2940.47	82.8765
2939.83	94.7014
2939.2	114.413
2938.56	126.23
2937.93	130.154
2937.3	74.9256
2936.66	86.7426
2936.03	114.325
2935.39	106.424
2934.76	130.054
2934.13	86.6891
2933.49	94.5553
2932.86	98.4799
2932.22	110.28
2931.59	90.5736
2930.95	74.8101
2930.32	102.356
2929.68	94.4678
2929.05	82.6465
2928.41	98.3736
2927.78	94.424
2927.14	74.7408
2926.5	106.194
2925.87	117.975
2925.23	145.48
2924.6	102.214
2923.96	106.129
2923.32	113.972
2922.69	110.025
2922.05	102.151
2921.42	106.063
2920.78	117.83
2920.14	106.03
2919.51	129.573
2918.87	109.923
2918.23	98.1307
2917.6	102.04
2916.96	90.2523
2916.32	98.0852
2915.68	121.607
2915.05	129.432
2914.41	141.177
2913.77	86.2616
2913.13	129.372
2912.5	156.791
2911.86	90.1408
2911.22	101.883
2910.58	121.457
2909.94	121.438
2909.31	97.9185
2908.67	101.82
2908.03	140.959
2907.39	144.852
2906.75	129.173
2906.11	133.066
2905.47	93.9146
2904.83	97.8126
2904.2	97.7974
2903.56	132.984
2902.92	109.499
2902.28	129.033
2901.64	105.556
2901	109.448
2900.36	121.156
2899.72	128.953
2899.08	113.305
2898.44	125.007
2897.8	109.364
2897.16	152.305
2896.52	136.662
2895.88	89.7928
2895.24	117.103
2894.6	171.724
2893.96	140.48
2893.32	120.95
2892.67	85.8223
2892.03	101.411
2891.39	128.694
2890.75	105.278
2890.11	101.364
2889.47	140.328
2888.83	151.998
2888.19	97.4197
2887.54	109.093
2886.9	159.719
2886.26	167.484
2885.62	144.092
2884.98	109.026
2884.33	155.727
2883.69	89.5289
2883.05	116.759
2882.41	85.6098
2881.77	116.723
2881.12	120.595
2880.48	143.913
2879.84	140.002
2879.19	136.092
2878.55	120.52
2877.91	155.485
2877.26	143.802
2876.62	112.692
2875.98	139.872
2875.33	151.504
2874.69	93.219
2874.05	124.273
2873.4	147.551
2872.76	116.47
2872.11	128.097
2871.47	139.72
2870.83	124.176
2870.18	108.637
2869.54	116.379
2868.89	120.24
2868.25	127.977
2867.6	112.448
2866.96	120.184
2866.31	124.042
2865.67	139.525
2865.02	139.503
2864.38	151.105
2863.73	116.217
2863.09	131.692
2862.44	131.671
2861.8	135.523
2861.15	147.117
2860.5	147.094
2859.86	135.46
2859.21	116.091
2858.57	108.334
2857.92	150.871
2857.27	108.301
2856.63	131.488
2855.98	158.534
2855.33	123.715
2854.69	143.023
2854.04	112.082
2853.39	142.978
2852.75	142.956
2852.1	119.755
2851.45	127.462
2850.81	131.304
2850.16	146.729
2849.51	111.96
2848.86	100.362
2848.21	123.503
2847.57	162.073
2846.92	135.04
2846.27	131.161
2845.62	123.427
2844.97	142.69
2844.33	138.812
2843.68	115.658
2843.03	111.786
2842.38	134.893
2841.73	142.579
2841.08	130.998
2840.43	146.387
2839.78	130.957
2839.14	111.682
2838.49	134.767
2837.84	123.197
2837.19	153.972
2836.54	127.007
2835.89	142.38
2835.24	134.662
2834.59	134.641
2833.94	123.082
2833.29	130.754
2832.64	107.663
2831.99	138.402
2831.34	123.005
2830.69	149.889
2830.04	126.809
2829.39	130.632
2828.74	149.819
2828.08	149.796
2827.43	153.613
2826.78	153.589
2826.13	153.565
2825.48	126.671
2824.83	145.841
2824.18	118.957
2823.53	141.959
2822.87	153.445
2822.22	168.764
2821.57	161.068
2820.92	145.705
2820.27	138.015
2819.61	134.16
2818.96	137.972
2818.31	145.614
2817.66	141.76
2817	157.061
2816.35	145.546
2815.7	134.035
2815.05	164.646
2814.39	141.65
2813.74	156.939
2813.09	122.47
2812.43	126.277
2811.78	160.692
2811.13	137.714
2810.47	133.868
2809.82	126.199
2809.16	149.121
2808.51	145.274
2807.86	137.607
2807.2	156.695
2806.55	152.849
2805.89	160.466
2805.24	145.161
2804.58	129.861
2803.93	152.754
2803.28	148.911
2802.62	167.976
2801.97	152.682
2801.31	160.291
2800.66	148.819
2800	144.98
2799.34	164.031
2798.69	156.377
2798.03	129.658
2797.38	129.638
2796.72	156.304
2796.07	148.656
2795.41	171.5
2794.75	160.041
2794.1	129.537
2793.44	133.326
2792.79	144.731
2792.13	175.174
2791.47	159.916
2790.82	152.278
2790.16	125.609
2789.5	156.036
2788.84	152.206
2788.19	197.837
2787.53	140.747
2786.87	155.938
2786.22	197.745
2785.56	171.098
2784.9	159.667
2784.24	178.647
2783.59	133.014
2782.93	151.992
2782.27	163.366
2781.61	170.938
2780.95	167.113
2780.29	155.695
2779.64	159.467
2778.98	163.239
2778.32	159.418
2777.66	148.008
2777	163.162
2776.34	178.312
2775.68	151.731
2775.02	144.122
2774.36	163.06
2773.71	181.992
2773.05	170.591
2772.39	155.403
2771.73	155.379
2771.07	166.722
2770.41	185.639
2769.75	174.246
2769.09	143.92
2768.43	196.912
2767.77	208.24
2767.11	151.423
2766.45	174.11
2765.79	181.651
2765.12	155.136
2764.46	162.678
2763.8	166.435
2763.14	200.448
2762.48	143.695
2761.82	166.357
2761.16	181.452
2760.5	147.407
2759.83	219.186
2759.17	185.146
2758.51	170.005
2757.85	173.756
2757.19	169.952
2756.53	166.149
2755.86	196.327
2755.2	166.097
2754.54	215.138
2753.88	169.819
2753.21	158.473
2752.55	169.766
2751.89	188.599
2751.23	150.856
2750.56	154.603
2749.9	173.43
2749.24	199.79
2748.57	188.451
2747.91	169.58
2747.25	162.017
2746.58	177.061
2745.92	177.033
2745.25	180.772
2744.59	195.805
2743.93	180.715
2743.26	207.037
2742.6	184.422
2741.93	218.261
2741.27	173.077
2740.61	169.288
2739.94	206.875
2739.28	203.082
2738.61	157.928
2737.95	206.778
2737.28	195.468
2736.62	154.095
2735.95	199.165
2735.29	202.891
2734.62	187.832
2733.95	165.266
2733.29	199.04
2732.62	165.215
2731.96	157.68
2731.29	157.655
2730.62	191.409
2729.96	195.131
2729.29	172.589
2728.63	206.324
2727.96	195.039
2727.29	195.009
2726.63	191.229
2725.96	176.203
2725.29	187.42
2724.62	228.617
2723.96	149.889
2723.29	183.585
2722.62	172.318
2721.96	149.819
2721.29	224.693
2720.62	164.749
2719.95	190.929
2719.28	224.587
2718.62	232.036
2717.95	190.839
2717.28	198.291
2716.61	190.779
2715.94	201.969
2715.27	220.636
2714.61	224.34
2713.94	216.828
2713.27	228.007
2712.6	190.599
2711.93	224.199
2711.26	171.859
2710.59	183.038
2709.92	220.359
2709.25	179.247
2708.58	164.284
2707.91	179.19
2707.24	231.418
2706.57	242.577
2705.9	208.957
2705.23	212.655
2704.56	205.161
2703.89	246.154
2703.22	220.012
2702.55	205.064
2701.88	242.31
2701.21	178.909
2700.54	223.601
2699.87	227.292
2699.2	204.903
2698.53	197.421
2697.86	219.736
2697.19	175.016
2696.51	186.158
2695.84	167.516
2695.17	174.934
2694.5	208.399
2693.83	200.924
2693.15	223.214
2692.48	204.581
2691.81	204.549
2691.14	185.924
2690.47	208.202
2689.79	185.866
2689.12	215.57
2688.45	234.117
2687.77	200.64
2687.1	182.034
2686.43	208.006
2685.76	200.545
2685.08	185.661
2684.41	207.908
2683.74	204.163
2683.06	211.554
2682.39	230.075
2681.71	222.618
2681.04	204.034
2680.37	244.802
2679.69	229.93
2679.02	233.601
2678.34	240.979
2677.67	237.235
2676.99	185.31
2676.32	237.16
2675.65	240.828
2674.97	192.632
2674.3	166.674
2673.62	207.384
2672.95	203.649
2672.27	233.234
2671.59	222.092
2670.92	203.553
2670.24	222.022
2669.57	221.987
2668.89	170.163
2668.22	218.219
2667.54	203.392
2666.86	218.15
2666.19	243.994
2665.51	221.777
2664.83	236.525
2664.16	195.842
2663.48	236.451
2662.8	247.495
2662.13	217.909
2661.45	221.568
2660.77	221.533
2660.1	236.264
2659.42	188.243
2658.74	199.285
2658.06	214.013
2657.39	225.047
2656.71	225.012
2656.03	265.546
2655.35	213.878
2654.68	235.966
2654	232.243
2653.32	221.149
2652.64	224.799
2651.96	221.079
2651.28	246.832
2650.6	239.426
2649.93	224.657
2649.25	220.939
2648.57	231.95
2647.89	228.232
2647.21	220.835
2646.53	250.24
2645.85	242.841
2645.17	239.124
2644.49	217.017
2643.81	231.693
2643.13	231.657
2642.45	238.973
2641.77	264.667
2641.09	268.3
2640.41	271.933
2639.73	231.474
2639.05	246.132
2638.37	279.15
2637.69	224.019
2637.01	231.328
2636.33	231.291
2635.65	245.937
2634.96	271.589
2634.28	249.529
2633.6	238.483
2632.92	227.44
2632.24	242.075
2631.56	234.702
2630.88	219.999
2630.19	256.625
2629.51	241.922
2628.83	234.554
2628.15	223.524
2627.46	234.48
2626.78	249.095
2626.1	260.044
2625.42	303.947
2624.73	241.654
2624.05	300.19
2623.37	259.879
2622.69	226.901
2622	278.093
2621.32	248.78
2620.64	292.637
2619.95	234.072
2619.27	255.976
2618.58	263.248
2617.9	233.961
2617.22	281.44
2616.53	233.887
2615.85	263.081
2615.16	288.613
2614.48	288.567
2613.79	252
2613.11	259.263
2612.43	255.571
2611.74	270.132
2611.06	288.339
2610.37	295.592
2609.69	255.409
2609	302.794
2608.31	229.795
2607.63	284.464
2606.94	280.772
2606.26	229.686
2605.57	298.909
2604.89	247.837
2604.2	276.95
2603.51	262.332
2602.83	269.577
2602.14	265.892
2601.45	284.058
2600.77	251.242
2600.08	247.562
2599.39	302.123
2598.71	218.368
2598.02	269.278
2597.33	283.788
2596.65	265.555
2595.96	280.061
2595.27	247.287
2594.58	294.516
2593.9	254.48
2593.21	268.979
2592.52	298.011
2591.83	265.26
2591.14	287.017
2590.46	276.073
2589.77	283.294
2589.08	294.143
2588.39	265.05
2587.7	279.529
2587.01	279.484
2586.32	272.182
2585.64	261.253
2584.95	268.467
2584.26	293.816
2583.57	297.397
2582.88	246.582
2582.19	315.43
2581.5	246.504
2580.81	268.212
2580.12	264.545
2579.43	275.373
2578.74	271.707
2578.05	271.664
2577.36	239.026
2576.67	300.546
2575.98	271.534
2575.29	260.632
2574.6	246.113
2573.91	271.405
2573.22	231.562
2572.52	303.877
2571.83	282.127
2571.14	307.397
2570.45	300.116
2569.76	300.069
2569.07	285.562
2568.38	249.376
2567.68	278.244
2566.99	303.491
2566.3	267.319
2565.61	303.395
2564.92	299.735
2564.22	270.802
2563.53	299.64
2562.84	267.106
2562.14	270.673
2561.45	252.588
2560.76	321.096
2560.07	299.402
2559.37	310.174
2558.68	328.155
2557.99	284.837
2557.29	292.002
2556.6	277.538
2555.91	302.72
2555.21	277.449
2554.52	255.789
2553.82	288.167
2553.13	295.324
2552.44	273.672
2551.74	284.429
2551.05	295.184
2550.35	313.133
2549.66	302.287
2548.96	302.239
2548.27	320.178
2547.57	273.367
2546.88	309.287
2546.18	305.642
2545.49	266.046
2544.79	309.14
2544.1	323.467
2543.4	312.635
2542.7	308.992
2542.01	247.873
2541.31	348.403
2540.62	316.027
2539.92	323.158
2539.22	290.796
2538.53	323.055
2537.83	287.114
2537.13	283.48
2536.44	297.786
2535.74	322.849
2535.04	308.451
2534.35	279.713
2533.65	265.327
2532.95	308.304
2532.25	315.423
2531.56	247.281
2530.86	340.405
2530.16	326.02
2529.46	304.476
2528.76	325.917
2528.07	300.798
2527.37	332.973
2526.67	279.223
2525.97	286.337
2525.27	300.606
2524.57	322.027
2523.88	304.088
2523.18	329.078
2522.48	329.026
2521.78	303.943
2521.08	339.646
2520.38	278.823
2519.68	289.501
2518.98	300.175
2518.28	332.284
2517.58	328.658
2516.88	360.752
2516.18	321.411
2515.48	342.784
2514.78	364.15
2514.08	289.131
2513.38	331.913
2512.68	303.313
2511.98	310.4
2511.28	317.485
2510.58	342.401
2509.88	360.177
2509.17	324.464
2508.47	374.322
2507.77	331.489
2507.07	342.128
2506.37	320.694
2505.67	331.33
2504.97	349.088
2504.26	320.54
2503.56	334.733
2502.86	331.119
2502.16	334.626
2501.45	338.132
2500.75	334.519
2500.05	306
2499.35	309.509
2498.64	320.131
2497.94	316.523
2497.24	312.917
2496.53	330.643
2495.83	355.473
2495.13	355.417
2494.42	319.824
2493.72	348.197
2493.02	358.799
2492.31	376.501
2491.61	316.068
2490.9	337.322
2490.2	358.569
2489.5	323.016
2488.79	344.258
2488.09	322.912
2487.38	351.244
2486.68	319.262
2485.97	319.211
2485.27	280.151
2484.56	315.563
2483.86	326.148
2483.15	347.363
2482.45	361.483
2481.74	375.599
2481.04	350.739
2480.33	347.14
2479.62	322.293
2478.92	325.783
2478.21	364.677
2477.51	318.598
2476.8	318.547
2476.09	336.191
2475.39	300.754
2474.68	336.083
2473.97	353.715
2473.27	314.756
2472.56	378.354
2471.85	328.797
2471.14	346.419
2470.44	335.76
2469.73	310.97
2469.02	409.85
2468.31	367.393
2467.61	384.994
2466.9	321.366
2466.19	370.747
2465.48	363.627
2464.77	335.33
2464.07	363.51
2463.36	338.752
2462.65	352.81
2461.94	366.863
2461.23	349.17
2460.52	335.008
2459.81	384.316
2459.1	352.527
2458.4	352.471
2457.69	366.511
2456.98	373.499
2456.27	352.301
2455.56	352.245
2454.85	341.623
2454.14	359.174
2453.43	369.679
2452.72	330.898
2452.01	376.6
2451.3	334.311
2450.59	358.886
2449.88	327.168
2449.16	369.323
2448.45	330.579
2447.74	351.624
2447.03	411.334
2446.32	425.328
2445.61	383.086
2444.9	340.856
2444.19	351.342
2443.47	375.875
2442.76	375.815
2442.05	365.22
2441.34	372.183
2440.63	351.06
2439.91	358.024
2439.2	350.947
2438.49	375.453
2437.78	354.343
2437.06	431.457
2436.35	368.258
2435.64	392.746
2434.93	392.682
2434.21	350.553
2433.5	392.556
2432.79	392.493
2432.07	378.415
2431.36	374.851
2430.64	381.796
2429.93	395.743
2429.22	395.68
2428.5	409.62
2427.79	392.052
2427.07	416.489
2426.36	384.928
2425.65	398.861
2424.93	391.8
2424.22	360.258
2423.5	398.668
2422.79	423.08
2422.07	395.044
2421.36	405.467
2420.64	394.917
2419.92	331.957
2419.21	366.841
2418.49	366.782
2417.78	474.993
2417.06	426.028
2416.35	401.519
2415.63	404.946
2414.91	404.881
2414.2	376.897
2413.48	366.369
2412.76	453.527
2412.05	408.108
2411.33	401.068
2410.61	407.977
2409.9	376.534
2409.18	432.247
2408.46	446.118
2407.74	383.321
2407.03	383.26
2406.31	390.165
2405.59	431.899
2404.87	452.725
2404.16	376.049
2403.44	379.47
2402.72	403.775
2402	382.828
2401.28	393.205
2400.56	431.413
2399.85	417.429
2399.13	403.45
2398.41	379.042
2397.69	406.797
2396.97	431.065
2396.25	430.996
2395.53	441.352
2394.81	423.908
2394.09	402.995
2393.37	382.089
2392.65	416.757
2391.93	409.745
2391.21	447.869
2390.49	392.256
2389.77	423.43
2389.05	399.07
2388.33	392.067
2387.61	419.756
2386.89	419.688
2386.17	364.134
2385.45	398.749
2384.73	405.618
2384	405.553
2383.28	419.35
2382.56	353.445
2381.84	398.428
2381.12	377.579
2380.4	374.055
2379.67	453.641
2378.95	477.805
2378.23	415.415
2377.51	401.503
2376.79	456.809
2376.06	387.533
2375.34	435.905
2374.62	449.67
2373.9	418.472
2373.17	470.273
2372.45	445.995
2371.73	456.294
2371	445.851
2370.28	414.679
2369.56	431.887
2368.83	393.817
2368.11	417.932
2367.38	400.597
2366.66	448.873
2365.94	448.8
2365.21	441.824
2364.49	445.204
2363.76	438.231
2363.04	483.011
2362.31	438.089
2361.59	424.223
2360.86	424.154
2360.14	413.742
2359.41	441.254
2358.69	417.055
2357.96	434.219
2357.24	503.061
2356.51	434.078
2355.79	447.786
2355.06	368.503
2354.33	468.302
2353.61	430.355
2352.88	464.708
2352.15	481.842
2351.43	433.588
2350.7	464.483
2349.98	485.048
2349.25	529.683
2348.52	426.429
2347.79	460.744
2347.07	474.421
2346.34	467.47
2345.61	443.337
2344.88	453.574
2344.16	439.758
2343.43	460.297
2342.7	508.306
2341.97	446.413
2341.25	456.641
2340.52	504.627
2339.79	490.816
2339.06	490.736
2338.33	459.776
2337.6	490.578
2336.87	449.337
2336.14	466.412
2335.42	462.908
2334.69	428.549
2333.96	483.325
2333.23	469.538
2332.5	466.035
2331.77	527.631
2331.04	469.31
2330.31	493.209
2329.58	486.28
2328.85	475.93
2328.12	475.853
2327.39	489.467
2326.66	503.077
2325.93	468.778
2325.2	496.071
2324.47	506.253
2323.73	509.591
2323	447.957
2322.27	454.722
2321.54	485.414
2320.81	481.918
2320.08	461.336
2319.35	498.846
2318.61	532.927
2317.88	485.021
2317.15	488.358
2316.42	519.009
2315.69	484.785
2314.95	484.707
2314.22	488.041
2313.49	477.725
2312.76	522.001
2312.02	460.514
2311.29	508.189
2310.56	480.825
2309.82	467.109
2309.09	470.442
2308.36	497.634
2307.62	504.369
2306.89	470.214
2306.16	470.137
2305.42	514.342
2304.69	476.796
2303.95	538.011
2303.22	497.069
2302.48	503.796
2301.75	558.17
2301.02	493.424
2300.28	537.575
2299.55	435.433
2298.81	476.177
2298.08	595.125
2297.34	550.826
2296.6	503.142
2295.87	533.652
2295.13	533.566
2294.4	475.714
2293.66	509.611
2292.93	506.131
2292.19	461.897
2291.45	512.758
2290.72	488.908
2289.98	515.986
2289.24	512.508
2288.51	481.883
2287.77	519.128
2287.03	495.296
2286.3	539.31
2285.56	512.092
2284.82	528.963
2284.08	508.535
2283.35	481.335
2282.61	545.651
2281.87	569.282
2281.13	545.473
2280.4	491.185
2279.66	569.004
2278.92	524.889
2278.18	514.646
2277.44	558.571
2276.7	500.94
2275.97	497.474
2275.23	514.311
2274.49	554.825
2273.75	527.674
2273.01	524.207
2272.27	544.41
2271.53	524.036
2270.79	557.754
2270.05	611.74
2269.31	550.814
2268.57	547.346
2267.83	554.013
2267.09	564.056
2266.35	540.325
2265.61	577.378
2264.87	557.028
2264.13	516.433
2263.39	516.349
2262.65	580.376
2261.91	526.302
2261.17	576.814
2260.42	492.404
2259.68	529.417
2258.94	616.991
2258.2	529.245
2257.46	552.752
2256.72	532.442
2255.97	535.725
2255.23	528.9
2254.49	515.341
2253.75	585.979
2253	595.985
2252.26	538.655
2251.52	535.202
2250.78	548.576
2250.03	585.501
2249.29	528.211
2248.55	514.67
2247.8	568.399
2247.06	554.855
2246.32	591.749
2245.57	618.546
2244.83	568.028
2244.09	514.167
2243.34	571.203
2242.6	550.953
2241.85	560.94
2241.11	634.733
2240.36	590.978
2239.62	614.382
2238.88	563.931
2238.13	530.277
2237.39	563.747
2236.64	600.561
2235.89	613.881
2235.15	536.639
2234.4	539.905
2233.66	556.582
2232.91	583.31
2232.17	606.677
2231.42	552.958
2230.67	593.076
2229.93	556.128
2229.18	549.338
2228.44	599.484
2227.69	649.614
2226.94	579.2
2226.2	619.275
2225.45	619.174
2224.7	565.531
2223.95	548.71
2223.21	572.037
2222.46	568.599
2221.71	605.292
2220.96	611.88
2220.22	581.693
2219.47	561.543
2218.72	554.767
2217.97	564.701
2217.22	591.335
2216.48	587.898
2215.73	607.841
2214.98	627.777
2214.23	597.626
2213.48	620.896
2212.73	600.769
2211.98	600.671
2211.23	600.572
2210.48	627.162
2209.73	637.066
2208.98	596.943
2208.23	630.189
2207.48	610.083
2206.73	626.649
2205.98	629.88
2205.23	593.123
2204.48	563.042
2203.73	616.246
2202.98	606.154
2202.23	582.745
2201.48	609.285
2200.73	599.199
2199.98	549.176
2199.23	622.297
2198.48	632.177
2197.72	645.381
2196.97	528.86
2196.22	611.913
2195.47	635.089
2194.72	618.362
2193.97	634.881
2193.21	654.718
2192.46	624.704
2191.71	617.957
2190.96	631.144
2190.2	657.61
2189.45	587.768
2188.7	657.395
2187.94	630.73
2187.19	587.479
2186.44	637.161
2185.68	593.922
2184.93	633.635
2184.18	623.58
2183.42	646.693
2182.67	596.849
2181.91	686.264
2181.16	619.857
2180.41	629.698
2179.65	656.104
2178.9	699.067
2178.14	626.076
2177.39	619.349
2176.63	639.117
2175.88	675.432
2175.12	652.149
2174.37	599.084
2173.61	618.842
2172.86	615.432
2172.1	641.796
2171.34	648.307
2170.59	654.815
2169.83	638.174
2169.08	634.763
2168.32	631.354
2167.56	641.165
2166.81	637.756
2166.05	670.69
2165.29	647.456
2164.54	630.836
2163.78	653.849
2163.02	693.362
2162.27	630.526
2161.51	627.122
2160.75	643.519
2159.99	590.621
2159.23	676.298
2158.48	623.412
2157.72	649.693
2156.96	745.21
2156.2	656.073
2155.44	636.188
2154.69	652.562
2153.93	626.093
2153.17	665.527
2152.41	632.476
2151.65	638.959
2150.89	642.147
2150.13	635.457
2149.37	691.316
2148.61	599.042
2147.85	648.307
2147.09	661.362
2146.33	684.282
2145.57	687.459
2144.81	651.17
2144.05	614.893
2143.29	719.997
2142.53	696.869
2141.77	696.754
2141.01	716.356
2140.25	726.095
2139.49	702.981
2138.73	693.012
2137.97	669.911
2137.2	699.351
2136.44	695.953
2135.68	695.838
2134.92	682.597
2134.16	728.421
2133.4	679.092
2132.63	734.742
2131.87	698.546
2131.11	741.058
2130.35	681.924
2129.58	734.259
2128.82	642.371
2128.06	661.926
2127.29	714.238
2126.53	651.881
2125.77	704.178
2125	713.886
2124.24	658.108
2123.48	674.367
2122.71	739.718
2121.95	687.236
2121.19	674.034
2120.42	765.525
2119.66	709.793
2118.89	699.865
2118.13	729.178
2117.36	742.135
2116.6	722.401
2115.83	751.696
2115.07	728.698
2114.3	725.311
2113.54	810.124
2112.77	738.136
2112.01	675.969
2111.24	757.483
2110.48	741.036
2109.71	711.539
2108.94	744.055
2108.18	786.35
2107.41	779.696
2106.64	779.567
2105.88	730.52
2105.11	668.446
2104.34	727.019
2103.58	723.64
2102.81	700.707
2102.04	762.504
2101.28	781.926
2100.51	732.935
2099.74	778.411
2098.97	687.103
2098.21	735.828
2097.44	706.409
2096.67	784.408
2095.9	709.43
2095.13	793.91
2094.36	777.513
2093.6	748.111
2092.83	725.223
2092.06	692.587
2091.29	728.234
2090.52	744.367
2089.75	721.494
2088.98	724.625
2088.21	815.474
2087.44	760.117
2086.67	734.009
2085.9	779.35
2085.13	753.248
2084.36	707.676
2083.59	798.438
2082.82	700.952
2082.05	743.016
2081.28	765.602
2080.51	801.155
2079.74	781.564
2078.97	778.193
2078.2	752.129
2077.43	787.66
2076.65	771.326
2075.88	780.919
2075.11	745.152
2074.34	806.575
2073.57	790.248
2072.8	816.023
2072.02	828.839
2071.25	767.197
2070.48	721.758
2069.71	792.832
2068.93	702.106
2068.16	805.509
2067.39	831.252
2066.61	769.67
2065.84	801.877
2065.07	817.908
2064.29	778.985
2063.52	756.234
2062.75	778.728
2061.97	775.368
2061.2	814.002
2060.43	810.638
2059.65	816.962
2058.88	826.512
2058.1	787.639
2057.33	761.689
2056.55	822.875
2055.78	832.418
2055	790.344
2054.23	793.439
2053.45	809.431
2052.68	780.279
2051.9	757.583
2051.13	825.146
2050.35	863.681
2049.57	840.983
2048.8	837.622
2048.02	802.052
2047.25	782.596
2046.47	788.906
2045.69	853.165
2044.92	798.302
2044.14	804.606
2043.36	781.948
2042.59	830.079
2041.81	823.508
2041.03	836.236
2040.25	816.803
2039.48	813.453
2038.7	816.533
2037.92	838.896
2037.14	758.417
2036.37	774.357
2035.59	854.542
2034.81	819.068
2034.03	870.317
2033.25	841.274
2032.47	850.765
2031.69	735.068
2030.92	834.437
2030.14	879.222
2029.36	818.118
2028.58	827.606
2027.8	801.811
2027.02	830.538
2026.24	750.246
2025.46	868.731
2024.68	839.74
2023.9	906.897
2023.12	900.339
2022.34	820.101
2021.56	813.559
2020.78	855.056
2020	794.078
2019.21	928.405
2018.43	825.823
2017.65	809.684
2016.87	799.951
2016.09	851.006
2015.31	847.666
2014.53	850.724
2013.74	850.582
2012.96	818.47
2012.18	885.463
2011.4	808.61
2010.62	853.213
2009.83	849.876
2009.05	856.124
2008.27	859.176
2007.49	894.161
2006.7	810.997
2005.92	881.095
2005.14	769.234
2004.35	852.08
2003.57	877.465
2002.79	886.89
2002	858.035
2001.22	899.352
2000.43	899.202
1999.65	886.3
1998.87	930.78
1998.08	917.877
1997.3	882.672
1996.51	879.339
1995.73	882.379
1994.94	942.746
1994.16	840.688
1993.37	840.548
1992.59	840.408
1991.8	881.645
1991.02	868.769
1990.23	890.897
1989.44	884.387
1988.66	846.071
1987.87	909.534
1987.09	858.508
1986.3	931.485
1985.51	883.651
1984.73	896.217
1983.94	896.067
1983.15	911.803
1982.37	984.711
1981.58	879.74
1980.79	882.769
1980	888.972
1979.22	955.486
1978.43	936.284
1977.64	929.781
1976.85	920.108
1976.06	900.922
1975.28	938.832
1974.49	891.108
1973.7	938.52
1972.91	881.301
1972.12	897.002
1971.33	906.36
1970.54	950.569
1969.76	950.41
1968.97	950.252
1968.18	931.092
1967.39	949.935
1966.6	924.45
1965.81	889.476
1965.02	1022.25
1964.23	873.358
1963.44	936.489
1962.65	923.68
1961.86	933.014
1961.07	926.534
1960.28	939.026
1959.48	869.324
1958.69	1001.93
1957.9	951.197
1957.11	969.996
1956.32	935.085
1955.53	963.356
1954.74	903.193
1953.94	953.562
1953.15	943.932
1952.36	886.959
1951.57	1016.2
1950.78	902.44
1949.98	921.218
1949.19	965.225
1948.4	939.834
1947.61	936.524
1946.81	958.437
1946.02	942.515
1945.23	977.027
1944.43	951.654
1943.64	979.851
1942.85	882.034
1942.05	998.422
1941.26	976.212
1940.46	941.415
1939.67	975.886
1938.88	988.313
1938.08	1000.74
1937.29	1010.01
1936.49	902.878
1935.7	981.362
1934.9	993.777
1934.11	1009.33
1933.31	1009.16
1932.52	999.566
1931.72	983.685
1930.93	886.111
1930.13	1036.77
1929.33	1027.17
1928.54	948.481
1927.74	982.864
1926.95	1029.79
1926.15	1004.51
1925.35	910.184
1924.56	1004.17
1923.76	1035.38
1922.96	1000.7
1922.17	966.032
1921.37	1019.18
1920.57	1028.42
1919.77	934.198
1918.98	987.326
1918.18	993.429
1917.38	993.263
1916.58	999.362
1915.78	1049.31
1914.99	908.207
1914.19	1039.57
1913.39	1004.95
1912.59	989.136
1911.79	1023.4
1910.99	982.546
1910.19	998.025
1909.39	975.961
1908.59	988.308
1907.8	1060.06
1907	1034.88
1906.2	1044.08
1905.4	975.145
1904.6	978.106
1903.8	1081.05
1903	1040.26
1902.2	1055.7
1901.39	1014.93
1900.59	1011.63
1899.79	1005.22
1898.99	1058.11
1898.19	995.521
1897.39	957.912
1896.59	1073.18
1895.79	1041.81
1894.99	1016.68
1894.18	1094.47
1893.38	1056.87
1892.58	1022.41
1891.78	1084.57
1890.98	1037.65
1890.17	1025.01
1889.37	1055.99
1888.57	984.178
1887.76	1027.61
1886.96	1018.1
1886.16	1055.28
1885.36	1058.22
1884.55	1051.81
1883.75	1085.86
1882.94	1107.46
1882.14	1017.07
1881.34	1060.44
1880.53	1097.57
1879.73	1022.78
1878.92	1066.12
1878.12	1084.59
1877.32	1016.05
1876.51	1065.58
1875.71	1074.72
1874.9	1093.18
1874.1	1120.94
1873.29	1043.14
1872.49	1042.96
1871.68	1030.37
1870.87	1033.3
1870.07	1064.15
1869.26	1067.08
1868.46	1085.51
1867.65	1094.63
1866.84	1125.45
1866.04	1094.26
1865.23	1121.97
1864.42	1007.12
1863.62	1106.1
1862.81	1096.62
1862	1065.47
1861.2	1068.38
1860.39	1083.69
1859.58	1095.89
1858.77	1108.08
1857.96	1114.09
1857.16	1219.1
1856.35	1132.27
1855.54	1113.52
1854.73	1153.54
1853.92	1094.6
1853.12	1125.33
1852.31	1054.05
1851.5	1106.41
1850.69	1118.58
1849.88	1038.07
1849.07	1090.4
1848.26	1093.31
1847.45	1108.57
1846.64	1077.5
1845.83	1139.06
1845.02	1080.23
1844.21	1163.36
1843.4	1157
1842.59	1095.11
1841.78	1110.34
1840.97	1141
1840.16	1143.89
1839.35	1143.69
1838.54	1137.34
1837.72	1112.49
1836.91	1143.12
1836.1	1152.17
1835.29	1179.69
1834.48	1120.98
1833.67	1170.06
1832.85	1160.63
1832.04	1209.68
1831.23	1194.09
1830.42	1126.19
1829.6	1178.3
1828.79	1095.05
1827.98	1180.98
1827.17	1150.03
1826.35	1112.95
1825.54	1103.54
1824.73	1032.66
1823.91	1179.99
1823.1	1189.01
1822.29	1118.15
1821.47	1151.75
1820.66	1145.41
1819.84	1163.64
1819.03	1188
1818.21	1095.73
1817.4	1193.74
1816.58	1144.45
1815.77	1128.92
1814.95	1131.79
1814.14	1159.2
1813.32	1232.6
1812.51	1204.8
1811.69	1124.9
1810.88	1136.97
1810.06	1170.48
1809.25	1191.73
1808.43	1317.11
1807.61	1139.27
1806.8	1206.44
1805.98	1160.31
1805.16	1095.83
1804.35	1159.92
1803.53	1126.06
1802.71	1165.65
1801.89	1177.69
1801.08	1192.78
1800.26	1137.54
1799.44	1158.75
1798.62	1198.29
1797.81	1240.88
1796.99	1204
1796.17	1219.07
1795.35	1145.55
1794.53	1218.66
1793.71	1184.86
1792.9	1138.86
1792.08	1202.78
1791.26	1202.57
1790.44	1174.91
1789.62	1275.4
1788.8	1159.25
1787.98	1165.16
1787.16	1216.81
1786.34	1262.34
1785.52	1240.78
1784.7	1124.75
1783.88	1249.51
1783.06	1243.2
1782.24	1215.57
1781.42	1197.09
1780.6	1263.89
1779.78	1303.26
1778.95	1239.11
1778.13	1235.85
1777.31	1159.56
1776.49	1162.4
1775.67	1259.57
1774.85	1171.14
1774.02	1167.9
1773.2	1289.34
1772.38	1252.63
1771.56	1188.58
1770.74	1164.07
1769.91	1215.53
1769.09	1209.25
1768.27	1227.27
1767.44	1233.14
1766.62	1260.26
1765.8	1275.23
1764.97	1281.08
1764.15	1262.66
1763.33	1256.37
1762.5	1304.71
1761.68	1310.55
1760.85	1319.43
1760.03	1216.1
1759.21	1276.53
1758.38	1252.07
1757.56	1285.2
1756.73	1375.9
1755.91	1321.12
1755.08	1342.1
1754.26	1335.82
1753.43	1299.25
1752.6	1308.11
1751.78	1310.92
1750.95	1295.56
1750.13	1367.98
1749.3	1461.55
1748.47	1316.08
1747.65	1382.41
1746.82	1488.03
1745.99	1430.32
1745.17	1502.64
1744.34	1602.14
1743.51	1562.58
1742.69	1659.02
1741.86	1655.71
1741.03	1709.81
1740.2	1712.54
1739.38	1763.59
1738.55	1778.38
1737.72	1886.76
1736.89	1913.6
1736.06	1937.42
1735.23	1909.94
1734.4	2024.25
1733.58	2029.94
1732.75	2074.83
1731.92	2143.83
1731.09	2218.83
1730.26	2266.68
1729.43	2224.11
1728.6	2265.91
1727.77	2289.63
1726.94	2358.52
1726.11	2306.92
1725.28	2294.49
1724.45	2260.98
1723.62	2441.2
1722.79	2389.63
1721.96	2386.21
1721.13	2292.54
1720.3	2316.21
1719.46	2309.81
1718.63	2177.1
1717.8	2215.82
1716.97	2161.33
1716.14	2061.78
1715.31	1989.31
1714.47	1988.98
1713.64	2015.67
1712.81	1910.21
1711.98	1819.8
1711.14	1747.43
1710.31	1693.1
1709.48	1632.78
1708.65	1668.51
1707.81	1596.22
1706.98	1550.95
1706.15	1508.69
1705.31	1448.46
1704.48	1457.21
1703.64	1423.98
1702.81	1339.82
1701.98	1417.51
1701.14	1405.28
1700.31	1390.06
1699.47	1383.83
1698.64	1407.56
1697.8	1338.45
1696.97	1389.12
1696.13	1343.98
1695.3	1397.62
1694.46	1304.62
1693.63	1337.31
1692.79	1426.82
1691.95	1465.46
1691.12	1351.58
1690.28	1339.39
1689.45	1378.02
1688.61	1404.69
1687.77	1395.48
1686.94	1389.27
1686.1	1347.21
1685.26	1329.06
1684.42	1427.38
1683.59	1361.45
1682.75	1403.01
1681.91	1334.13
1681.07	1369.71
1680.24	1360.52
1679.4	1330.46
1678.56	1348.13
1677.72	1356.85
1676.88	1356.62
1676.04	1454.76
1675.21	1356.15
1674.37	1332.08
1673.53	1370.59
1672.69	1370.35
1671.85	1364.16
1671.01	1399.67
1670.17	1366.68
1669.33	1345.6
1668.49	1401.93
1667.65	1360.03
1666.81	1383.6
1665.97	1368.49
1665.13	1424.77
1664.29	1388.84
1663.45	1370.76
1662.61	1403.23
1661.77	1426.77
1660.92	1370.06
1660.08	1319.31
1659.24	1283.43
1658.4	1416.88
1657.56	1360.21
1656.72	1330.29
1655.87	1419.13
1655.03	1392.17
1654.19	1403.8
1653.35	1347.18
1652.5	1370.69
1651.66	1426.81
1650.82	1423.6
1649.98	1364.05
1649.13	1408.29
1648.29	1369.52
1647.45	1401.89
1646.6	1401.65
1645.76	1404.37
1644.91	1371.54
1644.07	1457.2
1643.23	1362.19
1642.38	1382.68
1641.54	1400.21
1640.69	1476.92
1639.85	1379.02
1639	1440.91
1638.16	1387.42
1637.31	1419.72
1636.47	1443.13
1635.62	1448.8
1634.78	1463.33
1633.93	1486.73
1633.08	1483.52
1632.24	1311.89
1631.39	1459.38
1630.55	1470.94
1629.7	1470.69
1628.85	1491.11
1628.01	1564.66
1627.16	1564.39
1626.31	1505.1
1625.46	1575.66
1624.62	1528.19
1623.77	1601.67
1622.92	1642.68
1622.07	1698.42
1621.23	1768.89
1620.38	1806.9
1619.53	1956.9
1618.68	2124.52
1617.83	2418.77
1616.98	2689.35
1616.13	2992.24
1615.29	3233.19
1614.44	3532.93
1613.59	3653.02
1612.74	3725.97
1611.89	3663.53
1611.04	3415.77
1610.19	3259.28
1609.34	2941.09
1608.49	2934.7
1607.64	2563.75
1606.79	2416.33
1605.94	2295.41
1605.09	2203.93
1604.24	2185.92
1603.38	1944.66
1602.53	1912.02
1601.68	1902.89
1600.83	1832.09
1599.98	1761.33
1599.13	1722.87
1598.27	1666.82
1597.42	1637.19
1596.57	1613.44
1595.72	1595.57
1594.87	1612.89
1594.01	1595.02
1593.16	1539.05
1592.31	1588.61
1591.45	1564.9
1590.6	1514.82
1589.75	1549.71
1588.89	1561.16
1588.04	1522.82
1587.19	1528.42
1586.33	1507.66
1585.48	1507.4
1584.62	1524.7
1583.77	1477.63
1582.92	1556.36
1582.06	1643.84
1581.21	1611.39
1580.35	1543.86
1579.5	1502.67
1578.64	1502.41
1577.78	1581.06
1576.93	1572.02
1576.07	1513.32
1575.22	1483.85
1574.36	1553.69
1573.51	1597.22
1572.65	1465.57
1571.79	1488.67
1570.94	1485.5
1570.08	1505.67
1569.22	1505.41
1568.37	1440.98
1567.51	1592.39
1566.65	1490.05
1565.79	1521.87
1564.94	1518.69
1564.08	1495.11
1563.22	1558.96
1562.36	1506.25
1561.5	1532.21
1560.65	1499.91
1559.79	1453.06
1558.93	1484.84
1558.07	1519.51
1557.21	1507.61
1556.35	1524.81
1555.49	1533.28
1554.63	1535.92
1553.77	1579.28
1552.91	1500.5
1552.05	1552.57
1551.19	1517.42
1550.33	1485.19
1549.47	1473.31
1548.61	1539.88
1547.75	1516.38
1546.89	1568.4
1546.03	1501.34
1545.17	1477.85
1544.31	1422.44
1543.45	1503.46
1542.58	1488.7
1541.72	1465.23
1540.86	1534.6
1540	1479.23
1539.14	1496.37
1538.28	1539.6
1537.41	1539.34
1536.55	1562.26
1535.69	1504.03
1534.82	1477.7
1533.96	1509.31
1533.1	1509.05
1532.24	1491.41
1531.37	1560.65
1530.51	1574.85
1529.64	1493.54
1528.78	1490.38
1527.92	1493.02
1527.05	1515.91
1526.19	1559.03
1525.32	1509.6
1524.46	1497.77
1523.59	1578.46
1522.73	1557.96
1521.86	1485.44
1521	1528.53
1520.13	1565.82
1519.27	1553.99
1518.4	1585.49
1517.54	1510.15
1516.67	1573.4
1515.8	1550.04
1514.94	1526.68
1514.07	1566.81
1513.21	1540.58
1512.34	1456.66
1511.47	1537.16
1510.6	1531.13
1509.74	1458.79
1508.87	1539.25
1508	1487.11
1507.14	1492.61
1506.27	1509.64
1505.4	1538.19
1504.53	1543.68
1503.66	1641.32
1502.8	1422.23
1501.93	1588.94
1501.06	1499.44
1500.19	1622.92
1499.32	1467.28
1498.45	1559.07
1497.58	1509.91
1496.71	1549.91
1495.84	1520.89
1494.97	1615.49
1494.1	1629.58
1493.23	1459.76
1492.36	1600.28
1491.49	1470.74
1490.62	1490.59
1489.75	1539.15
1488.88	1513.05
1488.01	1489.82
1487.14	1518.26
1486.27	1512.26
1485.4	1549.3
1484.52	1597.79
1483.65	1568.84
1482.78	1479.67
1481.91	1559.69
1481.04	1579.49
1480.17	1498.97
1479.29	1573.21
1478.42	1621.65
1477.55	1592.72
1476.67	1546.62
1475.8	1580.71
1474.93	1606.21
1474.06	1585.89
1473.18	1648.58
1472.31	1593.93
1471.43	1645.15
1470.56	1559.05
1469.69	1676.04
1468.81	1604.26
1467.94	1592.55
1467.06	1577.98
1466.19	1626.29
1465.31	1591.72
1464.44	1645.73
1463.56	1671.16
1462.69	1550.91
1461.81	1590.62
1460.94	1667.43
1460.06	1681.42
1459.19	1664
1458.31	1458.24
1457.43	1657.72
1456.56	1680.25
1455.68	1754.12
1454.8	1691.08
1453.93	1679.38
1453.05	1750.35
1452.17	1721.55
1451.3	1724.1
1450.42	1732.35
1449.54	1663.68
1448.66	1686.18
1447.78	1777.01
1446.91	1665.66
1446.03	1679.6
1445.15	1696.39
1444.27	1687.56
1443.39	1732.79
1442.51	1695.51
1441.64	1678.15
1440.76	1692.08
1439.88	1651.98
1439	1663.06
1438.12	1645.72
1437.24	1642.59
1436.36	1744.59
1435.48	1661.91
1434.6	1698.54
1433.72	1669.85
1432.84	1700.79
1431.96	1612.49
1431.08	1632.08
1430.2	1586.39
1429.31	1617.32
1428.43	1580.16
1427.55	1554.36
1426.67	1576.78
1425.79	1604.86
1424.91	1584.74
1424.02	1638.31
1423.14	1606.86
1422.26	1640.58
1421.38	1592.13
1420.49	1631.51
1419.61	1653.88
1418.73	1704.56
1417.85	1545.73
1416.96	1661.51
1416.08	1649.9
1415.2	1765.63
1414.31	1720.06
1413.43	1660.36
1412.54	1694
1411.66	1787.02
1410.78	1676.45
1409.89	1656.38
1409.01	1780.43
1408.12	1754.69
1407.24	1731.79
1406.35	1703.24
1405.47	1643.64
1404.58	1654.65
1403.7	1654.36
1402.81	1750.04
1401.92	1622.74
1401.04	1630.92
1400.15	1664.49
1399.27	1607.79
1398.38	1658.27
1397.49	1604.41
1396.61	1666.15
1395.72	1640.49
1394.83	1595.12
1393.94	1713.18
1393.06	1583.29
1392.17	1642.17
1391.28	1633.43
1390.39	1633.15
1389.51	1615.97
1388.62	1635.39
1387.73	1657.62
1386.84	1632.01
1385.95	1699.24
1385.06	1614.56
1384.17	1656.47
1383.29	1698.36
1382.4	1675.57
1381.51	1703.39
1380.62	1652.5
1379.73	1663.45
1378.84	1657.54
1377.95	1702.2
1377.06	1701.9
1376.17	1603.33
1375.28	1684.46
1374.39	1703.82
1373.5	1638.97
1372.6	1722.86
1371.71	1666.45
1370.82	1652.14
1369.93	1682.7
1369.04	1721.66
1368.15	1631.65
1367.26	1701.44
1366.36	1757.19
1365.47	1627.99
1364.58	1683.74
1363.69	1610.62
1362.79	1680.35
1361.9	1624.06
1361.01	1643.37
1360.11	1654.28
1359.22	1749.14
1358.33	1676.09
1357.43	1717.76
1356.54	1664.31
1355.65	1638.85
1354.75	1655.34
1353.86	1699.78
1352.96	1660.35
1352.07	1682.42
1351.17	1648.6
1350.28	1695.8
1349.39	1712.27
1348.49	1714.76
1347.59	1745.17
1346.7	1702.99
1345.8	1610.58
1344.91	1699.61
1344.01	1640.71
1343.12	1682.27
1342.22	1709.87
1341.32	1731.88
1340.43	1739.95
1339.53	1689.46
1338.63	1627.84
1337.74	1700.02
1336.84	1777.74
1335.94	1646.49
1335.04	1662.91
1334.15	1709.97
1333.25	1715.24
1332.35	1681.53
1331.45	1658.97
1330.55	1641.98
1329.66	1744.64
1328.76	1660.88
1327.86	1727.34
1326.96	1754.85
1326.06	1760.11
1325.16	1645.81
1324.26	1762.27
1323.36	1736.95
1322.46	1706.08
1321.56	1755.79
1320.66	1858.25
1319.76	1694.07
1318.86	1691
1317.96	1671.27
1317.06	1779.23
1316.16	1784.47
1315.26	1817.45
1314.36	1880.94
1313.46	1858.42
1312.55	1874.74
1311.65	1832.82
1310.75	1943.39
1309.85	1843.26
1308.95	1881.74
1308.04	1967.3
1307.14	1966.96
1306.24	1886.29
1305.34	1927.5
1304.43	1974.23
1303.53	2054.17
1302.63	1909.88
1301.72	1928.91
1300.82	1917.51
1299.92	2016.76
1299.01	2010.88
1298.11	1993.93
1297.21	1982.52
1296.3	2103.81
1295.4	2150.43
1294.49	2144.53
1293.59	2177.31
1292.68	2229.42
1291.78	2245.6
1290.87	2245.2
1289.97	2244.81
1289.06	2247.18
1288.16	2434.47
1287.25	2287.78
1286.34	2292.9
1285.44	2353.19
1284.53	2303.13
1283.62	2415.79
1282.72	2294.05
1281.81	2315.7
1280.9	2185.74
1280	2168.82
1279.09	2173.95
1278.18	2090.93
1277.27	2098.82
1276.37	2101.21
1275.46	2048.52
1274.55	1973.84
1273.64	1981.75
1272.73	1940.12
1271.82	2047.08
1270.92	1975.2
1270.01	1928.09
1269.1	2035
1268.19	1924.67
1267.28	1973.81
1266.37	1981.71
1265.46	2011.59
1264.55	1981.01
1263.64	1917.48
1262.73	1886.93
1261.82	1853.64
1260.91	1858.81
1260	1778.87
1259.09	1827.96
1258.18	1789.22
1257.27	1841.04
1256.35	1772.13
1255.44	1782.79
1254.53	1771.51
1253.62	1708.14
1252.71	1710.58
1251.79	1787.02
1250.88	1762.04
1249.97	1835.71
1249.06	1660.06
1248.14	1763.85
1247.23	1700.55
1246.32	1727.63
1245.41	1773.87
1244.49	1718.81
1243.58	1734.93
1242.66	1641.6
1241.75	1706.96
1240.84	1687.52
1239.92	1648.94
1239.01	1681.45
1238.09	1716.69
1237.18	1716.39
1236.26	1727.02
1235.35	1740.38
1234.43	1699.09
1233.52	1687.87
1232.6	1660.27
1231.69	1676.35
1230.77	1577.79
1229.86	1719.43
1228.94	1642.72
1228.02	1623.33
1227.11	1674.88
1226.19	1674.58
1225.27	1685.19
1224.36	1668.54
1223.44	1692.78
1222.52	1670.67
1221.6	1659.48
1220.69	1713.67
1219.77	1639.83
1218.85	1568.73
1217.93	1639.25
1217.01	1644.4
1216.1	1644.11
1215.18	1687.37
1214.26	1670.74
1213.34	1656.84
1212.42	1732.71
1211.5	1661.7
1210.58	1688.6
1209.66	1669.27
1208.74	1609.17
1207.82	1630.63
1206.9	1578.71
1205.98	1676.24
1205.06	1624.33
1204.14	1621.33
1203.22	1640.05
1202.3	1664.19
1201.38	1682.9
1200.46	1655.46
1199.54	1750.14
1198.61	1679.29
1197.69	1687.14
1196.77	1624.46
1195.85	1643.16
1194.93	1651
1194	1639.86
1193.08	1615.18
1192.16	1671.8
1191.24	1685.05
1190.31	1652.25
1189.39	1670.91
1188.47	1735.6
1187.54	1662.2
1186.62	1697.09
1185.7	1734.68
1184.77	1645.08
1183.85	1663.73
1182.92	1785.15
1182	1730.75
1181.07	1768.29
1180.15	1738.24
1179.23	1824.43
1178.3	1794.38
1177.37	1772.44
1176.45	1801.85
1175.52	1833.94
1174.6	1830.91
1173.67	1754.99
1172.75	1835.66
1171.82	1751.67
1170.89	1808.03
1169.97	1772.63
1169.04	1769.62
1168.11	1669.51
1167.19	1701.58
1166.26	1674.31
1165.33	1714.45
1164.4	1746.49
1163.48	1767.74
1162.55	1659.66
1161.62	1624.34
1160.69	1677.92
1159.76	1653.39
1158.83	1634.25
1157.91	1682.41
1156.98	1628.29
1156.05	1770.61
1155.12	1638.47
1154.19	1640.87
1153.26	1737.4
1152.33	1675.24
1151.4	1691.08
1150.47	1669.27
1149.54	1674.35
1148.61	1644.5
1147.68	1740.92
1146.75	1748.67
1145.82	1657.05
1144.89	1678.24
1143.96	1726.26
1143.02	1683.01
1142.09	1647.82
1141.16	1674.36
1140.23	1751.87
1139.3	1687.18
1138.36	1751.24
1137.43	1758.98
1136.5	1742.58
1135.57	1640.41
1134.63	1758.04
1133.7	1830.07
1132.77	1797.6
1131.83	1786.57
1130.9	1813.03
1129.97	1850.19
1129.03	1863.25
1128.1	1777.27
1127.17	1854.56
1126.23	1835.5
1125.3	1963.58
1124.36	1856.24
1123.43	1885.33
1122.49	1874.3
1121.56	1967.53
1120.62	1911.05
1119.69	1940.11
1118.75	2035.95
1117.81	1960.79
1116.88	1944.42
1115.94	2000.15
1115.01	1933.04
1114.07	1927.36
1113.13	1921.68
1112.2	1945.35
1111.26	1929
1110.32	1963.33
1109.38	1944.32
1108.45	1874.64
1107.51	1900.97
1106.57	1903.29
1105.63	1921.61
1104.69	1862.64
1103.76	1864.98
1102.82	1917.92
1101.88	1858.99
1100.94	1810.72
1100	1868.97
1099.06	1908.57
1098.12	1876.29
1097.18	1883.94
1096.24	1894.25
1095.3	1840.71
1094.36	1914.85
1093.42	1816.12
1092.48	1826.43
1091.54	1911.17
1090.6	1812.49
1089.66	1862.66
1088.72	1726.83
1087.78	1792.93
1086.84	1734.18
1085.9	1643.6
1084.95	1714.98
1084.01	1767.76
1083.07	1812.56
1082.13	1698.15
1081.19	1719.07
1080.24	1684.28
1079.3	1702.54
1078.36	1824.2
1077.41	1765.56
1076.47	1669.82
1075.53	1696.03
1074.58	1714.27
1073.64	1713.96
1072.7	1687.17
1071.75	1734.54
1070.81	1752.76
1069.86	1651.85
1068.92	1749.49
1067.98	1749.18
1067.03	1621.87
1066.09	1748.55
1065.14	1639.8
1064.19	1755.86
1063.25	1686.81
1062.3	1728.8
1061.36	1728.49
1060.41	1744.04
1059.46	1656.54
1058.52	1677.37
1057.57	1698.2
1056.63	1645.09
1055.68	1650.07
1054.73	1665.62
1053.78	1752.41
1052.84	1765.29
1051.89	1662.09
1050.94	1698.72
1049.99	1708.96
1049.05	1764.03
1048.1	1742.62
1047.15	1650.06
1046.2	1678.75
1045.25	1768.04
1044.3	1767.72
1043.35	1654.14
1042.4	1651.22
1041.45	1803.64
1040.5	1766.46
1039.55	1729.29
1038.6	1650.03
1037.65	1731.3
1036.7	1683.64
1035.75	1688.6
1034.8	1775.08
1033.85	1766.88
1032.9	1706.1
1031.95	1734.7
1031	1800.09
1030.05	1713.06
1029.1	1823.09
1028.14	1778.11
1027.19	1822.43
1026.24	1743.34
1025.29	1806.03
1024.33	1684.98
1023.38	1703.04
1022.43	1742.09
1021.48	1760.14
1020.52	1838.51
1019.57	1764.76
1018.62	1725.11
1017.66	1743.15
1016.71	1742.84
1015.75	1721.57
1014.8	1731.74
1013.85	1702.61
1012.89	1699.69
1011.94	1628.69
1010.98	1767.15
1010.03	1696.16
1009.07	1638.28
1008.12	1698.16
1007.16	1747.57
1006.2	1770.79
1005.25	1681.56
1004.29	1775.39
1003.34	1741.08
1002.38	1753.84
1001.42	1735.23
1000.47	1747.99
999.508	1823.43
998.551	1825.72
997.594	1822.78
996.636	1738.9
995.679	1816.9
994.721	1735.66
993.763	1724.91
992.805	1776.79
991.846	1711.25
990.888	1679.65
989.929	1731.5
988.97	1681.65
988.011	1728.27
987.052	1662.8
986.093	1795.4
985.133	1750.79
984.173	1740.05
983.213	1703.28
982.253	1682.14
981.293	1728.7
980.333	1759.63
979.372	1678.63
978.411	1712.16
977.45	1763.88
976.489	1677.73
975.528	1763.25
974.566	1687.52
973.605	1749.61
972.643	1681.72
971.681	1748.98
970.719	1717.49
969.756	1701.59
968.794	1724.66
967.831	1768.5
966.868	1809.73
965.905	1728.92
964.942	1668.92
963.979	1668.62
963.015	1764.32
962.052	1808.1
961.088	1732.56
960.124	1781.52
959.159	1750.08
958.195	1739.4
957.23	1689.84
956.266	1764.68
955.301	1668.51
954.336	1764.05
953.37	1750.78
952.405	1719.39
951.439	1719.08
950.473	1723.95
949.507	1721.05
948.541	1671.58
947.575	1666.1
946.608	1621.83
945.642	1748.26
944.675	1737.6
943.708	1719.19
942.741	1685.28
941.773	1700.48
940.806	1741.52
939.838	1717.95
938.87	1758.97
937.902	1725.08
936.934	1621.49
935.965	1680.57
934.997	1791.26
934.028	1752.22
933.059	1800.93
932.09	1769.65
931.121	1725.48
930.151	1740.64
929.182	1748.07
928.212	1709.08
927.242	1793.83
926.272	1765.16
925.301	1751.96
924.331	1798.01
923.36	1722.99
922.389	1748.43
921.418	1779.01
920.447	1786.41
919.475	1747.49
918.504	1754.89
917.532	1692.83
916.56	1836.57
915.588	1795.09
914.616	1797.33
913.643	1830.43
912.671	1719.57
911.698	1788.65
910.725	1749.79
909.752	1726.35
908.779	1692.65
907.805	1818.18
906.831	1807.58
905.858	1853.46
904.883	1840.29
903.909	1793.77
902.935	1852.45
901.96	1888.03
900.986	1859.48
900.011	1895.04
899.036	1889.57
898.06	1832.83
897.085	1888.89
896.109	1944.92
895.133	1942.01
894.157	1900.67
893.181	1936.18
892.205	1833.41
891.229	1881.72
890.252	1976.09
889.275	1858
888.298	1967.7
887.321	2013.39
886.343	2005.35
885.366	1915.48
884.388	1999.51
883.41	1935.24
882.432	2039.68
881.454	1954.98
880.475	1934.19
879.497	1959.38
878.518	1999.89
877.539	1889.72
876.56	2055.34
875.58	1901.8
874.601	1932.09
873.621	1964.91
872.641	1890.56
871.661	1920.83
870.681	1976.59
869.701	1999.18
868.72	2011.57
867.739	1980.62
866.758	1987.9
865.777	2015.57
864.796	2022.85
863.815	2081.07
862.833	2182.56
861.851	2154.16
860.869	2268.33
859.887	2252.64
858.905	2326.04
857.922	2452.84
856.939	2350.63
855.956	2355.29
854.973	2370.13
853.99	2397.66
853.007	2361.64
852.023	2277.34
851.039	2203.23
850.055	2179.96
849.071	2199.89
848.087	2171.55
847.102	2084.82
846.118	2097.13
845.133	2106.91
844.148	2038
843.163	2050.32
842.177	1989.05
841.192	2008.99
840.206	1985.8
839.22	2015.86
838.234	1969.86
837.248	1961.9
836.261	1999.56
835.274	1890.24
834.288	1988.7
833.301	1978.21
832.313	1934.79
831.326	1967.36
830.339	1891.06
829.351	1979.3
828.363	2014.37
827.375	1981.11
826.387	1963.04
825.398	1967.74
824.409	1992.67
823.421	2002.42
822.432	1986.89
821.443	1946.09
820.453	1965.95
819.464	1955.49
818.474	2041.02
817.484	2000.24
816.494	1969.57
815.504	1986.89
814.513	1936.04
813.523	1963.45
812.532	1942.91
811.541	1972.83
810.55	1884.19
809.559	1992.29
808.567	2100.34
807.575	2031.9
806.583	1900.46
805.591	1995.87
804.599	1945.12
803.607	1919.57
802.614	1911.67
801.621	2007.01
800.628	1963.84
799.635	2028.94
798.642	2043.67
797.649	2055.88
796.655	2078.15
795.661	1994.76
794.667	1971.76
793.673	2009.12
792.678	1971.04
791.684	2003.36
790.689	1965.3
789.694	1924.73
788.699	2049.99
787.704	1888.87
786.708	2014.09
785.713	1945.93
784.717	1955.61
783.721	1884.98
782.724	1894.67
781.728	1869.24
780.731	1929.1
779.735	1861.03
778.738	1953.47
777.741	1933.06
776.743	1915.16
775.746	1874.71
774.748	1894.42
773.75	1974.24
772.752	1961.36
771.754	1908.4
770.756	1903.05
769.757	1907.71
768.758	1884.83
767.759	1881.98
766.76	1976.72
765.761	1918.82
764.761	1913.47
763.762	1820.59
762.762	1897.77
761.762	1834.93
760.762	1974.56
759.761	1886.73
758.761	1928.86
757.76	1928.51
756.759	1990.6
755.758	1937.79
754.756	1835.08
753.755	1959.55
752.753	1841.89
751.751	1796.64
750.749	1886.13
749.747	1958.12
748.745	1985.2
747.742	1790.34
746.739	1872.28
745.736	1924.28
744.733	1963.81
743.73	1876.24
742.726	1935.68
741.723	1907.93
740.719	1885.17
739.715	1964.5
738.71	1994.01
737.706	1991.16
736.701	1843.97
735.697	1890.91
734.692	1868.17
733.686	1882.76
732.681	1954.52
731.675	1916.87
730.67	1866.81
729.664	1878.89
728.658	1940.67
727.651	1890.63
726.645	1957.35
725.638	1927.19
724.631	1921.87
723.624	2003.44
722.617	1901.31
721.61	1925.77
720.602	1873.32
719.595	1977.16
718.587	1949.52
717.578	1919.4
716.57	1933.93
715.562	1908.78
714.553	2032.36
713.544	2024.55
712.535	1962.24
711.526	1986.65
710.516	2105.17
709.507	2003.26
708.497	2022.69
707.487	2005
706.477	2101.15
705.467	2103.24
704.456	2144.91
703.445	2102.47
702.434	2149.07
701.423	2153.62
700.412	2086.48
699.401	2105.87
698.389	2006.63
697.377	2008.73
696.365	1929.31
695.353	2045.04
694.34	1968.12
693.328	1972.69
692.315	1955.05
691.302	1957.16
690.289	1890.18
689.276	1988.51
688.262	1894.41
687.249	1963.12
686.235	1883.86
685.221	1922.95
684.206	1964.5
683.192	1917.32
682.177	1985.96
681.162	1985.59
680.147	2027.1
679.132	2009.49
678.117	1999.27
677.101	2025.98
676.086	1991.15
675.07	1934.19
674.054	1948.59
673.037	1990.05
672.021	1950.34
671.004	2004.08
669.987	1961.91
668.97	1912.39
667.953	1919.41
666.936	2000.14
665.918	1970.3
664.9	2011.69
663.882	2023.6
662.864	2003.58
661.846	1988.49
660.827	1916.94
659.808	1938.67
658.789	2043.82
657.77	1991.93
656.751	2016.09
655.731	1978.93
654.712	2003.09
653.692	1978.2
652.672	1926.37
651.652	1999.53
650.631	1906.06
649.611	1947.35
648.59	2008.22
647.569	2017.65
646.548	2014.83
645.526	1987.53
644.505	2041
643.483	2006.37
642.461	1988.88
641.439	2039.87
640.417	1975.92
639.394	2034.23
638.371	2004.52
637.348	2065.26
636.325	2033.11
635.302	2186.65
634.279	2410.98
633.255	2591.27
632.231	2624.97
631.207	2551.25
630.183	2338.42
629.159	2159.83
628.134	2193.59
627.109	2129.76
626.084	2078.14
625.059	2055.81
624.034	2018.86
623.008	2003.86
621.983	1998.61
620.957	2029.92
619.931	2105.08
618.904	2031.61
617.878	2155.45
616.851	2033.3
615.824	2091.35
614.797	2037.41
613.77	2049.21
612.743	1958.8
611.715	1985.2
610.687	2055.37
609.659	2006.35
608.631	2025.43
607.603	2059.09
606.574	2012.53
605.546	1995.15
604.517	2009.36
603.487	2040.56
602.458	2040.19
601.429	2034.95
600.399	2097.7
599.369	2031.77
598.339	2021.69
597.309	2096.54
596.278	2142.25
595.248	2076.36
594.217	2012.92
593.186	2063.47
592.155	1966.11
591.123	2040.89
590.091	2096.25
589.06	1962.6
588.028	2027.64
586.996	1971.56
585.963	2007.52
584.931	2060.41
583.898	2021.3
582.865	1965.26
581.832	2085.89
580.798	2078.24
579.765	2031.9
578.731	2089.57
577.697	2079.51
576.663	2054.95
575.629	2020.73
574.594	1991.35
573.56	2097.3
572.525	2041.34
571.49	2033.72
570.455	1946.41
569.419	2025.72
568.384	2066.39
567.348	1993.6
566.312	2029.42
565.276	2000.1
564.239	2064.85
563.203	2069.3
562.166	2066.5
561.129	2003.43
560.092	1988.6
559.054	2021.97
558.017	2060.15
556.979	2136.86
555.941	2138.87
554.903	2059
553.865	2056.21
552.826	2070.28
551.787	2048.23
550.749	2100.79
549.709	1931.98
548.67	2025.44
547.631	2032.28
546.591	2048.73
545.551	2036.33
544.511	2023.94
543.471	2124.5
542.43	1991.95
541.39	2118.91
540.349	2046.45
539.308	2113.32
538.267	2122.53
537.225	2081.32
536.184	2097.74
535.142	2164.54
534.1	2005.79
533.058	2019.81
532.015	1949.88
530.973	1911.15
529.93	2021.08
528.887	1953.58
527.844	1967.6
526.801	1984.01
525.757	1983.64
524.713	1976.09
523.669	1973.32
522.625	2042.39
521.581	2154.53
520.537	2055.99
519.492	1945.53
518.447	2146.15
517.402	2023.75
516.357	2059.25
515.311	2030.17
514.265	2029.79
513.22	2017.46
512.174	1957.34
511.127	1890.07
510.081	1939.89
509.034	1839.21
507.987	1977.38
506.94	1805.09
505.893	1943.22
504.846	1933.31
503.798	1899.54
502.75	1985.08
501.702	2001.41
500.654	2074.97
499.606	2029.28
