3200.54	50.5175
3199.95	16.8392
3199.35	37.8824
3198.76	37.8767
3198.16	37.8709
3197.57	16.829
3196.98	37.8595
3196.38	29.4418
3195.79	46.2587
3195.19	46.2517
3194.6	42.0407
3194	29.424
3193.41	4.2028
3192.81	54.6281
3192.22	46.2168
3191.62	50.4107
3191.03	54.6033
3190.43	50.3954
3189.84	46.1888
3189.24	46.1818
3188.65	58.768
3188.05	50.3649
3187.45	62.9467
3186.86	50.3497
3186.26	33.5614
3185.67	33.5563
3185.07	16.7756
3184.47	33.5462
3183.88	67.0822
3183.28	33.536
3182.69	37.7223
3182.09	25.1444
3181.49	20.9505
3180.9	62.842
3180.3	16.7553
3179.7	25.1292
3179.1	50.2507
3178.51	50.2431
3177.91	66.9807
3177.31	20.9283
3176.72	46.0353
3176.12	37.6595
3175.52	25.1026
3174.92	41.8313
3174.33	29.2775
3173.73	33.4549
3173.13	29.2686
3172.53	20.903
3171.93	45.9796
3171.34	58.5106
3170.74	41.7869
3170.14	41.7806
3169.54	33.4194
3168.94	29.2376
3168.34	58.4663
3167.74	37.5798
3167.15	12.5247
3166.55	25.0456
3165.95	41.7363
3165.35	66.768
3164.75	45.896
3164.15	62.576
3163.55	37.5399
3162.95	54.2161
3162.35	66.7174
3161.75	75.0457
3161.15	45.8543
3160.55	87.5268
3159.95	33.3385
3159.35	41.6668
3158.75	66.6567
3158.15	70.812
3157.55	62.4717
3156.95	54.134
3156.35	20.8176
3155.75	33.3031
3155.15	62.4339
3154.55	33.293
3153.95	58.2539
3153.35	58.2451
3152.75	29.1181
3152.15	45.7501
3151.54	37.4262
3150.94	45.7362
3150.34	54.0437
3149.74	74.8184
3149.14	49.8714
3148.54	4.15532
3147.94	16.6187
3147.33	62.3108
3146.73	70.6082
3146.13	53.9863
3145.53	66.4346
3144.93	58.1215
3144.32	70.5654
3143.72	53.9536
3143.12	33.1972
3142.52	58.0862
3141.91	66.3741
3141.31	29.0343
3140.71	41.4712
3140.1	49.7579
3139.5	62.188
3138.9	58.0333
3138.29	62.1691
3137.69	58.0157
3137.09	74.5803
3136.48	53.8553
3135.88	41.4209
3135.28	62.1219
3134.67	70.3941
3134.07	103.505
3133.47	57.954
3132.86	70.362
3132.26	28.9682
3131.65	24.8261
3131.05	66.1929
3130.45	45.5007
3129.84	53.7654
3129.24	70.2979
3128.63	66.1527
3128.03	41.3391
3127.42	37.1996
3126.82	41.3266
3126.21	66.1125
3125.61	53.7082
3125	66.0924
3124.4	57.822
3123.79	24.7771
3123.19	66.0622
3122.58	57.7957
3121.97	57.7869
3121.37	66.0321
3120.76	74.2748
3120.16	86.6408
3119.55	70.1271
3118.94	28.8715
3118.34	65.9819
3117.73	45.3557
3117.13	61.8392
3116.52	74.1958
3115.91	65.9418
3115.31	61.811
3114.7	45.3212
3114.09	70.0312
3113.48	78.2582
3112.88	70.0099
3112.27	74.1168
3111.66	61.7546
3111.06	69.9779
3110.45	74.083
3109.84	78.1868
3109.23	53.4881
3108.63	49.3661
3108.02	61.6982
3107.41	61.6888
3106.8	86.3512
3106.19	53.4474
3105.59	73.9928
3104.98	78.0916
3104.37	45.204
3103.76	53.4148
3103.15	24.6492
3102.54	49.291
3101.93	78.0322
3101.33	65.7013
3100.72	69.797
3100.11	69.7864
3099.5	69.7757
3098.89	82.0766
3098.28	69.7545
3097.67	90.2567
3097.06	77.9371
3096.45	45.1146
3095.84	77.9134
3095.23	77.9015
3094.62	86.0885
3094.01	65.5813
3093.4	45.0803
3092.79	86.0492
3092.18	81.9391
3091.57	98.312
3090.96	94.2013
3090.35	85.9967
3089.74	77.7947
3089.13	106.44
3088.52	85.9574
3087.91	77.7591
3087.3	65.4714
3086.69	85.9181
3086.08	85.905
3085.46	106.342
3084.85	85.8788
3084.24	102.221
3083.63	147.176
3083.02	114.453
3082.41	106.261
3081.79	106.245
3081.18	106.229
3080.57	134.808
3079.96	118.45
3079.35	134.767
3078.73	146.996
3078.12	134.726
3077.51	118.378
3076.9	138.766
3076.28	146.907
3075.67	138.724
3075.06	134.623
3074.45	118.287
3073.83	106.035
3073.22	93.7854
3072.61	110.079
3071.99	93.7568
3071.38	89.6667
3070.77	93.7282
3070.15	134.459
3069.54	85.5518
3068.93	126.271
3068.31	89.5983
3067.7	93.6566
3067.08	97.7137
3066.47	130.265
3065.86	77.3331
3065.24	101.739
3064.63	85.4473
3064.01	117.981
3063.4	69.1505
3062.78	101.676
3062.17	93.528
3061.55	85.3821
3060.94	77.2386
3060.32	89.4205
3059.71	89.4069
3059.09	81.2666
3058.48	73.1287
3057.86	93.428
3057.25	85.2908
3056.63	105.582
3056.02	93.3851
3055.4	97.4305
3054.78	81.1796
3054.17	64.9338
3053.55	73.0393
3052.94	85.1995
3052.32	60.8475
3051.7	77.0617
3051.09	89.2157
3050.47	81.0928
3049.85	81.0804
3049.24	109.442
3048.62	64.8445
3048	85.0954
3047.39	81.0308
3046.77	68.8657
3046.15	105.308
3045.53	76.9439
3044.92	105.276
3044.3	93.1142
3043.68	76.9086
3043.06	76.8969
3042.45	89.0249
3041.83	121.379
3041.21	64.7255
3040.59	52.5815
3039.97	80.8822
3039.35	80.8698
3038.74	48.5144
3038.12	60.6338
3037.5	84.8743
3036.88	84.8613
3036.26	68.6867
3035.64	84.8353
3035.02	92.9006
3034.41	88.8479
3033.79	72.6826
3033.17	76.7088
3032.55	76.697
3031.93	80.7213
3031.31	64.5672
3030.69	100.871
3030.07	68.5816
3029.45	64.5375
3028.83	100.824
3028.21	76.6148
3027.59	84.6666
3026.97	88.6847
3026.35	64.4881
3025.73	76.5679
3025.11	112.82
3024.49	108.774
3023.87	104.729
3023.25	88.6032
3022.63	100.67
3022	72.4713
3021.38	72.4602
3020.76	84.524
3020.14	120.73
3019.52	132.783
3018.9	124.716
3018.28	112.63
3017.66	80.4373
3017.03	88.4675
3016.41	108.557
3015.79	80.4003
3015.17	76.3686
3014.55	96.4508
3013.92	80.3633
3013.3	132.579
3012.68	136.576
3012.06	96.3916
3011.43	96.3769
3010.81	96.3621
3010.19	100.362
3009.57	88.3048
3008.94	112.371
3008.32	84.2651
3007.7	104.312
3007.07	108.308
3006.45	120.323
3005.83	108.274
3005.2	128.305
3004.58	112.25
3003.96	100.208
3003.33	120.231
3002.71	148.262
3002.08	100.162
3001.46	128.187
3000.84	128.168
3000.21	112.129
2999.59	116.116
2998.96	120.102
2998.34	108.075
2997.71	80.0433
2997.09	108.042
2996.46	100.023
2995.84	136.011
2995.21	99.9927
2994.59	103.976
2993.96	107.959
2993.34	127.932
2992.71	99.9313
2992.09	123.896
2991.46	119.881
2990.84	83.9036
2990.21	123.839
2989.58	127.814
2988.96	127.794
2988.33	123.782
2987.71	119.77
2987.08	143.702
2986.45	115.742
2985.83	123.705
2985.2	127.676
2984.57	139.625
2983.95	123.648
2983.32	163.51
2982.69	111.648
2982.07	115.618
2981.44	115.6
2980.81	123.553
2980.18	107.594
2979.56	167.343
2978.93	143.415
2978.3	107.545
2977.67	159.301
2977.05	147.331
2976.42	175.177
2975.79	163.208
2975.16	159.203
2974.53	171.117
2973.91	119.366
2973.28	123.326
2972.65	139.217
2972.02	159.081
2971.39	163.033
2970.76	163.008
2970.13	194.784
2969.5	139.11
2968.88	166.906
2968.25	186.747
2967.62	166.855
2966.99	194.634
2966.36	146.946
2965.73	182.662
2965.1	206.455
2964.47	154.818
2963.84	230.206
2963.21	218.265
2962.58	218.232
2961.95	170.591
2961.32	194.365
2960.69	194.335
2960.06	182.409
2959.43	178.416
2958.8	178.388
2958.17	194.215
2957.53	206.074
2956.9	166.419
2956.27	154.508
2955.64	190.134
2955.01	154.46
2954.38	213.835
2953.75	170.25
2953.12	166.265
2952.48	189.988
2951.85	178.086
2951.22	193.886
2950.59	189.9
2949.96	174.048
2949.33	217.527
2948.69	173.994
2948.06	166.06
2947.43	166.034
2946.8	158.104
2946.16	165.983
2945.53	173.86
2944.9	114.572
2944.26	161.956
2943.63	122.436
2943	146.111
2942.37	153.985
2941.73	157.909
2941.1	149.99
2940.47	142.074
2939.83	165.727
2939.2	122.304
2938.56	134.119
2937.93	134.098
2937.3	122.247
2936.66	130.114
2936.03	134.036
2935.39	134.015
2934.76	90.6435
2934.13	102.451
2933.49	118.194
2932.86	133.933
2932.22	118.158
2931.59	106.325
2930.95	133.871
2930.32	141.724
2929.68	125.957
2929.05	145.615
2928.41	110.178
2927.78	114.096
2927.14	141.614
2926.5	78.6624
2925.87	102.245
2925.23	98.2976
2924.6	129.733
2923.96	137.574
2923.32	102.182
2922.69	121.814
2922.05	153.226
2921.42	102.135
2920.78	113.902
2920.14	106.03
2919.51	106.014
2918.87	133.478
2918.23	141.308
2917.6	121.663
2916.96	121.644
2916.32	137.319
2915.68	109.838
2915.05	149.043
2914.41	141.177
2913.77	145.076
2913.13	133.293
2912.5	117.593
2911.86	113.656
2911.22	113.638
2910.58	156.718
2909.94	148.859
2909.31	117.502
2908.67	137.065
2908.03	152.706
2907.39	133.107
2906.75	156.573
2906.11	140.894
2905.47	101.741
2904.83	140.85
2904.2	152.564
2903.56	113.427
2902.92	156.427
2902.28	148.583
2901.64	121.194
2901	160.264
2900.36	148.514
2899.72	152.399
2899.08	168.003
2898.44	136.726
2897.8	152.328
2897.16	152.305
2896.52	156.186
2895.88	167.874
2895.24	105.393
2894.6	120.988
2893.96	148.284
2893.32	148.261
2892.67	140.436
2892.03	175.518
2891.39	159.892
2890.75	159.867
2890.11	202.727
2889.47	159.818
2888.83	171.485
2888.19	175.355
2887.54	136.366
2886.9	136.345
2886.26	183.064
2885.62	175.247
2884.98	140.176
2884.33	167.406
2883.69	151.81
2883.05	167.354
2882.41	143.98
2881.77	151.739
2881.12	182.837
2880.48	167.251
2879.84	132.224
2879.19	139.98
2878.55	143.846
2877.91	147.711
2877.26	151.575
2876.62	163.209
2875.98	143.757
2875.33	163.158
2874.69	128.176
2874.05	143.69
2873.4	163.083
2872.76	155.293
2872.11	112.57
2871.47	155.245
2870.83	178.503
2870.18	155.196
2869.54	159.052
2868.89	135.755
2868.25	159.002
2867.6	151.223
2866.96	151.199
2866.31	96.9075
2865.67	158.904
2865.02	151.129
2864.38	151.105
2863.73	158.83
2863.09	143.312
2862.44	166.526
2861.8	127.779
2861.15	120.016
2860.5	123.868
2859.86	170.293
2859.21	162.527
2858.57	147.025
2857.92	131.528
2857.27	146.98
2856.63	166.293
2855.98	131.467
2855.33	135.313
2854.69	150.754
2854.04	166.19
2853.39	131.386
2852.75	139.092
2852.1	169.976
2851.45	169.949
2850.81	150.613
2850.16	142.867
2849.51	104.238
2848.86	123.523
2848.21	189.115
2847.57	158.214
2846.92	185.197
2846.27	181.311
2845.62	158.14
2844.97	177.398
2844.33	177.371
2843.68	142.645
2843.03	150.333
2842.38	150.309
2841.73	131.018
2841.08	150.263
2840.43	165.648
2839.78	173.326
2839.14	165.597
2838.49	173.272
2837.84	138.596
2837.19	150.122
2836.54	134.704
2835.89	161.62
2835.24	157.747
2834.59	123.101
2833.94	161.545
2833.29	180.748
2832.64	153.804
2831.99	138.402
2831.34	153.756
2830.69	153.732
2830.04	153.708
2829.39	172.895
2828.74	142.136
2828.08	199.728
2827.43	153.613
2826.78	184.307
2826.13	168.921
2825.48	191.926
2824.83	149.679
2824.18	180.355
2823.53	172.653
2822.87	180.298
2822.22	153.422
2821.57	168.737
2820.92	168.711
2820.27	157.184
2819.61	168.659
2818.96	153.302
2818.31	134.118
2817.66	191.568
2817	218.353
2816.35	210.659
2815.7	160.842
2815.05	176.133
2814.39	176.105
2813.74	172.25
2813.09	183.705
2812.43	168.37
2811.78	172.17
2811.13	172.143
2810.47	179.765
2809.82	164.441
2809.16	156.768
2808.51	141.451
2807.86	194.943
2807.2	194.913
2806.55	179.597
2805.89	168.108
2805.24	164.261
2804.58	171.875
2803.93	171.848
2803.28	187.094
2802.62	194.7
2801.97	198.487
2801.31	190.823
2800.66	183.161
2800	225.101
2799.34	171.66
2798.69	186.89
2798.03	160.166
2797.38	198.27
2796.72	182.99
2796.07	175.338
2795.41	179.122
2794.75	156.231
2794.1	167.636
2793.44	194.275
2792.79	186.627
2792.13	209.447
2791.47	175.147
2790.82	194.154
2790.16	163.673
2789.5	171.259
2788.84	220.699
2788.19	167.401
2787.53	216.826
2786.87	171.152
2786.22	186.336
2785.56	216.725
2784.9	197.683
2784.24	197.652
2783.59	193.821
2782.93	151.992
2782.27	208.957
2781.61	186.133
2780.95	239.276
2780.29	208.859
2779.64	205.03
2778.98	223.979
2778.32	220.148
2777.66	174.573
2777	174.546
2776.34	208.663
2775.68	182.078
2775.02	193.427
2774.36	246.487
2773.71	189.575
2773.05	193.337
2772.39	208.468
2771.73	216.015
2771.07	212.192
2770.41	151.542
2769.75	215.913
2769.09	208.305
2768.43	219.633
2767.77	185.523
2767.11	219.564
2766.45	219.53
2765.79	200.573
2765.12	196.758
2764.46	219.427
2763.8	192.914
2763.14	204.23
2762.48	181.509
2761.82	189.042
2761.16	189.013
2760.5	223
2759.83	207.849
2759.17	222.931
2758.51	185.117
2757.85	215.306
2757.19	230.379
2756.53	215.239
2755.86	215.205
2755.2	207.621
2754.54	230.235
2753.88	215.104
2753.21	237.709
2752.55	211.264
2751.89	264.039
2751.23	188.57
2750.56	256.414
2749.9	229.983
2749.24	226.177
2748.57	207.297
2747.91	184.654
2747.25	222.303
2746.58	226.036
2745.92	195.867
2745.25	241.029
2744.59	214.633
2743.93	207.069
2743.26	222.094
2742.6	210.768
2741.93	210.735
2741.27	225.752
2740.61	244.527
2739.94	218.159
2739.28	251.972
2738.61	233.131
2737.95	240.614
2737.28	229.299
2736.62	214.23
2735.95	232.985
2735.29	210.405
2734.62	251.695
2733.95	202.827
2733.29	240.35
2732.62	172.724
2731.96	240.274
2731.29	213.961
2730.62	198.915
2729.96	213.894
2729.29	243.876
2728.63	213.827
2727.96	195.039
2727.29	240.011
2726.63	258.721
2725.96	273.676
2725.29	202.414
2724.62	243.608
2723.96	232.328
2723.29	228.545
2722.62	217.271
2721.96	183.528
2721.29	228.437
2720.62	213.424
2719.95	220.878
2719.28	198.385
2718.62	224.551
2717.95	209.548
2717.28	213.257
2716.61	216.964
2715.94	239.371
2715.27	239.334
2714.61	213.123
2713.94	213.089
2713.27	291.55
2712.6	224.234
2711.93	272.776
2711.26	227.9
2710.59	197.98
2709.92	280.117
2709.25	261.401
2708.58	246.425
2707.91	220.255
2707.24	268.743
2706.57	246.309
2705.9	182.837
2705.23	257.424
2704.56	279.765
2703.89	234.966
2703.22	220.012
2702.55	242.349
2701.88	219.943
2701.21	208.727
2700.54	245.961
2699.87	238.47
2699.2	204.903
2698.53	223.495
2697.86	204.839
2697.19	271.834
2696.51	249.452
2695.84	230.8
2695.17	249.374
2694.5	260.499
2693.83	249.295
2693.15	256.696
2692.48	223.179
2691.81	234.301
2691.14	249.138
2690.47	241.663
2689.79	282.516
2689.12	252.737
2688.45	248.982
2687.77	245.227
2687.1	241.473
2686.43	263.722
2685.76	285.963
2685.08	271.065
2684.41	274.735
2683.74	233.859
2683.06	296.917
2682.39	226.364
2681.71	237.459
2681.04	241.131
2680.37	237.384
2679.69	278.141
2679.02	278.097
2678.34	263.224
2677.67	240.941
2676.99	296.497
2676.32	266.805
2675.65	266.763
2674.97	274.13
2674.3	292.606
2673.62	274.043
2672.95	296.217
2672.27	270.255
2671.59	262.809
2670.92	307.179
2670.24	244.225
2669.57	255.285
2668.89	233.05
2668.22	288.493
2667.54	273.655
2666.86	258.822
2666.19	269.872
2665.51	273.526
2664.83	273.482
2664.16	254.964
2663.48	254.923
2662.8	269.659
2662.13	240.07
2661.45	295.424
2660.77	383.99
2660.1	232.573
2659.42	258.373
2658.74	262.023
2658.06	287.811
2657.39	295.144
2656.71	258.21
2656.03	287.675
2655.35	306.067
2654.68	250.714
2654	269.107
2653.32	283.807
2652.64	346.412
2651.96	291.087
2651.28	272.621
2650.6	276.261
2649.93	268.852
2649.25	305.633
2648.57	305.584
2647.89	254
2647.21	268.682
2646.53	261.28
2645.85	290.674
2645.17	268.555
2644.49	283.225
2643.81	279.503
2643.13	286.813
2642.45	242.65
2641.77	305.102
2641.09	327.106
2640.41	323.38
2639.73	290.261
2639.05	301.236
2638.37	326.899
2637.69	297.468
2637.01	297.421
2636.33	319.402
2635.65	319.351
2634.96	289.94
2634.28	297.233
2633.6	330.207
2632.92	304.476
2632.24	304.428
2631.56	282.376
2630.88	304.332
2630.19	263.957
2629.51	344.556
2628.83	300.522
2628.15	318.796
2627.46	318.746
2626.78	307.706
2626.1	314.983
2625.42	296.623
2624.73	325.867
2624.05	281.886
2623.37	274.52
2622.69	333.032
2622	314.684
2621.32	314.634
2620.64	288.979
2619.95	299.905
2619.27	318.142
2618.58	340.028
2617.9	303.418
2617.22	365.506
2616.53	292.359
2615.85	314.236
2615.16	317.84
2614.48	350.664
2613.79	354.261
2613.11	332.295
2612.43	317.638
2611.74	324.889
2611.06	328.487
2610.37	335.734
2609.69	332.032
2609	321.035
2608.31	346.517
2607.63	320.933
2606.94	302.651
2606.26	324.477
2605.57	317.136
2604.89	324.375
2604.2	335.256
2603.51	327.915
2602.83	367.936
2602.14	353.308
2601.45	313.192
2600.77	364.12
2600.08	305.812
2599.39	327.604
2598.71	323.912
2598.02	312.944
2597.33	352.916
2596.65	334.672
2595.96	360.079
2595.27	349.112
2594.58	338.148
2593.9	309.011
2593.21	327.137
2592.52	345.256
2591.83	327.033
2591.14	345.147
2590.46	334.194
2589.77	359.565
2589.08	344.982
2588.39	344.928
2587.7	348.503
2587.01	344.818
2586.32	388.313
2585.64	337.452
2584.95	380.933
2584.26	369.991
2583.57	351.798
2582.88	358.995
2582.19	366.189
2581.5	355.256
2580.81	369.697
2580.12	326.152
2579.43	347.84
2578.74	333.294
2578.05	347.73
2577.36	391.134
2576.67	380.209
2575.98	314.98
2575.29	387.328
2574.6	329.357
2573.91	365.492
2573.22	311.162
2572.52	314.73
2571.83	321.914
2571.14	336.329
2570.45	361.586
2569.76	379.605
2569.07	368.701
2568.38	354.186
2567.68	346.902
2566.99	357.686
2566.3	343.179
2565.61	397.303
2564.92	346.682
2564.22	361.069
2563.53	324.911
2562.84	357.345
2562.14	357.288
2561.45	378.882
2560.76	375.214
2560.07	324.653
2559.37	367.881
2558.68	364.216
2557.99	371.37
2557.29	378.52
2556.6	360.438
2555.91	335.154
2555.21	345.911
2554.52	320.637
2553.82	331.392
2553.13	374.558
2552.44	360.095
2551.74	356.437
2551.05	377.979
2550.35	356.323
2549.66	341.872
2548.96	356.21
2548.27	352.556
2547.57	388.469
2546.88	352.444
2546.18	363.175
2545.49	366.712
2544.79	391.816
2544.1	363.002
2543.4	341.383
2542.7	384.444
2542.01	402.344
2541.31	369.954
2540.62	434.537
2539.92	398.561
2539.22	430.808
2538.53	380.487
2537.83	376.837
2537.13	380.366
2536.44	365.954
2535.74	387.419
2535.04	405.29
2534.35	376.537
2533.65	408.747
2532.95	365.663
2532.25	430.123
2531.56	369.13
2530.86	383.404
2530.16	354.682
2529.46	408.356
2528.76	376.058
2528.07	372.417
2527.37	397.42
2526.67	397.356
2525.97	393.714
2525.27	422.28
2524.57	447.259
2523.88	425.723
2523.18	368.424
2522.48	379.095
2521.78	429.095
2521.08	425.452
2520.38	436.108
2519.68	396.723
2518.98	375.219
2518.28	371.586
2517.58	382.244
2516.88	432.188
2516.18	421.406
2515.48	432.05
2514.78	399.851
2514.08	360.522
2513.38	396.154
2512.68	421.069
2511.98	385.324
2511.28	395.964
2510.58	385.201
2509.88	367.309
2509.17	402.906
2508.47	452.751
2507.77	417.035
2507.07	399.149
2506.37	406.212
2505.67	427.523
2504.97	420.331
2504.26	423.825
2503.56	402.391
2502.86	395.206
2502.16	377.344
2501.45	409.317
2500.75	419.928
2500.05	412.745
2499.35	458.927
2498.64	398.385
2497.94	473.006
2497.24	440.928
2496.53	430.192
2495.83	401.685
2495.13	401.621
2494.42	398.003
2493.72	426.364
2493.02	408.533
2492.31	412.02
2491.61	394.197
2490.9	397.685
2490.2	411.822
2489.5	415.306
2488.79	379.749
2488.09	450.658
2487.38	429.298
2486.68	365.377
2485.97	461.082
2485.27	404.269
2484.56	407.75
2483.86	460.861
2483.15	453.698
2482.45	432.362
2481.74	421.663
2481.04	435.766
2480.33	410.901
2479.62	407.293
2478.92	456.804
2478.21	442.569
2477.51	446.038
2476.8	488.439
2476.09	474.206
2475.39	445.824
2474.68	449.29
2473.97	470.441
2473.27	420.854
2472.56	396.034
2471.85	452.538
2471.14	456
2470.44	459.462
2469.73	427.584
2469.02	434.582
2468.31	459.241
2467.61	420.315
2466.9	448.499
2466.19	508.453
2465.48	420.113
2464.77	501.231
2464.07	444.683
2463.36	465.783
2462.65	444.54
2461.94	388.029
2461.23	462.033
2460.52	444.327
2459.81	433.678
2459.1	472.386
2458.4	430.014
2457.69	422.897
2456.98	468.636
2456.27	457.992
2455.56	521.322
2454.85	461.367
2454.14	429.601
2453.43	489.385
2452.72	485.786
2452.01	450.512
2451.3	443.401
2450.59	418.701
2449.88	471.403
2449.16	411.532
2448.45	499.386
2447.74	478.208
2447.03	453.522
2446.32	418.298
2445.61	439.318
2444.9	467.36
2444.19	474.311
2443.47	484.774
2442.76	463.622
2442.05	467.06
2441.34	442.407
2440.63	459.889
2439.91	487.895
2439.2	445.703
2438.49	487.738
2437.78	480.643
2437.06	427.95
2436.35	519.069
2435.64	511.972
2434.93	452.286
2434.21	466.236
2433.5	501.21
2432.79	480.103
2432.07	459.003
2431.36	462.433
2430.64	462.359
2429.93	581.357
2429.22	437.699
2428.5	493.645
2427.79	476.063
2427.07	486.487
2426.36	493.407
2425.65	461.839
2424.93	461.765
2424.22	486.174
2423.5	503.581
2422.79	510.493
2422.07	443.988
2421.36	447.412
2420.64	468.309
2419.92	527.637
2419.21	482.133
2418.49	485.549
2417.78	537.86
2417.06	481.901
2416.35	488.806
2415.63	429.382
2414.91	471.197
2414.2	488.571
2413.48	509.427
2412.76	537.255
2412.05	474.382
2411.33	523.132
2410.61	484.691
2409.9	526.45
2409.18	488.021
2408.46	498.398
2407.74	547.104
2407.03	459.912
2406.31	519.059
2405.59	508.526
2404.87	518.892
2404.16	553.628
2403.44	525.688
2402.72	487.314
2402	518.558
2401.28	504.556
2400.56	535.787
2399.85	497.436
2399.13	521.702
2398.41	490.321
2397.69	511.103
2396.97	490.163
2396.25	503.987
2395.53	562.985
2394.81	524.673
2394.09	562.803
2393.37	496.715
2392.65	527.892
2391.93	541.697
2391.21	506.891
2390.49	551.936
2389.77	489.374
2389.05	555.228
2388.33	475.338
2387.61	544.642
2386.89	537.617
2386.17	540.999
2385.45	565.183
2384.73	526.957
2384	540.737
2383.28	502.527
2382.56	488.586
2381.84	512.759
2381.12	519.604
2380.4	547.228
2379.67	560.992
2378.95	602.449
2378.23	540.04
2377.51	512.263
2376.79	539.866
2376.06	543.239
2375.34	570.828
2374.62	567.276
2373.9	539.517
2373.17	580.925
2372.45	636.148
2371.73	508.145
2371	539.169
2370.28	608.195
2369.56	535.54
2368.83	559.635
2368.11	556.091
2367.38	549.094
2366.66	559.364
2365.94	552.369
2365.21	566.087
2364.49	593.605
2363.76	534.849
2363.04	562.363
2362.31	596.767
2361.59	589.773
2360.86	551.745
2360.14	565.448
2359.41	568.804
2358.69	582.499
2357.96	578.958
2357.24	592.647
2356.51	575.326
2355.79	544.233
2355.06	599.248
2354.33	557.83
2353.61	605.94
2352.88	550.765
2352.15	602.302
2351.43	560.911
2350.7	584.905
2349.98	595.13
2349.25	557.199
2348.52	560.548
2347.79	591.403
2347.07	539.74
2346.34	591.212
2345.61	615.173
2344.88	573.84
2344.16	518.777
2343.43	580.524
2342.7	570.127
2341.97	573.469
2341.25	576.809
2340.52	593.88
2339.79	607.513
2339.06	549.076
2338.33	603.885
2337.6	620.941
2336.87	572.82
2336.14	617.31
2335.42	562.347
2334.69	630.824
2333.96	606.727
2333.23	616.911
2332.5	599.677
2331.77	579.023
2331.04	599.483
2330.31	565.135
2329.58	657.506
2328.85	592.344
2328.12	592.248
2327.39	564.769
2326.66	609.168
2325.93	650.13
2325.2	602.128
2324.47	598.61
2323.73	588.253
2323	622.353
2322.27	635.928
2321.54	628.988
2320.81	553.693
2320.08	666.374
2319.35	615.015
2318.61	611.499
2317.88	666.05
2317.15	587.395
2316.42	597.544
2315.69	672.554
2314.95	593.937
2314.22	627.969
2313.49	614.218
2312.76	590.236
2312.02	627.664
2311.29	610.509
2310.56	610.41
2309.82	630.768
2309.09	620.439
2308.36	610.113
2307.62	671.356
2306.89	565.619
2306.16	701.799
2305.42	633.56
2304.69	592.589
2303.95	606.114
2303.22	619.634
2302.48	588.897
2301.75	599.012
2301.02	643.153
2300.28	677.072
2299.55	680.364
2298.81	649.642
2298.08	598.526
2297.34	622.23
2296.6	591.532
2295.87	632.225
2295.13	638.919
2294.4	655.805
2293.66	669.289
2292.93	655.592
2292.19	618.127
2291.45	665.567
2290.72	638.297
2289.98	658.561
2289.24	655.06
2288.51	604.051
2287.77	651.454
2287.03	681.881
2286.3	620.716
2285.56	647.746
2284.82	701.893
2284.08	640.755
2283.35	640.65
2282.61	677.827
2281.87	674.328
2281.13	704.711
2280.4	647.009
2279.66	660.452
2278.92	629.867
2278.18	690.709
2277.44	677.056
2276.7	629.56
2275.97	626.073
2275.23	673.342
2274.49	693.531
2273.75	750.921
2273.01	696.687
2272.27	605.276
2271.53	632.224
2270.79	625.361
2270.05	689.475
2269.31	685.983
2268.57	709.522
2267.83	682.382
2267.09	739.69
2266.35	736.192
2265.61	631.402
2264.87	675.186
2264.13	668.325
2263.39	644.593
2262.65	701.851
2261.91	678.12
2261.17	671.263
2260.42	698.135
2259.68	704.766
2258.94	684.422
2258.2	667.455
2257.46	667.347
2256.72	714.416
2255.97	771.579
2255.23	700.708
2254.49	720.804
2253.75	750.996
2253	744.139
2252.26	791.15
2251.52	760.727
2250.78	743.775
2250.03	736.924
2249.29	713.253
2248.55	716.501
2247.8	706.294
2247.06	749.895
2246.32	749.773
2245.57	689.141
2244.83	682.306
2244.09	715.801
2243.34	708.964
2242.6	769.319
2241.85	785.988
2241.11	725.409
2240.36	745.438
2239.62	705.029
2238.88	761.978
2238.13	735.004
2237.39	734.884
2236.64	795.156
2235.89	691.036
2235.15	778.127
2234.4	744.465
2233.66	761.108
2232.91	740.87
2232.17	740.749
2231.42	770.79
2230.67	703.65
2229.93	760.488
2229.18	746.965
2228.44	736.796
2227.69	746.721
2226.94	753.295
2226.2	776.604
2225.45	759.743
2224.7	732.848
2223.95	722.691
2223.21	809.55
2222.46	772.626
2221.71	779.188
2220.96	732.25
2220.22	738.817
2219.47	795.519
2218.72	778.679
2217.97	755.162
2217.22	775.084
2216.48	771.617
2215.73	758.132
2214.98	794.739
2214.23	777.916
2213.48	781.127
2212.73	754.299
2211.98	780.872
2211.23	757.388
2210.48	807.304
2209.73	723.787
2208.98	750.347
2208.23	780.234
2207.48	820.112
2206.73	786.645
2205.98	793.182
2205.23	769.727
2204.48	796.254
2203.73	799.455
2202.98	819.307
2202.23	792.533
2201.48	749.121
2200.73	815.576
2199.98	835.413
2199.23	748.754
2198.48	815.176
2197.72	821.696
2196.97	761.691
2196.22	794.822
2195.47	751.466
2194.72	777.94
2193.97	724.629
2193.21	797.626
2192.46	814.11
2191.71	770.786
2190.96	827.13
2190.2	820.352
2189.45	793.652
2188.7	800.163
2187.94	803.351
2187.19	853.006
2186.44	862.822
2185.68	839.455
2184.93	852.587
2184.18	812.644
2183.42	819.144
2182.67	782.536
2181.91	812.245
2181.16	828.686
2180.41	782.151
2179.65	811.846
2178.9	831.591
2178.14	798.33
2177.39	818.071
2176.63	844.429
2175.88	811.181
2175.12	864.014
2174.37	800.985
2173.61	800.854
2172.86	866.898
2172.1	873.373
2171.34	912.922
2170.59	843.322
2169.83	833.264
2169.08	836.433
2168.32	776.797
2167.56	793.194
2166.81	865.762
2166.05	842.492
2165.29	878.691
2164.54	858.73
2163.78	815.66
2163.02	802.319
2162.27	845.103
2161.51	874.67
2160.75	841.525
2159.99	818.29
2159.23	917.126
2158.48	870.797
2157.72	844.271
2156.96	896.89
2156.2	906.634
2155.44	909.781
2154.69	860.195
2153.93	836.988
2153.17	843.44
2152.41	866.36
2151.65	810.227
2150.89	899.006
2150.13	842.886
2149.37	898.711
2148.61	868.94
2147.85	881.961
2147.09	825.88
2146.33	858.643
2145.57	907.841
2144.81	861.649
2144.05	947.001
2143.29	890.955
2142.53	900.67
2141.77	962.967
2141.01	870.8
2140.25	870.656
2139.49	932.928
2138.73	913.068
2137.97	978.595
2137.2	866.801
2136.44	869.941
2135.68	919.032
2134.92	879.5
2134.16	935.136
2133.4	866.088
2132.63	892.187
2131.87	888.76
2131.11	937.8
2130.35	944.202
2129.58	888.322
2128.82	943.892
2128.06	914.245
2127.29	907.541
2126.53	1002.39
2125.77	881.041
2125	923.467
2124.24	880.751
2123.48	959.173
2122.71	929.557
2121.95	958.857
2121.19	965.244
2120.42	987.985
2119.66	889.694
2118.89	873.196
2118.13	922.1
2117.36	977.526
2116.6	892.377
2115.83	885.694
2115.07	954.17
2114.3	983.417
2113.54	960.389
2112.77	937.368
2112.01	956.807
2111.24	897.879
2110.48	969.549
2109.71	956.334
2108.94	995.337
2108.18	952.756
2107.41	939.55
2106.64	958.965
2105.88	955.546
2105.11	981.474
2104.34	955.231
2103.58	1003.97
2102.81	961.435
2102.04	905.88
2101.28	908.989
2100.51	947.929
2099.74	1012.91
2098.97	973.668
2098.21	931.181
2097.44	966.836
2096.67	1054.56
2095.9	1005.57
2095.13	959.85
2094.36	943.426
2093.6	907.491
2092.83	1011.41
2092.06	1040.51
2091.29	978.565
2090.52	978.404
2089.75	978.242
2088.98	965.083
2088.21	1016.91
2087.44	987.503
2086.67	964.605
2085.9	1003.41
2085.13	983.767
2084.36	990.097
2083.59	973.705
2082.82	986.525
2082.05	992.852
2081.28	1012.15
2080.51	934.14
2079.74	1063.71
2078.97	995.438
2078.2	979.064
2077.43	1030.76
2076.65	1001.43
2075.88	972.098
2075.11	991.377
2074.34	965.299
2073.57	987.81
2072.8	1032.98
2072.02	1026.34
2071.25	984.084
2070.48	980.684
2069.71	941.69
2068.93	1022.42
2068.16	1038.43
2067.39	986.505
2066.61	1031.62
2065.84	1021.75
2065.07	1031.28
2064.29	1024.64
2063.52	1008.31
2062.75	1040.46
2061.97	1033.82
2061.2	1095.03
2060.43	981.808
2059.65	1007.48
2058.88	1026.68
2058.1	1016.83
2057.33	1023.12
2056.55	1093.94
2055.78	1061.49
2055	1090.35
2054.23	1032.12
2053.45	1015.82
2052.68	993.082
2051.9	992.918
2051.13	976.637
2050.35	1031.26
2049.57	1008.54
2048.8	1085.69
2048.02	979.212
2047.25	1098.21
2046.47	1059.39
2045.69	1052.77
2044.92	1065.48
2044.14	984.838
2043.36	1036.16
2042.59	1077.82
2041.81	1129.11
2041.03	1061.38
2040.25	948.649
2039.48	1093.18
2038.7	1102.64
2037.92	1063.89
2037.14	1063.71
2036.37	1092.45
2035.59	1124.4
2034.81	1085.67
2034.03	1072.64
2033.25	1091.73
2032.47	1136.49
2031.69	1084.95
2030.92	1055.88
2030.14	1087.8
2029.36	1087.62
2028.58	1074.6
2027.8	1180.27
2027.02	1112.73
2026.24	1106.13
2025.46	1147.62
2024.68	1150.64
2023.9	1118.4
2023.12	1102.19
2022.34	1140.45
2021.56	1066.6
2020.78	1079.23
2020	1075.85
2019.21	1126.89
2018.43	1168.32
2017.65	1196.92
2016.87	1078.33
2016.09	1129.34
2015.31	1157.94
2014.53	1112.98
2013.74	1119.19
2012.96	1058.26
2012.18	1115.62
2011.4	1121.83
2010.62	1099.27
2009.83	1137.43
2009.05	1207.52
2008.27	1184.96
2007.49	1165.6
2006.7	1111.13
2005.92	1040.71
2005.14	1097.99
2004.35	1088.24
2003.57	1081.67
2002.79	1142.11
2002	1170.63
2001.22	1164.05
2000.43	1119.22
1999.65	1144.54
1998.87	1157.1
1998.08	1179.22
1997.3	1258.68
1996.51	1105.55
1995.73	1169.07
1994.94	1156.14
1994.16	1175.05
1993.37	1187.59
1992.59	1079.16
1991.8	1117.17
1991.02	1113.81
1990.23	1158.17
1989.44	1272.5
1988.66	1167.32
1987.87	1141.69
1987.09	1182.83
1986.3	1192.17
1985.51	1109.33
1984.73	1239.45
1983.94	1143.92
1983.15	1223.15
1982.37	1102.24
1981.58	1270.38
1980.79	1181.26
1980	1187.41
1979.22	1184.04
1978.43	1234.63
1977.64	1174.13
1976.85	1151.72
1976.06	1268.9
1975.28	1205.26
1974.49	1167
1973.7	1182.66
1972.91	1245.87
1972.12	1201.29
1971.33	1226.44
1970.54	1204.05
1969.76	1194.35
1968.97	1273.34
1968.18	1219.29
1967.39	1190.59
1966.6	1193.55
1965.81	1187.02
1965.02	1246.96
1964.23	1221.44
1963.44	1262.36
1962.65	1214.7
1961.86	1236.64
1961.07	1268.06
1960.28	1252.04
1959.48	1261.31
1958.69	1235.81
1957.9	1216.65
1957.11	1295.43
1956.32	1247.83
1955.53	1266.58
1954.74	1291.63
1953.94	1218.79
1953.15	1212.27
1952.36	1227.85
1951.57	1233.96
1950.78	1233.75
1949.98	1290.34
1949.19	1277.5
1948.4	1229.98
1947.61	1321.22
1946.81	1333.61
1946.02	1295.56
1945.23	1270.13
1944.43	1285.68
1943.64	1291.77
1942.85	1307.3
1942.05	1310.23
1941.26	1275.37
1940.46	1243.67
1939.67	1309.58
1938.88	1343.98
1938.08	1321.73
1937.29	1230.26
1936.49	1314.99
1935.7	1236.14
1934.9	1226.5
1934.11	1304.9
1933.31	1254.38
1932.52	1266.75
1931.72	1285.39
1930.93	1363.73
1930.13	1322.66
1929.33	1253.33
1928.54	1300.23
1927.74	1362.82
1926.95	1293.52
1926.15	1287.03
1925.35	1267.98
1924.56	1336.81
1923.76	1345.99
1922.96	1361.45
1922.17	1292.22
1921.37	1339.05
1920.57	1269.84
1919.77	1285.31
1918.98	1247.48
1918.18	1372.62
1917.38	1378.66
1916.58	1328.31
1915.78	1287.36
1914.99	1318.47
1914.19	1340.16
1913.39	1311.76
1912.59	1389.8
1911.79	1333.23
1910.99	1354.91
1910.19	1411
1909.39	1332.56
1908.59	1354.23
1907.8	1325.86
1907	1400.68
1906.2	1294.16
1905.4	1300.19
1904.6	1321.85
1903.8	1365.37
1903	1321.41
1902.2	1308.69
1901.39	1336.58
1900.59	1345.72
1899.79	1367.35
1898.99	1357.76
1898.19	1376.25
1897.39	1329.22
1896.59	1357.07
1895.79	1363.09
1894.99	1425.23
1894.18	1424.99
1893.38	1387.34
1892.58	1380.87
1891.78	1393.11
1890.98	1324.32
1890.17	1442.49
1889.37	1407.98
1888.57	1339.23
1887.76	1367.03
1886.96	1422.84
1886.16	1400.81
1885.36	1363.23
1884.55	1400.34
1883.75	1431.22
1882.94	1465.2
1882.14	1427.63
1881.34	1349.65
1880.53	1455.14
1879.73	1408.26
1878.92	1358.29
1878.12	1407.79
1877.32	1423.09
1876.51	1398
1875.71	1456.78
1874.9	1413.06
1874.1	1353.82
1873.29	1412.58
1872.49	1396.82
1871.68	1430.73
1870.87	1411.87
1870.07	1482.99
1869.26	1392.78
1868.46	1386.35
1867.65	1460.54
1866.84	1410.69
1866.04	1425.95
1865.23	1431.91
1864.42	1437.86
1863.62	1428.33
1862.81	1480.75
1862	1458.82
1861.2	1421.41
1860.39	1476.91
1859.58	1461.18
1858.77	1414.51
1857.96	1377.13
1857.16	1435.69
1856.35	1506.6
1855.54	1506.35
1854.73	1394.76
1853.92	1450.19
1853.12	1462.31
1852.31	1424.97
1851.5	1437.09
1850.69	1504.83
1849.88	1399.54
1849.07	1525.95
1848.26	1500.98
1847.45	1531.61
1846.64	1414.03
1845.83	1534.18
1845.02	1438.25
1844.21	1524.41
1843.4	1517.98
1842.59	1465.28
1841.78	1498.97
1840.97	1498.71
1840.16	1483.04
1839.35	1501.29
1838.54	1519.53
1837.72	1500.79
1836.91	1482.05
1836.1	1478.72
1835.29	1478.47
1834.48	1447.42
1833.67	1573.42
1832.85	1539.29
1832.04	1468.24
1831.23	1477.22
1830.42	1483.13
1829.6	1485.96
1828.79	1553.38
1827.98	1448.55
1827.17	1534.4
1826.35	1454.21
1825.54	1540.03
1824.73	1490.6
1823.91	1496.5
1823.1	1560.76
1822.29	1554.36
1821.47	1615.52
1820.66	1513.91
1819.84	1611.91
1819.03	1534.89
1818.21	1620.57
1817.4	1540.51
1816.58	1570.93
1815.77	1567.6
1814.95	1594.94
1814.14	1521.07
1813.32	1640.4
1812.51	1612.53
1811.69	1600
1810.88	1572.14
1810.06	1547.37
1809.25	1645.14
1808.43	1608.11
1807.61	1580.27
1806.8	1567.76
1805.98	1610.35
1805.16	1607.02
1804.35	1594.51
1803.53	1520.8
1802.71	1566.43
1801.89	1578.41
1801.08	1578.14
1800.26	1614.57
1799.44	1553.15
1798.62	1623.19
1797.81	1586.24
1796.99	1546.25
1796.17	1637.65
1795.35	1628.21
1794.53	1621.82
1793.71	1584.9
1792.9	1566.32
1792.08	1639.32
1791.26	1584.1
1790.44	1592.99
1789.62	1675.1
1788.8	1558.89
1787.98	1570.83
1787.16	1558.37
1786.34	1542.86
1785.52	1612.71
1784.7	1591.1
1783.88	1572.55
1783.06	1608.85
1782.24	1684.74
1781.42	1638.77
1780.6	1675.04
1779.78	1641.26
1778.95	1671.42
1778.13	1671.14
1777.31	1658.69
1776.49	1673.62
1775.67	1688.55
1774.85	1648.72
1774.02	1608.9
1773.2	1608.63
1772.38	1611.4
1771.56	1641.52
1770.74	1653.4
1769.91	1668.32
1769.09	1637.65
1768.27	1710.28
1767.44	1694.81
1766.62	1670.22
1765.8	1633.51
1764.97	1678.77
1764.15	1672.41
1763.33	1723.72
1762.5	1711.29
1761.68	1744.37
1760.85	1686.45
1760.03	1731.65
1759.21	1682.84
1758.38	1749.25
1757.56	1661.05
1756.73	1736.54
1755.91	1721.09
1755.08	1845.01
1754.26	1708.39
1753.43	1835.3
1752.6	1792.6
1751.78	1752.94
1750.95	1876.75
1750.13	1770.5
1749.3	1827.7
1748.47	1785.03
1747.65	1911.78
1746.82	1917.5
1745.99	1953.46
1745.17	1877.55
1744.34	2070.7
1743.51	2145.9
1742.69	2184.83
1741.86	2250.92
1741.03	2317
1740.2	2262.24
1739.38	2403.79
1738.55	2457.73
1737.72	2484.48
1736.89	2475.01
1736.06	2565.12
1735.23	2790.98
1734.4	2706.04
1733.58	2826.23
1732.75	2937.33
1731.92	2846.38
1731.09	2960.45
1730.26	2962.97
1729.43	2950.41
1728.6	3118.65
1727.77	3127.15
1726.94	3162.77
1726.11	3195.36
1725.28	3212.88
1724.45	3119.01
1723.62	3256.95
1722.79	3148.05
1721.96	3225.75
1721.13	3140.96
1720.3	3188.56
1719.46	3034.63
1718.63	3139.36
1717.8	3072.68
1716.97	2963.94
1716.14	2969.45
1715.31	2836.73
1714.47	2734.09
1713.64	2598.45
1712.81	2519.92
1711.98	2369.34
1711.14	2269.85
1710.31	2368.53
1709.48	2248.07
1708.65	2202.68
1707.81	2121.29
1706.98	2129.93
1706.15	1976.6
1705.31	1970.27
1704.48	2032.9
1703.64	1978.59
1702.81	1954.27
1701.98	1941.95
1701.14	1923.65
1700.31	1893.36
1699.47	1842.12
1698.64	1883.73
1697.8	1874.43
1696.97	1930.99
1696.13	1894.74
1695.3	1888.44
1694.46	1852.21
1693.63	1881.81
1692.79	1827.65
1691.95	1833.32
1691.12	1859.92
1690.28	1769.91
1689.45	1913.09
1688.61	1742.41
1687.77	1864.63
1686.94	1909.12
1686.1	1887.89
1685.26	1783.03
1684.42	1863.36
1683.59	1857.07
1682.75	1889.59
1681.91	1871.36
1681.07	1865.07
1680.24	1894.59
1679.4	1888.3
1678.56	1879.03
1677.72	1896.6
1676.88	1845.59
1676.04	1881.05
1675.21	1949.28
1674.37	1791.01
1673.53	1832.42
1672.69	1784.44
1671.85	1819.88
1671.01	1882.11
1670.17	1917.52
1669.33	1932.07
1668.49	1866.26
1667.65	1845.11
1666.81	1806.11
1665.97	1841.51
1665.13	1817.4
1664.29	1817.09
1663.45	1846.51
1662.61	1968.09
1661.77	1890.47
1660.92	1857.45
1660.08	1812.57
1659.24	1889.5
1658.4	1892.15
1657.56	1829.46
1656.72	1760.85
1655.87	1805.08
1655.03	1837.43
1654.19	1917.24
1653.35	1804.16
1652.5	1901.75
1651.66	1895.5
1650.82	1927.8
1649.98	1918.57
1649.13	1962.72
1648.29	1828.99
1647.45	1911.66
1646.6	1881.7
1645.76	1848.79
1644.91	1904.76
1644.07	1821.5
1643.23	1921.87
1642.38	1900.82
1641.54	2001.15
1640.69	1914.97
1639.85	1908.72
1639	1920.23
1638.16	1952.45
1637.31	1937.32
1636.47	1945.86
1635.62	1960.31
1634.78	1968.85
1633.93	1953.73
1633.08	2021.37
1632.24	2006.25
1631.39	1920.23
1630.55	1940.58
1629.7	2019.99
1628.85	2052.12
1628.01	1951.39
1627.16	2107.5
1626.31	2092.38
1625.46	2006.46
1624.62	2121.17
1623.77	2144.4
1622.92	2170.58
1622.07	2279.31
1621.23	2373.26
1620.38	2378.75
1619.53	2702.52
1618.68	2911.27
1617.83	3217.17
1616.98	3631.95
1616.13	3972.97
1615.29	4302.08
1614.44	4866.62
1613.59	4830.46
1612.74	4844.35
1611.89	4817.03
1611.04	4524.94
1610.19	4150.58
1609.34	3841.06
1608.49	3634.56
1607.64	3460.47
1606.79	3204.14
1605.94	2991.97
1605.09	2794.58
1604.24	2832.29
1603.38	2585.05
1602.53	2446.57
1601.68	2410.91
1600.83	2378.2
1599.98	2307.34
1599.13	2236.5
1598.27	2241.99
1597.42	2174.12
1596.57	2109.21
1595.72	2050.19
1594.87	2064.5
1594.01	2137.45
1593.16	2119.49
1592.31	2054.64
1591.45	2045.5
1590.6	2001.2
1589.75	2033.08
1588.89	2070.81
1588.04	2064.6
1587.19	2134.51
1586.33	1976.06
1585.48	2019.63
1584.62	2025.13
1583.77	2030.64
1582.92	2056.62
1582.06	1986.07
1581.21	2017.89
1580.35	2055.56
1579.5	2066.9
1578.64	1932.09
1577.78	2086.65
1576.93	2030.77
1576.07	2097.62
1575.22	2158.6
1574.36	2064.77
1573.51	2003.1
1572.65	1976.48
1571.79	2011.17
1570.94	1972.88
1570.08	2048.41
1569.22	1963.45
1568.37	2103.13
1567.51	1948.19
1566.65	2090.74
1565.79	1970.85
1564.94	1988
1564.08	2083.83
1563.22	1993.14
1562.36	2118.08
1561.5	2021.59
1560.65	2038.71
1559.79	1974.3
1558.93	1947.76
1558.07	1967.8
1557.21	1993.65
1556.35	1920.56
1555.49	1963.87
1554.63	2059.53
1553.77	2001.01
1552.91	2055.91
1552.05	2009.04
1551.19	1965.09
1550.33	1985.1
1549.47	1952.79
1548.61	2074.48
1547.75	2074.13
1546.89	1954.69
1546.03	2018.24
1545.17	2044.02
1544.31	2075.6
1543.45	1976.56
1542.58	2130.02
1541.72	1958.47
1540.86	2117.69
1540	2033.21
1539.14	2038.66
1538.28	2029.61
1537.41	2037.96
1536.55	1999.93
1535.69	2089.42
1534.82	1993.44
1533.96	2045.24
1533.1	2082.54
1532.24	1972.14
1531.37	2049.98
1530.51	2040.94
1529.64	2124.53
1528.78	2025.77
1527.92	2039.88
1527.05	1981.67
1526.19	2016.04
1525.32	2096.67
1524.46	1971.97
1523.59	2069.93
1522.73	2092.69
1521.86	2005.63
1521	2039.96
1520.13	2065.61
1519.27	2013.26
1518.4	2108.22
1517.54	2006.79
1516.67	2017.99
1515.8	2029.19
1514.94	2005.75
1514.07	2022.72
1513.21	2088.72
1512.34	2030.67
1511.47	1929.38
1510.6	2021.32
1509.74	2046.92
1508.87	1986.03
1508	1939.58
1507.14	2089.08
1506.27	2106.01
1505.4	2120.05
1504.53	2021.76
1503.66	2044.45
1502.8	2165.01
1501.93	2063.89
1501.06	2066.41
1500.19	2031.52
1499.32	2105.98
1498.45	2122.87
1497.58	2050.6
1496.71	2102.01
1495.84	2087.27
1494.97	2015.05
1494.1	2098.05
1493.23	2034.46
1492.36	2183.51
1491.49	2134.3
1490.62	2010.43
1489.75	2130.69
1488.88	2078.64
1488.01	2132.82
1487.14	2029.13
1486.27	2100.52
1485.4	2117.37
1484.52	2145.69
1483.65	2090.83
1482.78	2142.08
1481.91	2204.79
1481.04	2061.08
1480.17	2066.45
1479.29	2080.42
1478.42	2160.29
1477.55	2062.51
1476.67	2076.48
1475.8	2173.48
1474.93	2204.6
1474.06	2132.65
1473.18	2106.52
1472.31	2117.61
1471.43	2085.77
1470.56	2105.43
1469.69	2093.62
1468.81	2110.42
1467.94	2210.13
1467.06	2126.84
1466.19	2157.91
1465.31	2266.13
1464.44	2191.45
1463.56	2236.78
1462.69	2247.82
1461.81	2353.09
1460.94	2195.64
1460.06	2252.36
1459.19	2149.21
1458.31	2300.09
1457.43	2279.72
1456.56	2273.62
1455.68	2330.27
1454.8	2247.16
1453.93	2241.07
1453.05	2226.43
1452.17	2300.15
1451.3	2214.26
1450.42	2259.46
1449.54	2298.95
1448.66	2349.82
1447.78	2269.68
1446.91	2368.94
1446.03	2217.65
1445.15	2356.73
1444.27	2270.95
1443.39	2276.24
1442.51	2261.63
1441.64	2275.45
1440.76	2252.31
1439.88	2328.69
1439	2314.07
1438.12	2251.14
1437.24	2264.95
1436.36	2250.35
1435.48	2264.17
1434.6	2221.17
1433.72	2192.39
1432.84	2189.16
1431.96	2242.72
1431.08	2228.14
1430.2	2284.51
1429.31	2198.99
1428.43	2241.17
1427.55	2152.85
1426.67	2212.03
1425.79	2274.02
1424.91	2216.93
1424.02	2134.34
1423.14	2244.5
1422.26	2198.77
1421.38	2172.89
1420.49	2183.85
1419.61	2240.11
1418.73	2299.18
1417.85	2242.16
1416.96	2315.36
1416.08	2266.85
1415.2	2317.39
1414.31	2268.89
1413.43	2293.95
1412.54	2330.32
1411.66	2335.57
1410.78	2425.63
1409.89	2317.79
1409.01	2385.22
1408.12	2333.94
1407.24	2299.63
1406.35	2265.34
1405.47	2304.48
1404.58	2264.55
1403.7	2218.99
1402.81	2303.28
1401.92	2221.04
1401.04	2319.41
1400.15	2307.72
1399.27	2349.63
1398.38	2236.41
1397.49	2216.28
1396.61	2238.45
1395.72	2226.79
1394.83	2141.85
1393.94	2152.75
1393.06	2194.63
1392.17	2321
1391.28	2261.46
1390.39	2154.07
1389.51	2238.15
1388.62	2237.76
1387.73	2271.14
1386.84	2267.93
1385.95	2270.35
1385.06	2188.38
1384.17	2238.62
1383.29	2331.02
1382.4	2215.35
1381.51	2231.83
1380.62	2324.18
1379.73	2172.04
1378.84	2137.95
1377.95	2252.74
1377.06	2316.94
1376.17	2263.19
1375.28	2310.52
1374.39	2217.49
1373.5	2253.59
1372.6	2345.79
1371.71	2280.85
1370.82	2294.48
1369.93	2367
1369.04	2335.74
1368.15	2360.57
1367.26	2290.08
1366.36	2295.28
1365.47	2311.69
1364.58	2174.01
1363.69	2260.47
1362.79	2226.47
1361.9	2259.68
1361.01	2250.88
1360.11	2261.69
1359.22	2202.52
1358.33	2171.36
1357.43	2131.81
1356.54	2251.72
1355.65	2178.61
1354.75	2172.64
1353.86	2183.44
1352.96	2160.7
1352.07	2193.86
1351.17	2196.27
1350.28	2218.23
1349.39	2159.19
1348.49	2264.93
1347.59	2264.54
1346.7	2225.06
1345.8	2305.62
1344.91	2157.3
1344.01	2221.1
1343.12	2240.24
1342.22	2225.9
1341.32	2247.82
1340.43	2278.1
1339.53	2224.73
1338.63	2232.71
1337.74	2285.27
1336.84	2259.79
1335.94	2259.4
1335.04	2192.15
1334.15	2255.82
1333.25	2305.55
1332.35	2296.79
1331.45	2352.06
1330.55	2231.98
1329.66	2251.06
1328.76	2250.67
1327.86	2280.87
1326.96	2258.23
1326.06	2277.29
1325.16	2368.64
1324.26	2309.85
1323.36	2223.29
1322.46	2325.71
1321.56	2266.97
1320.66	2361.01
1319.76	2321.72
1318.86	2424.05
1317.96	2307.02
1317.06	2406.54
1316.16	2375.59
1315.26	2283.61
1314.36	2377.53
1313.46	2404.86
1312.55	2390.57
1311.65	2534.33
1310.75	2553.3
1309.85	2541.76
1308.95	2569.03
1308.04	2599.06
1307.14	2698.34
1306.24	2600.92
1305.34	2617.08
1304.43	2613.85
1303.53	2563.56
1302.63	2560.34
1301.72	2584.8
1300.82	2603.71
1299.92	2677.95
1299.01	2583.44
1298.11	2798.7
1297.21	2726.31
1296.3	2747.95
1295.4	2744.7
1294.49	2932.15
1293.59	2912.29
1292.68	3044.38
1291.78	2983.08
1290.87	2927.33
1289.97	3045.54
1289.06	3102.98
1288.16	3027.91
1287.25	2936.31
1286.34	2982.7
1285.44	3114.59
1284.53	3100.26
1283.62	2942.52
1282.72	2958.55
1281.81	2911.16
1280.9	2888.6
1280	2912.89
1279.09	2846.25
1278.18	2826.47
1277.27	2765.38
1276.37	2778.66
1275.46	2745.13
1274.55	2689.59
1273.64	2675.36
1272.73	2685.89
1271.82	2619.39
1270.92	2651.94
1270.01	2601.96
1269.1	2645.51
1268.19	2430.58
1267.28	2606.09
1266.37	2503.93
1265.46	2492.5
1264.55	2492.06
1263.64	2502.61
1262.73	2460.97
1261.82	2430.33
1260.91	2366.75
1260	2369.08
1259.09	2374.16
1258.18	2395.69
1257.27	2378.81
1256.35	2386.62
1255.44	2356.03
1254.53	2424.17
1253.62	2368.91
1252.71	2236.91
1251.79	2250.22
1250.88	2285.45
1249.97	2268.6
1249.06	2287.38
1248.14	2366.41
1247.23	2245.5
1246.32	2223.2
1245.41	2266.61
1244.49	2252.52
1243.58	2254.86
1242.66	2295.5
1241.75	2240.39
1240.84	2352.13
1239.92	2288.82
1239.01	2200.93
1238.09	2288.02
1237.18	2241.15
1236.26	2287.21
1235.35	2289.54
1234.43	2204.45
1233.52	2255.96
1232.6	2247.37
1231.69	2197.83
1230.77	2197.44
1229.86	2194.32
1228.94	2117.53
1228.02	2185.36
1227.11	2239.53
1226.19	2168.23
1225.27	2162.39
1224.36	2287.42
1223.44	2202.52
1222.52	2166.7
1221.6	2223.54
1220.69	2209.52
1219.77	2217.31
1218.85	2208.74
1217.93	2197.46
1217.01	2153.51
1216.1	2153.13
1215.18	2182.69
1214.26	2225.84
1213.34	2271.7
1212.42	2244.1
1211.5	2118.6
1210.58	2172.61
1209.66	2196.69
1208.74	2179.99
1207.82	2217.66
1206.9	2252.59
1205.98	2148.95
1205.06	2200.18
1204.14	2213.37
1203.22	2169.54
1202.3	2158.29
1201.38	2228.49
1200.46	2173.81
1199.54	2208.7
1198.61	2192.04
1197.69	2199.79
1196.77	2283.47
1195.85	2307.47
1194.93	2220.31
1194	2165.7
1193.08	2216.81
1192.16	2341.06
1191.24	2161.85
1190.31	2231.89
1189.39	2166.5
1188.47	2304.2
1187.54	2255.07
1186.62	2287.15
1185.7	2319.22
1184.77	2302.57
1183.85	2299.46
1182.92	2342.33
1182	2341.91
1181.07	2306.35
1180.15	2338.38
1179.23	2332.56
1178.3	2359.17
1177.37	2377.67
1176.45	2371.84
1175.52	2576.7
1174.6	2384.51
1173.67	2411.08
1172.75	2367.47
1171.82	2391.34
1170.89	2358.53
1169.97	2350.02
1169.04	2379.28
1168.11	2376.16
1167.19	2213.94
1166.26	2216.24
1165.33	2242.81
1164.4	2191.2
1163.48	2231.23
1162.55	2247
1161.62	2214.28
1160.69	2227.35
1159.76	2205.41
1158.83	2256.18
1157.91	2290.77
1156.98	2171.94
1156.05	2279.2
1155.12	2160.41
1154.19	2243.42
1153.26	2189.23
1152.33	2245.31
1151.4	2126.62
1150.47	2190.75
1149.54	2319.37
1148.61	2265.21
1147.68	2251.38
1146.75	2234.86
1145.82	2186.12
1144.89	2244.81
1143.96	2166.55
1143.02	2222.54
1142.09	2240.93
1141.16	2294.2
1140.23	2285.74
1139.3	2220.96
1138.36	2330.52
1137.43	2351.56
1136.5	2351.14
1135.57	2342.68
1134.63	2393.18
1133.7	2307.02
1132.77	2429.84
1131.83	2440.12
1130.9	2348.64
1129.97	2436.58
1129.03	2465.59
1128.1	2414.3
1127.17	2480.77
1126.23	2523.14
1125.3	2554.8
1124.36	2500.85
1123.43	2564.58
1122.49	2596.21
1121.56	2654.56
1120.62	2638.05
1119.69	2656.29
1118.75	2570.32
1117.81	2644.66
1116.88	2585.43
1115.94	2595.65
1115.01	2597.86
1114.07	2653.46
1113.13	2580.92
1112.2	2593.81
1111.26	2646.71
1110.32	2579.54
1109.38	2629.76
1108.45	2621.29
1107.51	2535.51
1106.57	2545.72
1105.63	2547.93
1104.69	2480.86
1103.76	2515.05
1102.82	2583.86
1101.88	2551.44
1100.94	2503.06
1100	2499.95
1099.06	2536.77
1098.12	2461.8
1097.18	2466.68
1096.24	2514.13
1095.3	2492.4
1094.36	2494.62
1093.42	2387.81
1092.48	2390.05
1091.54	2373.67
1090.6	2482.21
1089.66	2319.68
1088.72	2375.06
1087.78	2443.7
1086.84	2427.33
1085.9	2315.37
1084.95	2397.26
1084.01	2237.57
1083.07	2396.4
1082.13	2372.1
1081.19	2281.48
1080.24	2289.03
1079.3	2357.57
1078.36	2285.56
1077.41	2301.06
1076.47	2372.21
1075.53	2300.23
1074.58	2323.67
1073.64	2233.19
1072.7	2201
1071.75	2219.15
1070.81	2266.41
1069.86	2234.24
1068.92	2281.48
1067.98	2289.01
1067.03	2243.63
1066.09	2267.03
1065.14	2203.15
1064.19	2284.73
1063.25	2297.55
1062.3	2209.9
1061.36	2291.44
1060.41	2296.31
1059.46	2269.48
1058.52	2282.29
1057.57	2207.93
1056.63	2231.3
1055.68	2273.14
1054.73	2246.34
1053.78	2327.75
1052.84	2269.28
1051.89	2363.86
1050.94	2215.72
1049.99	2273.34
1049.05	2307.21
1048.1	2269.89
1047.15	2287.94
1046.2	2248
1045.25	2339.82
1044.3	2294.61
1043.35	2331.08
1042.4	2272.73
1041.45	2314.45
1040.5	2382.48
1039.55	2350.47
1038.6	2307.94
1037.65	2425.93
1036.7	2275.55
1035.75	2254.1
1034.8	2361.51
1033.85	2347.95
1032.9	2381.7
1031.95	2360.25
1031	2412.38
1030.05	2325.25
1029.1	2274.92
1028.14	2229.86
1027.19	2368.64
1026.24	2323.58
1025.29	2359.91
1024.33	2299.13
1023.38	2269.85
1022.43	2237.96
1021.48	2305.76
1020.52	2326.33
1019.57	2378.36
1018.62	2354.33
1017.66	2419.44
1016.71	2348.25
1015.75	2311.14
1014.8	2239.99
1013.85	2357.46
1012.89	2354.42
1011.94	2306.87
1010.98	2295.98
1010.03	2358.39
1009.07	2355.35
1008.12	2177
1007.16	2302.18
1006.2	2330.54
1005.25	2256.9
1004.29	2327.09
1003.34	2329.29
1002.38	2438.65
1001.42	2315.39
1000.47	2267.94
999.508	2277.98
998.551	2374.21
997.594	2240.6
996.636	2261.09
995.679	2315.5
994.721	2325.53
993.763	2246.82
992.805	2249.03
991.846	2235.58
990.888	2347.33
989.929	2240
988.97	2356.92
988.011	2299.15
987.052	2228.36
986.093	2272.26
985.133	2331.78
984.173	2284.47
983.213	2396.05
982.253	2268.02
981.293	2376.96
980.333	2308.86
979.372	2355.29
978.411	2295.02
977.45	2281.6
976.489	2296.79
975.528	2285.98
974.566	2241.36
973.605	2131.77
972.643	2308.14
971.681	2224.56
970.719	2221.56
969.756	2296.5
968.794	2350.63
967.831	2254.12
966.868	2232.95
965.905	2258.51
964.942	2302.22
963.979	2296.62
963.015	2291.02
962.052	2264.66
961.088	2264.25
960.124	2339.05
959.159	2240.11
958.195	2239.7
957.23	2368.89
956.266	2342.55
955.301	2311.04
954.336	2230.32
953.37	2325.74
952.405	2250.23
951.439	2314.55
950.473	2319.31
949.507	2290.42
948.541	2300.36
947.575	2341.34
946.608	2340.92
945.642	2314.63
944.675	2259.92
943.708	2277.61
942.741	2321.14
941.773	2261.28
940.806	2289.29
939.838	2327.63
938.87	2311.72
937.902	2308.72
936.934	2295.39
935.965	2261.42
934.997	2338.44
934.028	2312.21
933.059	2407.26
932.09	2303.64
931.121	2339.33
930.151	2405.96
929.182	2292.08
928.212	2250.42
927.242	2286.1
926.272	2388.76
925.301	2244.05
924.331	2328.65
923.36	2364.29
922.389	2361.29
921.418	2466.42
920.447	2393.9
919.475	2185
918.504	2385.31
917.532	2333.43
916.56	2312.43
915.588	2345.44
914.616	2373.3
913.643	2326.6
912.671	2349.31
911.698	2310.34
910.725	2425.55
909.752	2340.33
908.779	2360.46
907.805	2390.85
906.831	2470.01
905.858	2443.89
904.883	2443.45
903.909	2476.37
902.935	2493.88
901.96	2513.96
900.986	2492.98
900.011	2418.17
899.036	2522.85
898.06	2440.36
897.085	2573.19
896.109	2539.42
895.133	2600.44
894.157	2543.62
893.181	2479.13
892.205	2550.38
891.229	2557.6
890.252	2575.06
889.275	2589.95
888.298	2663.68
887.321	2555.75
886.343	2701.08
885.366	2672.46
884.388	2620.84
883.41	2661.27
882.432	2678.68
881.454	2667.97
880.475	2639.39
879.497	2651.68
878.518	2681.85
877.539	2653.27
876.56	2634.92
875.58	2532.33
874.601	2598.23
873.621	2697.28
872.641	2599.84
871.661	2701.41
870.681	2726.42
869.701	2667.28
868.72	2671.9
867.739	2694.35
866.758	2749.93
865.777	2629.67
864.796	2731.1
863.815	2824.85
862.833	2829.44
861.851	3037.72
860.869	3121.18
859.887	3077.34
858.905	3191.3
857.922	3223.8
856.939	3281.73
855.956	3237.89
854.973	3267.82
853.99	3246.89
853.007	3223.42
852.023	3090.67
851.039	3041.83
850.055	3066.68
849.071	2959.43
848.087	2979.21
847.102	2828.85
846.118	2808.03
845.133	2782.13
844.148	2758.78
843.163	2661.86
842.177	2770.47
841.192	2701.48
840.206	2655.34
839.22	2718.25
838.234	2712.68
837.248	2638.68
836.261	2724.37
835.274	2716.27
834.288	2672.71
833.301	2606.37
832.313	2636.28
831.326	2638.34
830.339	2645.45
829.351	2738.62
828.363	2707.76
827.375	2669.31
826.387	2605.58
825.398	2686.05
824.409	2720.96
823.421	2722.99
822.432	2588.52
821.443	2588.05
820.453	2595.16
819.464	2705.85
818.474	2622
817.484	2709.92
816.494	2674.08
815.504	2618.05
814.513	2731.16
813.523	2672.62
812.532	2573.72
811.541	2694.35
810.55	2633.32
809.559	2708.5
808.567	2639.93
807.575	2760.45
806.583	2606.2
805.591	2613.29
804.599	2635.49
803.607	2617.37
802.614	2601.78
801.621	2654.19
800.628	2623.49
799.635	2753.92
798.642	2698.04
797.649	2757.95
796.655	2697.06
795.661	2784.61
794.667	2776.56
793.673	2720.73
792.678	2707.67
791.684	2752.42
790.689	2761.97
789.694	2608.19
788.699	2630.32
787.704	2579.61
786.708	2584.16
785.713	2470.7
784.717	2502.89
783.721	2547.61
782.724	2469.35
781.728	2534.13
780.731	2475.97
779.735	2430.38
778.738	2507.67
777.741	2642.6
776.743	2632.09
775.746	2566.45
774.748	2490.8
773.75	2570.52
772.752	2529.97
771.754	2489.44
770.756	2544.07
769.757	2471.01
768.758	2490.58
767.759	2495.13
766.76	2489.67
765.761	2504.23
764.761	2543.79
763.762	2578.34
762.762	2520.36
761.762	2502.4
760.762	2531.93
759.761	2568.96
758.761	2553.5
757.76	2435.62
756.759	2652.47
755.758	2629.51
754.756	2581.59
753.755	2496.25
752.753	2563.18
751.751	2530.27
750.749	2594.67
749.747	2546.8
748.745	2551.33
747.742	2540.88
746.739	2580.31
745.736	2522.51
744.733	2477.19
743.73	2558.96
742.726	2521.12
741.723	2577.95
740.719	2547.59
739.715	2624.31
738.71	2636.28
737.706	2488.95
736.701	2563.15
735.697	2560.19
734.692	2634.35
733.686	2574.18
732.681	2591.11
731.675	2580.69
730.67	2587.68
729.664	2577.26
728.658	2611.58
727.651	2573.83
726.645	2620.56
725.638	2632.5
724.631	2639.46
723.624	2552.09
722.617	2554.1
721.61	2657.87
720.602	2652.42
719.595	2607.28
718.587	2589.44
717.578	2596.4
716.57	2647.99
715.562	2647.51
714.553	2651.98
713.544	2616.8
712.535	2745.15
711.526	2633.18
710.516	2657.46
709.507	2736.22
708.497	2842.17
707.487	2735.21
706.477	2870.83
705.467	2810.91
704.456	2931.62
703.445	2928.61
702.434	2928.07
701.423	2969.57
700.412	2867.67
699.401	2800.41
698.389	2730.7
697.377	2626.42
696.365	2628.41
695.353	2618.05
694.34	2565.71
693.328	2644.25
692.315	2777.06
691.302	2635.87
690.289	2625.52
689.276	2696.58
688.262	2555.49
687.249	2710.39
686.235	2589.07
685.221	2610.78
684.206	2701.5
683.192	2676.36
682.177	2715.29
681.162	2643.35
680.147	2679.81
679.132	2777.82
678.117	2777.31
677.101	2675.87
676.086	2626.16
675.07	2598.6
674.054	2674.4
673.037	2585.35
672.021	2638.98
671.004	2699.97
669.987	2635.55
668.97	2583.45
667.953	2757.46
666.936	2670.95
665.918	2726.97
664.9	2611.02
663.882	2659.66
662.864	2676.36
661.846	2715.14
660.827	2677.83
659.808	2588.99
658.789	2723.46
657.77	2784.28
656.751	2668.5
655.731	2721.95
654.712	2684.68
653.692	2757.72
652.672	2666.53
651.652	2612.13
650.631	2724.35
649.611	2755.69
648.59	2613.14
647.569	2573.48
646.548	2739.48
645.526	2724.29
644.505	2650.37
643.483	2657.22
642.461	2715.44
641.439	2727.17
640.417	2729.11
639.394	2716.38
638.371	2781.89
637.348	2791.15
636.325	2883.49
635.302	3000.23
634.279	3248.84
633.255	3441.18
632.231	3555.31
631.207	3383.76
630.183	3190.3
629.159	2974.95
628.134	2796.28
627.109	2795.76
626.084	2758.66
625.059	2767.91
624.034	2833.23
623.008	2713.25
621.983	2761.5
620.957	2768.3
619.931	2714.19
618.904	2723.43
617.878	2737.54
616.851	2812.52
615.824	2734.1
614.797	2818.79
613.77	2786.63
612.743	2705.81
611.715	2710.18
610.687	2695.09
609.659	2692.16
608.631	2796.21
607.603	2725.2
606.574	2695.52
605.546	2685.31
604.517	2709.11
603.487	2781.48
602.458	2746.97
601.429	2775.6
600.399	2702.25
599.369	2769.72
598.339	2771.63
597.309	2744.43
596.278	2739.07
595.248	2801.63
594.217	2793.83
593.186	2761.8
592.155	2739.47
591.123	2736.54
590.091	2721.49
589.06	2808.21
588.028	2705.95
586.996	2782.95
585.963	2746.11
584.931	2716.55
583.898	2810.46
582.865	2826.88
581.832	2700.52
580.798	2808.89
579.765	2685.01
578.731	2715.95
577.697	2717.87
576.663	2782.64
575.629	2719.28
574.594	2832.36
573.56	2713.44
572.525	2739.51
571.49	2741.42
570.455	2789.21
569.419	2803.18
568.384	2679.54
567.348	2768.35
566.312	2784.73
565.276	2740.78
564.239	2619.66
563.203	2826.59
562.166	2891.17
561.129	2779.74
560.092	2800.91
559.054	2817.26
558.017	2797.47
556.979	2845.13
555.941	2844.6
554.903	2836.85
553.865	2723.16
552.826	2725.06
551.787	2686.05
550.749	2752.93
549.709	2721.14
548.67	2723.04
547.631	2753.8
546.591	2736.46
545.551	2829.71
544.511	2737.84
543.471	2768.58
542.43	2717.6
541.39	2760.34
540.349	2836.69
539.308	2840.97
538.267	2878.86
537.225	2899.93
536.184	2889.79
535.142	2740.47
534.1	2778.35
533.058	2773.03
532.015	2784.51
530.973	2738.43
529.93	2666
528.887	2631.95
527.844	2662.61
526.801	2618.99
525.757	2630.48
524.713	2591.67
523.669	2742.06
522.625	2705.63
521.581	2800.88
520.537	2841.05
519.492	2780.7
518.447	2892.63
517.402	2750.96
516.357	2764.8
515.311	2766.67
514.265	2790.07
513.22	2722.62
512.174	2671.92
511.127	2764.62
510.081	2558.65
509.034	2572.5
507.987	2581.57
506.94	2535.73
505.893	2661.78
504.846	2618.32
503.798	2675.11
502.75	2681.77
501.702	2702.74
500.654	2709.39
499.606	2785.19
