3200.54	92.6154
3199.95	75.7762
3199.35	101.02
3198.76	71.5448
3198.16	84.1577
3197.57	126.217
3196.98	79.9256
3196.38	105.149
3195.79	96.7228
3195.19	88.2988
3194.6	79.8773
3194	67.2549
3193.41	63.0419
3192.81	79.8411
3192.22	96.6351
3191.62	113.424
3191.03	92.4056
3190.43	79.7928
3189.84	79.7807
3189.24	104.959
3188.65	109.141
3188.05	130.109
3187.45	100.715
3186.86	41.9581
3186.26	71.318
3185.67	109.058
3185.07	79.6842
3184.47	71.2856
3183.88	79.6601
3183.28	88.032
3182.69	83.8273
3182.09	88.0054
3181.49	96.3723
3180.9	104.737
3180.3	121.476
3179.7	96.3285
3179.1	96.3139
3178.51	92.1124
3177.91	100.471
3177.31	71.1562
3176.72	96.2556
3176.12	83.6879
3175.52	100.41
3174.92	87.8457
3174.33	100.38
3173.73	100.365
3173.13	96.1682
3172.53	83.6119
3171.93	75.2393
3171.34	79.4072
3170.74	112.825
3170.14	45.9587
3169.54	87.726
3168.94	87.7127
3168.34	96.0517
3167.74	104.388
3167.15	79.323
3166.55	79.311
3165.95	75.1254
3165.35	75.114
3164.75	91.7921
3164.15	70.9195
3163.55	79.2509
3162.95	95.9208
3162.35	83.3968
3161.75	108.399
3161.15	70.8658
3160.55	95.8627
3159.95	75.0116
3159.35	95.8336
3158.75	83.3209
3158.15	79.1429
3157.55	99.9548
3156.95	83.283
3156.35	95.761
3155.75	87.4207
3155.15	74.9206
3154.55	83.2325
3153.95	87.3809
3153.35	99.8487
3152.75	99.8336
3152.15	62.3865
3151.54	103.962
3150.94	91.4725
3150.34	95.6158
3149.74	108.071
3149.14	83.1189
3148.54	87.2617
3147.94	66.475
3147.33	58.1568
3146.73	66.4548
3146.13	49.8335
3145.53	103.804
3144.93	116.243
3144.32	62.2636
3143.72	120.358
3143.12	78.8432
3142.52	78.8313
3141.91	87.1161
3141.31	70.5118
3140.71	74.6482
3140.1	91.2229
3139.5	87.0632
3138.9	116.067
3138.29	107.76
3137.69	116.031
3137.09	70.4369
3136.48	57.9981
3135.88	103.552
3135.28	103.536
3134.67	115.943
3134.07	78.6638
3133.47	86.931
3132.86	78.6399
3132.26	103.458
3131.65	86.8914
3131.05	66.1929
3130.45	66.1829
3129.84	103.395
3129.24	78.5683
3128.63	95.0945
3128.03	74.4105
3127.42	99.1989
3126.82	53.7246
3126.21	107.433
3125.61	103.285
3125	119.792
3124.4	103.254
3123.79	78.4608
3123.19	94.9645
3122.58	66.0522
3121.97	94.9356
3121.37	70.1591
3120.76	90.7803
3120.16	103.144
3119.55	82.5025
3118.94	90.7389
3118.34	94.849
3117.73	78.3416
3117.13	70.0845
3116.52	57.7078
3115.91	82.4272
3115.31	86.5354
3114.7	94.7625
3114.09	94.748
3113.48	78.2582
3112.88	82.3645
3112.27	65.8816
3111.66	98.8074
3111.06	102.909
3110.45	111.124
3109.84	131.683
3109.23	86.4038
3108.63	106.96
3108.02	82.2643
3107.41	49.3511
3106.8	69.9034
3106.19	82.2267
3105.59	86.3249
3104.98	78.0916
3104.37	115.065
3103.76	82.1767
3103.15	69.8395
3102.54	53.3986
3101.93	61.6043
3101.33	90.3393
3100.72	65.6913
3100.11	114.942
3099.5	77.9846
3098.89	69.7651
3098.28	86.1673
3097.67	82.0516
3097.06	73.8352
3096.45	94.3306
3095.84	90.2155
3095.23	94.3018
3094.62	57.3924
3094.01	118.866
3093.4	49.1785
3092.79	102.44
3092.18	61.4543
3091.57	110.601
3090.96	86.0098
3090.35	98.282
3089.74	81.8892
3089.13	81.8767
3088.52	77.771
3087.91	106.407
3087.3	81.8392
3086.69	106.375
3086.08	122.721
3085.46	73.6216
3084.85	77.6999
3084.24	122.665
3083.63	85.8526
3083.02	94.0147
3082.41	89.9134
3081.79	93.986
3081.18	114.4
3080.57	114.383
3079.96	106.196
3079.35	110.264
3078.73	89.8311
3078.12	93.9
3077.51	69.3938
3076.9	85.7086
3076.28	77.5341
3075.67	102.003
3075.06	101.987
3074.45	106.051
3073.83	101.956
3073.22	81.5526
3072.61	110.079
3071.99	110.062
3071.38	73.3637
3070.77	110.029
3070.15	105.937
3069.54	93.6996
3068.93	81.4654
3068.31	61.0897
3067.7	118.089
3067.08	109.928
3066.47	97.6988
3065.86	105.824
3065.24	77.3213
3064.63	113.93
3064.01	85.4343
3063.4	101.692
3062.78	109.81
3062.17	93.528
3061.55	65.053
3060.94	105.695
3060.32	101.614
3059.71	101.599
3059.09	109.71
3058.48	56.8779
3057.86	109.676
3057.25	85.2908
3056.63	97.4603
3056.02	109.626
3055.4	93.3709
3054.78	73.0617
3054.17	60.8754
3053.55	60.8661
3052.94	68.9711
3052.32	56.791
3051.7	93.2853
3051.09	85.1605
3050.47	72.9835
3049.85	93.2425
3049.24	77.0146
3048.62	89.1612
3048	72.9389
3047.39	85.0824
3046.77	85.0693
3046.15	93.1569
3045.53	89.093
3044.92	68.8341
3044.3	93.1142
3043.68	97.1478
3043.06	105.227
3042.45	64.7454
3041.83	76.8733
3041.21	84.9523
3040.59	93.0287
3039.97	125.367
3039.35	56.6088
3038.74	80.8574
3038.12	64.676
3037.5	92.9575
3036.88	84.8613
3036.26	80.8079
3035.64	100.994
3035.02	109.057
3034.41	100.963
3033.79	109.024
3033.17	113.044
3032.55	92.8437
3031.93	96.8656
3031.31	88.7799
3030.69	76.6618
3030.07	96.8211
3029.45	52.4367
3028.83	56.4617
3028.21	84.6795
3027.59	108.857
3026.97	76.5913
3026.35	116.885
3025.73	100.747
3025.11	68.4976
3024.49	80.5731
3023.87	124.869
3023.25	92.6306
3022.63	72.4824
3022	96.6284
3021.38	80.5113
3020.76	92.5739
3020.14	68.4137
3019.52	80.4743
3018.9	84.4851
3018.28	88.4946
3017.66	84.4592
3017.03	84.4462
3016.41	72.3714
3015.79	88.4404
3015.17	88.4268
3014.55	76.3569
3013.92	84.3815
3013.3	88.3861
3012.68	92.3895
3012.06	100.408
3011.43	64.2512
3010.81	72.2716
3010.19	104.376
3009.57	112.388
3008.94	64.2118
3008.32	88.2777
3007.7	80.2401
3007.07	100.285
3006.45	112.302
3005.83	104.264
3005.2	96.2291
3004.58	76.1697
3003.96	76.158
3003.33	104.2
3002.71	108.191
3002.08	72.1164
3001.46	84.1229
3000.84	100.131
3000.21	92.1064
2999.59	112.112
2998.96	108.092
2998.34	84.0584
2997.71	96.052
2997.09	88.0341
2996.46	100.023
2995.84	76.0061
2995.21	75.9944
2994.59	83.981
2993.96	83.9681
2993.34	107.942
2992.71	59.9588
2992.09	107.909
2991.46	103.897
2990.84	107.876
2990.21	75.9011
2989.58	119.825
2988.96	91.852
2988.33	87.845
2987.71	79.8468
2987.08	79.8345
2986.45	91.7956
2985.83	119.715
2985.2	87.7775
2984.57	87.764
2983.95	99.7165
2983.32	107.677
2982.69	95.6984
2982.07	99.6705
2981.44	87.6965
2980.81	75.7263
2980.18	151.429
2979.56	103.594
2978.93	95.6101
2978.3	75.6797
2977.67	99.5633
2977.05	59.7288
2976.42	99.5326
2975.79	83.5945
2975.16	83.5817
2974.53	71.6304
2973.91	103.45
2973.28	95.4778
2972.65	99.4408
2972.02	87.4944
2971.39	91.4574
2970.76	143.129
2970.13	107.33
2969.5	135.135
2968.88	83.4532
2968.25	99.3337
2967.62	71.5093
2966.99	103.275
2966.36	119.145
2965.73	127.069
2965.1	83.3761
2964.47	99.242
2963.84	111.134
2963.21	115.085
2962.58	107.132
2961.95	91.2464
2961.32	150.732
2960.69	95.1843
2960.06	130.858
2959.43	79.2958
2958.8	130.818
2958.17	99.0893
2957.53	122.852
2956.9	110.946
2956.27	106.967
2955.64	95.0671
2955.01	106.934
2954.38	106.918
2953.75	122.738
2953.12	102.926
2952.48	75.2035
2951.85	83.1068
2951.22	118.706
2950.59	83.0812
2949.96	102.847
2949.33	79.1006
2948.69	75.134
2948.06	110.707
2947.43	106.736
2946.8	114.625
2946.16	82.9916
2945.53	118.541
2944.9	98.769
2944.26	82.9532
2943.63	75.0413
2943	98.7234
2942.37	78.9665
2941.73	118.431
2941.1	94.7306
2940.47	122.341
2939.83	90.7555
2939.2	138.085
2938.56	74.9488
2937.93	102.546
2937.3	63.0953
2936.66	98.5712
2936.03	94.6137
2935.39	114.307
2934.76	118.231
2934.13	98.5103
2933.49	94.5553
2932.86	114.237
2932.22	118.158
2931.59	114.201
2930.95	94.497
2930.32	110.229
2929.68	82.6593
2929.05	98.3887
2928.41	102.308
2927.78	90.4897
2927.14	106.211
2926.5	117.994
2925.87	98.3128
2925.23	121.889
2924.6	86.4885
2923.96	86.4752
2923.32	82.5317
2922.69	78.5895
2922.05	117.866
2921.42	102.135
2920.78	109.974
2920.14	86.3951
2919.51	94.2346
2918.87	117.775
2918.23	105.981
2917.6	109.889
2916.96	117.72
2916.32	90.2384
2915.68	82.3788
2915.05	117.666
2914.41	117.648
2913.77	109.788
2913.13	90.1687
2912.5	105.834
2911.86	121.494
2911.22	113.638
2910.58	86.195
2909.94	105.768
2909.31	90.0851
2908.67	78.3227
2908.03	121.381
2907.39	121.363
2906.75	105.687
2906.11	113.498
2905.47	90.0015
2904.83	121.288
2904.2	117.357
2903.56	93.871
2902.92	117.321
2902.28	86.0218
2901.64	82.099
2901	78.1774
2900.36	85.9819
2899.72	93.7839
2899.08	121.119
2898.44	136.726
2897.8	109.364
2897.16	109.347
2896.52	128.853
2895.88	113.217
2895.24	97.5858
2894.6	105.376
2893.96	113.164
2893.32	109.245
2892.67	97.5253
2892.03	120.913
2891.39	89.6955
2890.75	159.867
2890.11	109.161
2889.47	113.042
2888.83	113.024
2888.19	105.213
2887.54	109.093
2886.9	101.285
2886.26	124.639
2885.62	120.726
2884.98	101.238
2884.33	144.047
2883.69	140.132
2883.05	108.975
2882.41	105.067
2881.77	93.3781
2881.12	97.2538
2880.48	112.797
2879.84	108.89
2879.19	101.097
2878.55	116.632
2877.91	128.275
2877.26	97.1633
2876.62	85.4905
2875.98	97.1332
2875.33	108.772
2874.69	108.755
2874.05	116.506
2873.4	89.3071
2872.76	131.999
2872.11	100.925
2871.47	124.196
2870.83	124.176
2870.18	135.797
2869.54	93.1034
2868.89	116.361
2868.25	124.099
2867.6	96.9375
2866.96	120.184
2866.31	135.67
2865.67	89.141
2865.02	135.628
2864.38	69.7409
2863.73	120.091
2863.09	108.452
2862.44	89.0719
2861.8	123.907
2861.15	150.988
2860.5	108.385
2859.86	119.979
2859.21	139.309
2858.57	96.7271
2857.92	116.055
2857.27	119.904
2856.63	88.9475
2855.98	116
2855.33	135.313
2854.69	123.695
2854.04	143.001
2853.39	112.064
2852.75	119.774
2852.1	123.619
2851.45	104.287
2850.81	135.166
2850.16	115.838
2849.51	111.96
2848.86	92.6419
2848.21	123.503
2847.57	150.496
2846.92	115.748
2846.27	127.303
2845.62	115.712
2844.97	119.551
2844.33	146.524
2843.68	150.356
2843.03	111.786
2842.38	107.914
2841.73	123.312
2841.08	142.557
2840.43	119.421
2839.78	146.364
2839.14	157.895
2838.49	127.066
2837.84	150.146
2837.19	138.575
2836.54	138.553
2835.89	138.531
2835.24	115.425
2834.59	115.407
2833.94	153.852
2833.29	115.371
2832.64	142.269
2831.99	111.491
2831.34	130.693
2830.69	138.359
2830.04	149.866
2829.39	130.632
2828.74	134.453
2828.08	149.796
2827.43	138.251
2826.78	134.39
2826.13	103.656
2825.48	122.833
2824.83	138.165
2824.18	122.795
2823.53	153.469
2822.87	130.429
2822.22	103.56
2821.57	157.233
2820.92	130.368
2820.27	122.68
2819.61	145.66
2818.96	130.307
2818.31	130.286
2817.66	114.941
2817	137.907
2816.35	157.037
2815.7	137.864
2815.05	118.698
2814.39	141.65
2813.74	114.833
2813.09	118.643
2812.43	179.85
2811.78	141.562
2811.13	137.714
2810.47	130.043
2809.82	149.144
2809.16	126.179
2808.51	118.513
2807.86	129.962
2807.2	137.585
2806.55	129.922
2805.89	126.081
2805.24	148.981
2804.58	145.138
2803.93	114.565
2803.28	156.548
2802.62	171.794
2801.97	110.695
2801.31	148.842
2800.66	129.739
2800	179.318
2799.34	133.513
2798.69	152.563
2798.03	141.099
2797.38	137.264
2796.72	121.993
2796.07	133.409
2795.41	156.255
2794.75	118.126
2794.1	167.636
2793.44	167.61
2792.79	152.349
2792.13	129.476
2791.47	159.916
2790.82	152.278
2790.16	156.06
2789.5	152.23
2788.84	163.622
2788.19	148.378
2787.53	148.355
2786.87	171.152
2786.22	155.914
2785.56	129.274
2784.9	136.857
2784.24	174.846
2783.59	167.218
2782.93	170.992
2782.27	136.772
2781.61	132.952
2780.95	117.739
2780.29	163.29
2779.64	174.655
2778.98	155.646
2778.32	163.213
2777.66	170.778
2777	151.779
2776.34	151.755
2775.68	189.664
2775.02	140.33
2774.36	182.021
2773.71	170.618
2773.05	178.173
2772.39	170.565
2771.73	162.958
2771.07	136.409
2770.41	151.542
2769.75	159.094
2769.09	162.857
2768.43	181.765
2767.77	132.516
2767.11	174.137
2766.45	140.045
2765.79	147.592
2765.12	170.271
2764.46	158.895
2763.8	124.827
2763.14	124.807
2762.48	158.821
2761.82	139.891
2761.16	162.551
2760.5	185.204
2759.83	162.5
2759.17	154.918
2758.51	128.448
2757.85	177.533
2757.19	151.068
2756.53	139.716
2755.86	147.246
2755.2	162.322
2754.54	147.199
2753.88	169.819
2753.21	143.38
2752.55	143.358
2751.89	165.967
2751.23	165.941
2750.56	162.144
2749.9	169.659
2749.24	165.863
2748.57	131.916
2747.91	180.885
2747.25	146.946
2746.58	143.156
2745.92	180.8
2745.25	150.643
2744.59	173.212
2743.93	154.361
2743.26	184.451
2742.6	199.477
2741.93	165.578
2741.27	161.789
2740.61	165.526
2739.94	161.738
2739.28	176.756
2738.61	154.167
2737.95	169.182
2737.28	191.709
2736.62	176.645
2735.95	150.313
2735.29	165.318
2734.62	180.319
2733.95	157.754
2733.29	172.751
2732.62	176.479
2731.96	198.977
2731.29	183.931
2730.62	161.384
2729.96	191.379
2729.29	221.364
2728.63	161.308
2727.96	168.784
2727.29	217.51
2726.63	191.229
2725.96	157.458
2725.29	183.672
2724.62	183.643
2723.96	179.867
2723.29	164.852
2722.62	187.303
2721.96	176.037
2721.29	205.968
2720.62	175.982
2719.95	220.878
2719.28	142.238
2718.62	172.156
2717.95	194.581
2717.28	190.809
2716.61	160.853
2715.94	164.568
2715.27	194.459
2714.61	198.167
2713.94	175.705
2713.27	156.989
2712.6	186.862
2711.93	186.833
2711.26	183.067
2710.59	205.451
2709.92	179.275
2709.25	175.512
2708.58	168.017
2707.91	175.457
2707.24	205.29
2706.57	190.33
2705.9	179.106
2705.23	201.462
2704.56	182.78
2703.89	190.21
2703.22	190.18
2702.55	205.064
2701.88	212.488
2701.21	205
2700.54	171.427
2699.87	193.757
2699.2	204.903
2698.53	189.971
2697.86	212.287
2697.19	148.95
2696.51	174.989
2695.84	204.742
2695.17	193.544
2694.5	204.677
2693.83	223.249
2693.15	163.69
2692.48	215.74
2691.81	200.83
2691.14	174.769
2690.47	171.023
2689.79	182.148
2689.12	178.403
2688.45	174.659
2687.77	189.493
2687.1	189.464
2686.43	159.719
2685.76	215.401
2685.08	185.661
2684.41	178.206
2683.74	178.178
2683.06	200.419
2682.39	192.966
2681.71	181.805
2681.04	192.905
2680.37	218.839
2679.69	159.467
2679.02	152.026
2678.34	200.198
2677.67	196.46
2676.99	240.904
2676.32	166.753
2675.65	207.482
2674.97	174.109
2674.3	196.305
2673.62	181.461
2672.95	174.027
2672.27	185.106
2671.59	203.585
2670.92	188.749
2670.24	210.921
2669.57	199.789
2668.89	214.554
2668.22	177.534
2667.54	232.977
2666.86	203.36
2666.19	195.934
2665.51	225.474
2664.83	177.394
2664.16	199.537
2663.48	206.894
2662.8	214.25
2662.13	206.829
2661.45	214.182
2660.77	195.687
2660.1	162.432
2659.42	184.552
2658.74	210.357
2658.06	236.153
2657.39	184.465
2656.71	213.946
2656.03	236.041
2655.35	213.878
2654.68	176.975
2654	191.692
2653.32	221.149
2652.64	206.373
2651.96	198.971
2651.28	235.78
2650.6	217.326
2649.93	184.145
2649.25	217.257
2648.57	224.586
2647.89	165.652
2647.21	228.196
2646.53	231.84
2645.85	209.727
2645.17	242.803
2644.49	209.66
2643.81	213.305
2643.13	205.917
2642.45	205.885
2641.77	187.472
2641.09	205.82
2640.41	216.811
2639.73	187.384
2639.05	216.743
2638.37	187.324
2637.69	235.037
2637.01	231.328
2636.33	212.935
2635.65	227.584
2634.96	238.558
2634.28	205.495
2633.6	212.8
2632.92	231.108
2632.24	223.736
2631.56	260.373
2630.88	227.332
2630.19	197.968
2629.51	197.936
2628.83	223.559
2628.15	216.195
2627.46	252.799
2626.78	238.106
2626.1	249.056
2625.42	238.031
2624.73	223.347
2624.05	212.329
2623.37	219.616
2622.69	226.901
2622	234.183
2621.32	263.415
2620.64	226.793
2619.95	193.841
2619.27	230.378
2618.58	237.654
2617.9	230.305
2617.22	208.339
2616.53	241.196
2615.85	255.773
2615.16	259.386
2614.48	233.776
2613.79	241.043
2613.11	219.096
2612.43	233.665
2611.74	240.929
2611.06	218.992
2610.37	229.905
2609.69	211.625
2609	229.832
2608.31	273.566
2607.63	280.817
2606.94	229.723
2606.26	269.79
2605.57	244.231
2604.89	218.68
2604.2	269.662
2603.51	244.115
2602.83	265.934
2602.14	214.899
2601.45	229.432
2600.77	262.166
2600.08	243.921
2599.39	247.523
2598.71	262.041
2598.02	214.694
2597.33	254.682
2596.65	221.902
2595.96	276.424
2595.27	240.014
2594.58	265.428
2593.9	229.032
2593.21	254.44
2592.52	239.862
2591.83	196.22
2591.14	272.484
2590.46	283.339
2589.77	232.446
2589.08	225.146
2588.39	250.526
2587.7	265.008
2587.01	272.225
2586.32	257.665
2585.64	253.996
2584.95	264.839
2584.26	257.543
2583.57	217.607
2582.88	261.087
2582.19	239.292
2581.5	224.754
2580.81	264.587
2580.12	192.067
2579.43	235.517
2578.74	257.216
2578.05	242.686
2577.36	213.675
2576.67	249.851
2575.98	257.053
2575.29	278.731
2574.6	260.59
2573.91	271.405
2573.22	300.307
2572.52	274.936
2571.83	285.744
2571.14	253.15
2570.45	253.11
2569.76	263.916
2569.07	271.103
2568.38	267.446
2567.68	234.882
2566.99	245.683
2566.3	267.319
2565.61	288.947
2564.92	267.234
2564.22	223.863
2563.53	259.929
2562.84	270.716
2562.14	259.846
2561.45	227.329
2560.76	277.802
2560.07	295.795
2559.37	266.894
2558.68	270.458
2557.99	216.332
2557.29	237.927
2556.6	284.746
2555.91	273.89
2555.21	259.433
2554.52	270.2
2553.82	273.759
2553.13	270.114
2552.44	259.268
2551.74	280.829
2551.05	295.184
2550.35	262.744
2549.66	251.906
2548.96	266.258
2548.27	269.813
2547.57	248.189
2546.88	269.727
2546.18	248.11
2545.49	273.237
2544.79	301.95
2544.1	312.684
2543.4	312.635
2542.7	294.62
2542.01	294.573
2541.31	269.384
2540.62	254.976
2539.92	280.07
2539.22	233.355
2538.53	287.16
2537.83	279.936
2537.13	265.538
2536.44	276.259
2535.74	301.326
2535.04	243.892
2534.35	268.955
2533.65	268.912
2532.95	290.379
2532.25	275.995
2531.56	275.951
2530.86	286.657
2530.16	286.611
2529.46	243.581
2528.76	268.613
2528.07	257.827
2527.37	290.009
2526.67	261.325
2525.97	293.496
2525.27	332.814
2524.57	289.824
2523.88	271.89
2523.18	314.77
2522.48	271.804
2521.78	314.67
2521.08	307.469
2520.38	278.823
2519.68	318.093
2518.98	246.572
2518.28	296.554
2517.58	282.218
2516.88	335.75
2516.18	289.27
2515.48	296.365
2514.78	264.187
2514.08	317.688
2513.38	278.378
2512.68	317.586
2511.98	310.4
2511.28	296.081
2510.58	299.601
2509.88	306.685
2509.17	281.678
2508.47	281.633
2507.77	310.103
2507.07	274.415
2506.37	252.992
2505.67	317.08
2504.97	284.97
2504.26	299.171
2503.56	327.611
2502.86	299.075
2502.16	338.186
2501.45	277.624
2500.75	284.697
2500.05	270.419
2499.35	273.933
2498.64	288.118
2497.94	316.523
2497.24	295.137
2496.53	302.201
2495.83	295.043
2495.13	302.104
2494.42	280.734
2493.72	291.348
2493.02	323.274
2492.31	312.567
2491.61	280.555
2490.9	308.916
2490.2	308.867
2489.5	291.069
2488.79	308.768
2488.09	301.621
2487.38	290.929
2486.68	280.241
2485.97	297.93
2485.27	336.891
2484.56	322.654
2483.86	294.242
2483.15	294.195
2482.45	318.956
2481.74	279.927
2481.04	308.225
2480.33	308.176
2479.62	293.96
2478.92	322.242
2478.21	332.812
2477.51	336.298
2476.8	261.917
2476.09	353.885
2475.39	286.601
2474.68	279.48
2473.97	318.344
2473.27	321.829
2472.56	297.026
2471.85	307.584
2471.14	296.93
2470.44	349.898
2469.73	325.105
2469.02	346.252
2468.31	328.534
2467.61	339.077
2466.9	310.771
2466.19	300.129
2465.48	282.429
2464.77	303.562
2464.07	314.101
2463.36	349.338
2462.65	317.529
2461.94	313.95
2461.23	356.224
2460.52	313.85
2459.81	345.532
2459.1	303.173
2458.4	341.897
2457.69	296.028
2456.98	281.886
2456.27	345.255
2455.56	394.514
2454.85	285.272
2454.14	355.653
2453.43	337.992
2452.72	337.938
2452.01	306.207
2451.3	365.982
2450.59	313.146
2449.88	358.829
2449.16	334.15
2448.45	298.928
2447.74	298.88
2447.03	337.505
2446.32	344.481
2445.61	347.94
2444.9	291.661
2444.19	302.154
2443.47	347.773
2442.76	361.766
2442.05	340.638
2441.34	375.694
2440.63	329.996
2439.91	358.024
2439.2	354.457
2438.49	298.257
2437.78	336.801
2437.06	347.271
2436.35	343.708
2435.64	329.626
2434.93	361.128
2434.21	336.531
2433.5	336.477
2432.79	378.476
2432.07	339.873
2431.36	392.367
2430.64	329.255
2429.93	353.718
2429.22	346.658
2428.5	343.101
2427.79	350.047
2427.07	395.489
2426.36	363.931
2425.65	293.897
2424.93	328.832
2424.22	314.789
2423.5	367.195
2422.79	374.129
2422.07	321.629
2421.36	314.587
2420.64	363.464
2419.92	373.888
2419.21	345.878
2418.49	370.275
2417.78	317.826
2417.06	363.172
2416.35	335.181
2415.63	373.528
2414.91	349.035
2414.2	359.448
2413.48	324.498
2412.76	380.265
2412.05	380.204
2411.33	352.242
2410.61	387.055
2409.9	397.452
2409.18	376.473
2408.46	365.957
2407.74	379.837
2407.03	365.839
2406.31	376.231
2405.59	372.687
2404.87	351.732
2404.16	407.387
2403.44	389.914
2402.72	341.12
2402	379.348
2401.28	365.368
2400.56	382.705
2399.85	320.029
2399.13	365.191
2398.41	385.997
2397.69	354.643
2396.97	333.728
2396.25	406.666
2395.53	385.749
2394.81	364.839
2394.09	392.573
2393.37	350.827
2392.65	378.554
2391.93	388.911
2391.21	409.679
2390.49	402.67
2389.77	360.957
2389.05	367.839
2388.33	392.067
2387.61	374.658
2386.89	405.814
2386.17	423.089
2385.45	329.401
2384.73	350.149
2384	381.289
2383.28	318.845
2382.56	367.305
2381.84	374.175
2381.12	367.187
2380.4	408.689
2379.67	394.772
2378.95	370.472
2378.23	418.877
2377.51	404.965
2376.79	391.057
2376.06	380.613
2375.34	432.445
2374.62	404.703
2373.9	408.096
2373.17	387.283
2372.45	356.105
2371.73	380.245
2371	352.534
2370.28	390.489
2369.56	348.965
2368.83	373.09
2368.11	417.932
2367.38	383.33
2366.66	441.967
2365.94	379.754
2365.21	407.307
2364.49	438.302
2363.76	365.768
2363.04	431.26
2362.31	410.493
2361.59	406.978
2360.86	431.051
2360.14	379.264
2359.41	399.886
2358.69	399.822
2357.96	468.681
2357.24	379.019
2356.51	403.073
2355.79	409.897
2355.06	406.387
2354.33	392.547
2353.61	385.598
2352.88	395.863
2352.15	450.866
2351.43	423.264
2350.7	426.636
2349.98	447.208
2349.25	450.575
2348.52	450.502
2347.79	402.292
2347.07	429.729
2346.34	398.724
2345.61	436.464
2344.88	374.542
2344.16	371.046
2343.43	408.772
2342.7	391.533
2341.97	408.639
2341.25	408.573
2340.52	456.567
2339.79	363.821
2339.06	439.261
2338.33	391.153
2337.6	415.104
2336.87	373.876
2336.14	442.406
2335.42	390.9
2334.69	404.55
2333.96	407.913
2333.23	390.71
2332.5	404.354
2331.77	459.107
2331.04	476.161
2330.31	445.258
2329.58	434.913
2328.85	421.146
2328.12	421.078
2327.39	431.278
2326.66	410.675
2325.93	444.826
2325.2	407.121
2324.47	366.007
2323.73	430.929
2323	434.279
2322.27	464.979
2321.54	492.251
2320.81	423.814
2320.08	396.407
2319.35	416.844
2318.61	416.776
2317.88	399.63
2317.15	420.056
2316.42	433.646
2315.69	426.748
2314.95	481.293
2314.22	419.784
2313.49	457.251
2312.76	491.295
2312.02	460.514
2311.29	409.279
2310.56	477.415
2309.82	460.29
2309.09	443.17
2308.36	412.422
2307.62	425.987
2306.89	477.028
2306.16	415.629
2305.42	432.592
2304.69	463.173
2303.95	412.021
2303.22	439.191
2302.48	428.908
2301.75	490.101
2301.02	483.215
2300.28	469.527
2299.55	476.255
2298.81	431.961
2298.08	411.487
2297.34	418.22
2296.6	380.756
2295.87	489.465
2295.13	458.799
2294.4	496.102
2293.66	438.265
2292.93	448.384
2292.19	458.501
2291.45	512.758
2290.72	502.489
2289.98	519.381
2289.24	458.203
2288.51	478.49
2287.77	447.875
2287.03	434.232
2286.3	488.432
2285.56	461.222
2284.82	423.848
2284.08	488.194
2283.35	498.284
2282.61	494.814
2281.87	504.899
2281.13	443.832
2280.4	484.41
2279.66	474.17
2278.92	443.616
2278.18	436.772
2277.44	490.866
2276.7	473.862
2275.97	463.632
2275.23	443.255
2274.49	443.183
2273.75	490.467
2273.01	497.151
2272.27	442.967
2271.53	456.418
2270.79	456.344
2270.05	442.751
2269.31	483.23
2268.57	510.18
2267.83	469.56
2267.09	472.861
2266.35	482.915
2265.61	489.589
2264.87	489.51
2264.13	516.433
2263.39	523.099
2262.65	516.265
2261.91	489.191
2261.17	495.858
2260.42	502.522
2259.68	438.371
2258.94	552.932
2258.2	482.051
2257.46	492.084
2256.72	417.866
2255.97	555.941
2255.23	528.9
2254.49	461.449
2253.75	491.683
2253	528.642
2252.26	471.323
2251.52	541.934
2250.78	461.073
2250.03	440.809
2249.29	524.847
2248.55	511.306
2247.8	521.312
2247.06	474.149
2246.32	480.796
2245.57	504.249
2244.83	547.862
2244.09	564.575
2243.34	540.963
2242.6	503.921
2241.85	513.915
2241.11	513.831
2240.36	530.537
2239.62	490.163
2238.88	510.223
2238.13	496.715
2237.39	499.99
2236.64	476.423
2235.89	509.89
2235.15	550.055
2234.4	519.784
2233.66	472.759
2232.91	519.615
2232.17	479.308
2231.42	489.284
2230.67	462.398
2229.93	522.626
2229.18	586.183
2228.44	505.71
2227.69	532.416
2226.94	562.46
2226.2	495.42
2225.45	565.624
2224.7	505.297
2223.95	498.523
2223.21	525.204
2222.46	495.016
2221.71	541.753
2220.96	471.449
2220.22	521.518
2219.47	568.228
2218.72	531.373
2217.97	527.945
2217.22	511.154
2216.48	557.835
2215.73	524.346
2214.98	497.547
2214.23	477.433
2213.48	530.766
2212.73	554.042
2211.98	593.996
2211.23	573.88
2210.48	540.427
2209.73	557.016
2208.98	556.924
2208.23	516.821
2207.48	533.406
2206.73	563.318
2205.98	613.216
2205.23	506.487
2204.48	549.715
2203.73	536.301
2202.98	536.213
2202.23	596.065
2201.48	579.32
2200.73	545.937
2199.98	552.504
2199.23	549.086
2198.48	555.651
2197.72	585.5
2196.97	585.404
2196.22	572.006
2195.47	568.587
2194.72	591.766
2193.97	565.077
2193.21	541.721
2192.46	525.018
2191.71	588.056
2190.96	574.673
2190.2	574.579
2189.45	511.391
2188.7	587.671
2187.94	607.493
2187.19	627.308
2186.44	554.197
2185.68	580.65
2184.93	544.063
2184.18	557.242
2183.42	560.467
2182.67	590.218
2181.91	603.382
2181.16	643.06
2180.41	556.786
2179.65	546.753
2178.9	609.613
2178.14	573.075
2177.39	579.605
2176.63	615.936
2175.88	529.751
2175.12	556.147
2174.37	562.676
2173.61	579.13
2172.86	565.8
2172.1	559.091
2171.34	578.845
2170.59	625.05
2169.83	505.91
2169.08	538.888
2168.32	588.382
2167.56	558.541
2166.81	598.102
2166.05	607.916
2165.29	564.873
2164.54	558.174
2163.78	643.942
2163.02	647.138
2162.27	581.008
2161.51	613.919
2160.75	597.318
2159.99	600.519
2159.23	603.72
2158.48	606.919
2157.72	646.395
2156.96	642.991
2156.2	593.433
2155.44	642.78
2154.69	599.83
2153.93	635.979
2153.17	695.179
2152.41	616.005
2151.65	573.087
2150.89	599.337
2150.13	595.946
2149.37	582.681
2148.61	618.791
2147.85	638.435
2147.09	621.878
2146.33	638.225
2145.57	582.202
2144.81	661.036
2144.05	667.504
2143.29	641.093
2142.53	660.71
2141.77	594.87
2141.01	588.201
2140.25	653.814
2139.49	591.292
2138.73	597.764
2137.97	610.801
2137.2	689.501
2136.44	649.994
2135.68	630.193
2134.92	672.752
2134.16	662.798
2133.4	662.689
2132.63	593.698
2131.87	646.073
2131.11	678.757
2130.35	629.468
2129.58	678.534
2128.82	698.087
2128.06	648.819
2127.29	671.646
2126.53	681.363
2125.77	661.599
2125	690.963
2124.24	671.204
2123.48	690.736
2122.71	595.702
2121.95	654.51
2121.19	667.49
2120.42	693.552
2119.66	729.418
2118.89	673.702
2118.13	686.67
2117.36	719.25
2116.6	647.219
2115.83	709.209
2115.07	705.824
2114.3	702.441
2113.54	682.725
2112.77	692.411
2112.01	754.343
2111.24	708.508
2110.48	734.507
2109.71	691.955
2108.94	662.47
2108.18	678.675
2107.41	760.122
2106.64	671.928
2105.88	740.304
2105.11	720.617
2104.34	658.555
2103.58	674.745
2102.81	739.816
2102.04	703.85
2101.28	697.217
2100.51	716.647
2099.74	700.245
2098.97	690.36
2098.21	758.619
2097.44	778.026
2096.67	745.35
2095.9	712.684
2095.13	696.298
2094.36	774.26
2093.6	803.406
2092.83	787.013
2092.06	757.619
2091.29	760.745
2090.52	705.361
2089.75	724.744
2088.98	711.627
2088.21	721.256
2087.44	786.104
2086.67	740.505
2085.9	763.114
2085.13	724.027
2084.36	772.6
2083.59	775.719
2082.82	811.287
2082.05	788.441
2081.28	742.894
2080.51	765.476
2079.74	723.19
2078.97	774.95
2078.2	797.516
2077.43	803.867
2076.65	725.953
2075.88	829.524
2075.11	874.744
2074.34	790.379
2073.57	790.248
2072.8	851.643
2072.02	793.225
2071.25	815.754
2070.48	822.092
2069.71	789.596
2068.93	773.287
2068.16	789.334
2067.39	824.783
2066.61	792.307
2065.84	843.91
2065.07	866.401
2064.29	811.308
2063.52	830.565
2062.75	914.44
2061.97	843.213
2061.2	839.843
2060.43	917.216
2059.65	836.336
2058.88	823.284
2058.1	829.604
2057.33	852.059
2056.55	893.868
2055.78	877.588
2055	832.281
2054.23	790.213
2053.45	835.23
2052.68	841.54
2051.9	873.639
2051.13	902.503
2050.35	899.131
2049.57	866.761
2048.8	869.839
2048.02	901.906
2047.25	921.08
2046.47	917.707
2045.69	978.725
2044.92	885.214
2044.14	910.814
2043.36	952.496
2042.59	920.165
2041.81	1016.52
2041.03	903.779
2040.25	964.728
2039.48	916.34
2038.7	912.973
2037.92	961.035
2037.14	976.944
2036.37	979.995
2035.59	1011.96
2034.81	966.822
2034.03	1011.62
2033.25	982.556
2032.47	969.552
2031.69	995.07
2030.92	969.23
2030.14	1010.78
2029.36	968.909
2028.58	1045.73
2027.8	984.624
2027.02	1019.73
2026.24	974.679
2025.46	1022.6
2024.68	1080.12
2023.9	1038.29
2023.12	1054.13
2022.34	1015.52
2021.56	1018.55
2020.78	1098.44
2020	1111.07
2019.21	1050.06
2018.43	1014.67
2017.65	1036.91
2016.87	1033.54
2016.09	1074.96
2015.31	1071.58
2014.53	1093.79
2013.74	1074.42
2012.96	1134.99
2012.18	1086.85
2011.4	1105.85
2010.62	1019.38
2009.83	1108.67
2009.05	1082.93
2008.27	1181.77
2007.49	1117.7
2006.7	1184.57
2005.92	1168.41
2005.14	1136.3
2004.35	1263.76
2003.57	1250.79
2002.79	1129.35
2002	1110.02
2001.22	1176.81
2000.43	1227.63
1999.65	1214.68
1998.87	1188.98
1998.08	1211.09
1997.3	1198.14
1996.51	1162.89
1995.73	1207.3
1994.94	1264.43
1994.16	1216.45
1993.37	1187.59
1992.59	1279.71
1991.8	1333.61
1991.02	1288.83
1990.23	1358.62
1989.44	1285.22
1988.66	1320
1987.87	1307.06
1987.09	1306.84
1986.3	1319.34
1985.51	1322.3
1984.73	1363.39
1983.94	1347.28
1983.15	1315.28
1982.37	1369.07
1981.58	1416.48
1980.79	1336.86
1980	1387.43
1979.22	1399.9
1978.43	1418.71
1977.64	1415.3
1976.85	1437.27
1976.06	1414.83
1975.28	1398.73
1974.49	1449.24
1973.7	1439.49
1972.91	1467.78
1972.12	1423.16
1971.33	1426.09
1970.54	1451.2
1969.76	1428.78
1968.97	1428.55
1968.18	1520.15
1967.39	1586.39
1966.6	1478.49
1965.81	1525.72
1965.02	1468.5
1964.23	1522.05
1963.44	1509.14
1962.65	1524.7
1961.86	1499.15
1961.07	1514.71
1960.28	1511.3
1959.48	1583.75
1958.69	1583.49
1957.9	1573.74
1957.11	1557.68
1956.32	1595.33
1955.53	1582.43
1954.74	1651.64
1953.94	1613.48
1953.15	1641.62
1952.36	1540.34
1951.57	1685.26
1950.78	1716.53
1949.98	1634.22
1949.19	1728.57
1948.4	1630.52
1947.61	1639.7
1946.81	1727.71
1946.02	1711.66
1945.23	1761.8
1944.43	1729.99
1943.64	1767.51
1942.85	1742.02
1942.05	1779.52
1941.26	1628.07
1940.46	1753.74
1939.67	1750.3
1938.88	1712.24
1938.08	1762.3
1937.29	1821.79
1936.49	1777.44
1935.7	1707.95
1934.9	1824.02
1934.11	1785.99
1933.31	1820.27
1932.52	1728.81
1931.72	1819.66
1930.93	1809.93
1930.13	1771.93
1929.33	1803.04
1928.54	1692.82
1927.74	1808.72
1926.95	1858.65
1926.15	1786.14
1925.35	1836.06
1924.56	1854.58
1923.76	1769.56
1922.96	1860.24
1922.17	1906.97
1921.37	1900.38
1920.57	1893.79
1919.77	1802.56
1918.98	1880.62
1918.18	1877.17
1917.38	1930.13
1916.58	1842.08
1915.78	1960.8
1914.99	2041.9
1914.19	1972.67
1913.39	1941.03
1912.59	1987.66
1911.79	1921.61
1910.99	2049.58
1910.19	1952.25
1909.39	1879.98
1908.59	1989.13
1907.8	2045.08
1907	1925.93
1906.2	1994.38
1905.4	2006.55
1904.6	1996.84
1903.8	1902.77
1903	1918.07
1902.2	1995.83
1901.39	2020.48
1900.59	1985.8
1899.79	2076
1898.99	2044.44
1898.19	2153.32
1897.39	1996.95
1896.59	2071.49
1895.79	2008.76
1894.99	2105.1
1894.18	2017.44
1893.38	1939.16
1892.58	2019.88
1891.78	1991.49
1890.98	2028.55
1890.17	2031.33
1889.37	2077.71
1888.57	2058.68
1887.76	2014.73
1886.96	2082.89
1886.16	2082.54
1885.36	2010.61
1884.55	2053.84
1883.75	2062.83
1882.94	2003.38
1882.14	2121.23
1881.34	2046.24
1880.53	2067.66
1879.73	2095.29
1878.92	2197.51
1878.12	2091.48
1877.32	2041.42
1876.51	2037.97
1875.71	2096.64
1874.9	2093.19
1874.1	2067.99
1873.29	2067.65
1872.49	2188.36
1871.68	2119.71
1870.87	2088.33
1870.07	2153.13
1869.26	2078.32
1868.46	2152.41
1867.65	2139.64
1866.84	2129.98
1866.04	2080.02
1865.23	2119.97
1864.42	2128.91
1863.62	2218.4
1862.81	2060.04
1862	2199.07
1861.2	2105.8
1860.39	2179.76
1859.58	2210.35
1858.77	2070.69
1857.96	2104.38
1857.16	2107.12
1856.35	2227.42
1855.54	2155.91
1854.73	2158.64
1853.92	2099.52
1853.12	2201.19
1852.31	2058.63
1851.5	2144.82
1850.69	2169.18
1849.88	2162.64
1849.07	2233.32
1848.26	2097.05
1847.45	2161.55
1846.64	2133.4
1845.83	2182.43
1845.02	2249.96
1844.21	2064.43
1843.4	2230.69
1842.59	2177.88
1841.78	2189.85
1840.97	2214.15
1840.16	2161.36
1839.35	2185.66
1838.54	2191.46
1837.72	2132.53
1836.91	2227.69
1836.1	2153.38
1835.29	2193.06
1834.48	2128.02
1833.67	2155.37
1832.85	2158.09
1832.04	2086.93
1831.23	2206.6
1830.42	2187.77
1829.6	2088.95
1828.79	2193.18
1827.98	2072.87
1827.17	2121.72
1826.35	2035.28
1825.54	2130.23
1824.73	2203.63
1823.91	2209.41
1823.1	2209.03
1822.29	2205.59
1821.47	2143.79
1820.66	2260.12
1819.84	2170.7
1819.03	2136.57
1818.21	2216.01
1817.4	2157.33
1816.58	2316.51
1815.77	2199.55
1814.95	2156.24
1814.14	2208.01
1813.32	2149.38
1812.51	2078.51
1811.69	2124.13
1810.88	2172.81
1810.06	2117.29
1809.25	2221.09
1808.43	2202.34
1807.61	2232.59
1806.8	2192.41
1805.98	2152.24
1805.16	2145.75
1804.35	2194.36
1803.53	2221.53
1802.71	2159.97
1801.89	2260.55
1801.08	2156.18
1800.26	2180.28
1799.44	2091.25
1798.62	2237.62
1797.81	2200.57
1796.99	2249.09
1796.17	2205.94
1795.35	2150.58
1794.53	2266.28
1793.71	2195.66
1792.9	2234.98
1792.08	2152.18
1791.26	2249.48
1790.44	2191.12
1789.62	2187.7
1788.8	2278.85
1787.98	2226.61
1787.16	2134.75
1786.34	2064.26
1785.52	2252.92
1784.7	2234.25
1783.88	2300.92
1783.06	2239.59
1782.24	2223.98
1781.42	2247.97
1780.6	2204.96
1779.78	2213.72
1778.95	2152.45
1778.13	2276.89
1777.31	2194.33
1776.49	2370.45
1775.67	2272.69
1774.85	2214.51
1774.02	2201.97
1773.2	2198.56
1772.38	2249.87
1771.56	2203.9
1770.74	2276.47
1769.91	2294.32
1769.09	2369.89
1768.27	2275.31
1767.44	2302.26
1766.62	2368.68
1765.8	2292.37
1764.97	2134.13
1764.15	2297.67
1763.33	2233.55
1762.5	2336.34
1761.68	2345.04
1760.85	2381.04
1760.03	2323.02
1759.21	2343.85
1758.38	2398.02
1757.56	2424.9
1756.73	2288.11
1755.91	2215
1755.08	2302.48
1754.26	2332.38
1753.43	2410.73
1752.6	2407.29
1751.78	2428.08
1750.95	2312.64
1750.13	2430.28
1749.3	2429.87
1748.47	2353.82
1747.65	2286.87
1746.82	2337.9
1745.99	2328.43
1745.17	2439.9
1744.34	2521.11
1743.51	2439.08
1742.69	2393.34
1741.86	2462.42
1741.03	2452.94
1740.2	2549.18
1739.38	2494.39
1738.55	2457.73
1737.72	2520.71
1736.89	2574.61
1736.06	2637.55
1735.23	2640.12
1734.4	2549.17
1733.58	2563.82
1732.75	2684.01
1731.92	2605.16
1731.09	2683.1
1730.26	2661.55
1729.43	2612.87
1728.6	2630.51
1727.77	2599.94
1726.94	2774.2
1726.11	2677.36
1725.28	2746.16
1724.45	2667.42
1723.62	2796.4
1722.79	2777.87
1721.96	2840.58
1721.13	2716.75
1720.3	2818.56
1719.46	2733.87
1718.63	2823.62
1717.8	2808.11
1716.97	2714.44
1716.14	2719.99
1715.31	2788.65
1714.47	2695.03
1713.64	2811.73
1712.81	2682.1
1711.98	2708.67
1711.14	2702.21
1710.31	2740.77
1709.48	2683.28
1708.65	2586.8
1707.81	2658.37
1706.98	2579.92
1706.15	2723.45
1705.31	2645.01
1704.48	2614.58
1703.64	2593.15
1702.81	2673.64
1701.98	2580.28
1701.14	2582.84
1700.31	2648.31
1699.47	2725.73
1698.64	2611.47
1697.8	2787.69
1696.97	2739.31
1696.13	2664.01
1695.3	2699.47
1694.46	2555.39
1693.63	2713.51
1692.79	2665.19
1691.95	2742.5
1691.12	2813.8
1690.28	2684.76
1689.45	2824.8
1688.61	2686.83
1687.77	2758.09
1686.94	2799.45
1686.1	2721.31
1685.26	2789.54
1684.42	2696.49
1683.59	2737.83
1682.75	2791.1
1681.91	2787.64
1681.07	2709.58
1680.24	2724.03
1679.4	2783.23
1678.56	2743.98
1677.72	2761.41
1676.88	2799.7
1676.04	2817.11
1675.21	2825.57
1674.37	2831.05
1673.53	2845.46
1672.69	2847.95
1671.85	2817.68
1671.01	2969.08
1670.17	2950.71
1669.33	2750.75
1668.49	2878.27
1667.65	2865.87
1666.81	2912.99
1665.97	2781.6
1665.13	2858.46
1664.29	2881.76
1663.45	2902.08
1662.61	2901.59
1661.77	2895.15
1660.92	2858.99
1660.08	2813.93
1659.24	2941.2
1658.4	2854.56
1657.56	2969.9
1656.72	3025.81
1655.87	2962.95
1655.03	2953.53
1654.19	2982.71
1653.35	2964.4
1652.5	2877.85
1651.66	3007.88
1650.82	2953.98
1649.98	3000.92
1649.13	3080.46
1648.29	3005.82
1647.45	2913.43
1646.6	3016.65
1645.76	2924.29
1644.91	2994.88
1644.07	2994.37
1643.23	3014.59
1642.38	3061.45
1641.54	3031.32
1640.69	3110.72
1639.85	3042.12
1639	3012.01
1638.16	3073.62
1637.31	3019.86
1636.47	2895.14
1635.62	2965.6
1634.78	3044.92
1633.93	3109.42
1633.08	3011.37
1632.24	3081.76
1631.39	3098.96
1630.55	3139.78
1629.7	3103.81
1628.85	3097.37
1628.01	3152.93
1627.16	3114.02
1626.31	3166.61
1625.46	3210.33
1624.62	3056.37
1623.77	3206.28
1622.92	3235.22
1622.07	3202.24
1621.23	3127.98
1620.38	3357.36
1619.53	3327.32
1618.68	3256.03
1617.83	3426.35
1616.98	3469.94
1616.13	3578.32
1615.29	3580.65
1614.44	3777.29
1613.59	3706
1612.74	3687.71
1611.89	3687.08
1611.04	3609.95
1610.19	3553.44
1609.34	3511.66
1608.49	3525.76
1607.64	3516.33
1606.79	3345.24
1605.94	3415.2
1605.09	3317.64
1604.24	3267.13
1603.38	3331.19
1602.53	3295.38
1601.68	3271.32
1600.83	3179.74
1599.98	3387.62
1599.13	3387.04
1598.27	3292.55
1597.42	3268.52
1596.57	3259.16
1595.72	3255.66
1594.87	3287.36
1594.01	3260.41
1593.16	3292.1
1592.31	3159.64
1591.45	3214.78
1590.6	3395.88
1589.75	3281.05
1588.89	3324.42
1588.04	3347.28
1587.19	3399.41
1586.33	3325.64
1585.48	3325.07
1584.62	3268.89
1583.77	3364.89
1582.92	3259
1582.06	3264.29
1581.21	3275.42
1580.35	3286.56
1579.5	3356.16
1578.64	3300.04
1577.78	3436.83
1576.93	3319.36
1576.07	3286.66
1575.22	3478.88
1574.36	3408.19
1573.51	3360.88
1572.65	3389.5
1571.79	3403.51
1570.94	3321.21
1570.08	3352.74
1569.22	3337.57
1568.37	3412.84
1567.51	3461.83
1566.65	3353.35
1565.79	3545.19
1564.94	3375.52
1564.08	3380.76
1563.22	3423.89
1562.36	3461.18
1561.5	3434.37
1560.65	3445.43
1559.79	3430.27
1558.93	3368.54
1558.07	3443.65
1557.21	3425.59
1556.35	3550.13
1555.49	3505.88
1554.63	3531.46
1553.77	3527.94
1552.91	3448.82
1552.05	3616.86
1551.19	3424.38
1550.33	3577.83
1549.47	3437.73
1548.61	3559.16
1547.75	3477.21
1546.89	3578.27
1546.03	3432.46
1545.17	3524.78
1544.31	3588.03
1543.45	3572.9
1542.58	3520.05
1541.72	3626.8
1540.86	3460.82
1540	3471.83
1539.14	3546.63
1538.28	3499.63
1537.41	3481.63
1536.55	3423.06
1535.69	3465.94
1534.82	3604.42
1533.96	3577.73
1533.1	3646.63
1532.24	3614.14
1531.37	3506.39
1530.51	3557.89
1529.64	3522.54
1528.78	3681.11
1527.92	3637.07
1527.05	3572.8
1526.19	3612.67
1525.32	3542.64
1524.46	3556.49
1523.59	3700.43
1522.73	3598.62
1521.86	3545.98
1521	3672.51
1520.13	3735.43
1519.27	3703.01
1518.4	3679.27
1517.54	3675.75
1516.67	3758.84
1515.8	3593.66
1514.94	3722.91
1514.07	3719.38
1513.21	3692.77
1512.34	3657.52
1511.47	3628.05
1510.6	3702.39
1509.74	3612.38
1508.87	3776.06
1508	3694.71
1507.14	3711.36
1506.27	3745.29
1505.4	3704.32
1504.53	3864.96
1503.66	3890.21
1502.8	3780.13
1501.93	3883.11
1501.06	3870.92
1500.19	3781.05
1499.32	3725.74
1498.45	3748.1
1497.58	3859.62
1496.71	3841.7
1495.84	3763.41
1494.97	3869.12
1494.1	3957.55
1493.23	3919.51
1492.36	3815.4
1491.49	3860.7
1490.62	3865.78
1489.75	4023.04
1488.88	3789.79
1488.01	3918.31
1487.14	3940.59
1486.27	3928.43
1485.4	4025.3
1484.52	3944.29
1483.65	4032.51
1482.78	4114.98
1481.91	4091.33
1481.04	4013.22
1480.17	4089.91
1479.29	4023.3
1478.42	4002.54
1477.55	4102.11
1476.67	4052.71
1475.8	4198.06
1474.93	4059.9
1474.06	4113.59
1473.18	4187.29
1472.31	3983.39
1471.43	4122.89
1470.56	4202.28
1469.69	4138.63
1468.81	4146.49
1467.94	4097.17
1467.06	4182.22
1466.19	4178.63
1465.31	4366.52
1464.44	4160.04
1463.56	4259.31
1462.69	4252.86
1461.81	4314.94
1460.94	4345.6
1460.06	4193.55
1459.19	4489.66
1458.31	4400.42
1457.43	4416.77
1456.56	4264.81
1455.68	4395.28
1454.8	4280.45
1453.93	4390.9
1453.05	4330.28
1452.17	4474.89
1451.3	4571
1450.42	4467.64
1449.54	4543.78
1448.66	4554.38
1447.78	4576.38
1446.91	4575.58
1446.03	4532.09
1445.15	4628.07
1444.27	4698.42
1443.39	4600.86
1442.51	4605.75
1441.64	4553.75
1440.76	4621.21
1439.88	4822.29
1439	4716.27
1438.12	4667.13
1437.24	4603.8
1436.36	4708.13
1435.48	4727.2
1434.6	4800.23
1433.72	4734.08
1432.84	4855.35
1431.96	4709.72
1431.08	4737.29
1430.2	4759.17
1429.31	4905.88
1428.43	4811.41
1427.55	4943.89
1426.67	4835.27
1425.79	4868.45
1424.91	5020.69
1424.02	4999.98
1423.14	4911.26
1422.26	4933.07
1421.38	4901.05
1420.49	5104.14
1419.61	4930.5
1418.73	4980.61
1417.85	4965.59
1416.96	4936.42
1416.08	5128
1415.2	4971.49
1414.31	5126.22
1413.43	5063.1
1412.54	5065.05
1411.66	5214.03
1410.78	5173.54
1409.89	5118.93
1409.01	5084.13
1408.12	5148.24
1407.24	5150.16
1406.35	5256.6
1405.47	5125.78
1404.58	5057.12
1403.7	5222.8
1402.81	5255.77
1401.92	5201.23
1401.04	5253.94
1400.15	5244.56
1399.27	5204.16
1398.38	5152.49
1397.49	5278.48
1396.61	5271.92
1395.72	5161.07
1394.83	5275.72
1393.94	5243.8
1393.06	5189.36
1392.17	5256.06
1391.28	5117.15
1390.39	5257.05
1389.51	5365.93
1388.62	5266.47
1387.73	5192.38
1386.84	5351.87
1385.95	5297.48
1385.06	5321.87
1384.17	5205.64
1383.29	5173.8
1382.4	5195.39
1381.51	5264.76
1380.62	5255.41
1379.73	5330.36
1378.84	5264.81
1377.95	5359.4
1377.06	5105.7
1376.17	5343.49
1375.28	5308.87
1374.39	5288.29
1373.5	5217.21
1372.6	5151.76
1371.71	5293.94
1370.82	5102.28
1369.93	5112.6
1369.04	5251.91
1368.15	5175.3
1367.26	5095.91
1366.36	5162.28
1365.47	5102.54
1364.58	5171.69
1363.69	5075.55
1362.79	5049.46
1361.9	5014.97
1361.01	5036.5
1360.11	4993.63
1359.22	4959.17
1358.33	5022.66
1357.43	4937.86
1356.54	4914.62
1355.65	4924.95
1354.75	4968.82
1353.86	4761.07
1352.96	4793.78
1352.07	4689.54
1351.17	4590.92
1350.28	4632.03
1349.39	4566.97
1348.49	4661.13
1347.59	4654.73
1346.7	4531.08
1345.8	4446.55
1344.91	4384.37
1344.01	4428.25
1343.12	4452.58
1342.22	4490.86
1341.32	4358.99
1340.43	4394.48
1339.53	4335.17
1338.63	4217.34
1337.74	4230.53
1336.84	4188
1335.94	4195.62
1335.04	4105.75
1334.15	4040.98
1333.25	4026.35
1332.35	3986.67
1331.45	3988.76
1330.55	3971.36
1329.66	3940.06
1328.76	3900.42
1327.86	3855.23
1326.96	3790.59
1326.06	3731.54
1325.16	3664.16
1324.26	3641.28
1323.36	3510.03
1322.46	3584.43
1321.56	3567.14
1320.66	3605.4
1319.76	3479.8
1318.86	3540.27
1317.96	3478.58
1317.06	3397.47
1316.16	3305.29
1315.26	3382.41
1314.36	3398.46
1313.46	3306.33
1312.55	3344.58
1311.65	3216.44
1310.75	3163.2
1309.85	3184.82
1308.95	3236.92
1308.04	3144.92
1307.14	3277.34
1306.24	3188.13
1305.34	3068.49
1304.43	3087.33
1303.53	3120.01
1302.63	2964.46
1301.72	2939.03
1300.82	2957.89
1299.92	2973.97
1299.01	2898.76
1298.11	2975.69
1297.21	2944.75
1296.3	2800.48
1295.4	2860.8
1294.49	2849.24
1293.59	2868.08
1292.68	2925.59
1291.78	2792.5
1290.87	2841.72
1289.97	3001.36
1289.06	2788.27
1288.16	2840.22
1287.25	2861.8
1286.34	2717.82
1285.44	2786.31
1284.53	2722.38
1283.62	2848.76
1282.72	2765.54
1281.81	2690.62
1280.9	2643.29
1280	2692.43
1279.09	2719.51
1278.18	2663.93
1277.27	2668.98
1276.37	2572.12
1275.46	2607.46
1274.55	2695.1
1273.64	2628.57
1272.73	2636.36
1271.82	2619.39
1270.92	2508.89
1270.01	2626.72
1269.1	2571.26
1268.19	2590.05
1267.28	2501.62
1266.37	2531.42
1265.46	2514.49
1264.55	2497.56
1263.64	2527.34
1262.73	2590.06
1261.82	2466.03
1260.91	2501.29
1260	2429.48
1259.09	2409.84
1258.18	2392.95
1257.27	2474.84
1256.35	2416.79
1255.44	2388.94
1254.53	2465.3
1253.62	2333.26
1252.71	2354.78
1251.79	2370.81
1250.88	2323.81
1249.97	2380.94
1249.06	2290.12
1248.14	2434.88
1247.23	2316.7
1246.32	2283.43
1245.41	2250.18
1244.49	2244.31
1243.58	2282.23
1242.66	2342.02
1241.75	2265.01
1240.84	2226.32
1239.92	2307.96
1239.01	2351.3
1238.09	2296.22
1237.18	2194.69
1236.26	2207.96
1235.35	2275.88
1234.43	2302.79
1233.52	2245.03
1232.6	2228.25
1231.69	2263.35
1230.77	2268.41
1229.86	2207.97
1228.94	2210.31
1228.02	2152.62
1227.11	2171.34
1226.19	2157.32
1225.27	2156.94
1224.36	2077.49
1223.44	2243.4
1222.52	2207.58
1221.6	2193.56
1220.69	2179.55
1219.77	2086.56
1218.85	2091.63
1217.93	2096.71
1217.01	2134.46
1216.1	2085.08
1215.18	2111.93
1214.26	2141.49
1213.34	2105.74
1212.42	2072.73
1211.5	2050.61
1210.58	2052.96
1209.66	2044.44
1208.74	2041.36
1207.82	2051.88
1206.9	2008.04
1205.98	2108.2
1205.06	2050.79
1204.14	2044.99
1203.22	2025.62
1202.3	2019.84
1201.38	1938.05
1200.46	1989.27
1199.54	2002.49
1198.61	2075.38
1197.69	1866.16
1196.77	1996
1195.85	1960.4
1194.93	2049.51
1194	1878.39
1193.08	1981.04
1192.16	1959.01
1191.24	1839.47
1190.31	1917.69
1189.39	1925.47
1188.47	1917.01
1187.54	1878.77
1186.62	1851.37
1185.7	1872.69
1184.77	1942.71
1183.85	1853.09
1182.92	1904.16
1182	1911.93
1181.07	1889.96
1180.15	1803.12
1179.23	1913.62
1178.3	1913.28
1177.37	1972.38
1176.45	1788.34
1175.52	1877.15
1174.6	1863.32
1173.67	1806.29
1172.75	1895.05
1171.82	1851.53
1170.89	1913.27
1169.97	1853.57
1169.04	1845.15
1168.11	1823.25
1167.19	1817.53
1166.26	1779.46
1165.33	1808.8
1164.4	1668.33
1163.48	1759.65
1162.55	1710.85
1161.62	1645.89
1160.69	1737.17
1159.76	1683.01
1158.83	1733.86
1157.91	1733.56
1156.98	1789.77
1156.05	1827.12
1155.12	1694.97
1154.19	1756.54
1153.26	1678.23
1152.33	1599.95
1151.4	1688.39
1150.47	1631.64
1149.54	1660.91
1148.61	1665.99
1147.68	1689.88
1146.75	1603.62
1145.82	1748.36
1144.89	1678.24
1143.96	1608.14
1143.02	1559.54
1142.09	1674.66
1141.16	1577.76
1140.23	1537.24
1139.3	1523.56
1138.36	1574.24
1137.43	1667.81
1136.5	1600.49
1135.57	1592.17
1134.63	1554.36
1133.7	1559.45
1132.77	1634.18
1131.83	1580.32
1130.9	1558.62
1129.97	1566.37
1129.03	1536.65
1128.1	1595.26
1127.17	1533.42
1126.23	1573.28
1125.3	1578.36
1124.36	1447.01
1123.43	1526.98
1122.49	1590.88
1121.56	1593.27
1120.62	1582.3
1119.69	1579.34
1118.75	1627.16
1117.81	1634.88
1116.88	1559.81
1115.94	1588.9
1115.01	1561.92
1114.07	1454.86
1113.13	1537.34
1112.2	1483.7
1111.26	1515.45
1110.32	1480.5
1109.38	1517.58
1108.45	1418.64
1107.51	1578.36
1106.57	1514.1
1105.63	1527.16
1104.69	1505.57
1103.76	1382.75
1102.82	1467.74
1101.88	1499.44
1100.94	1419.29
1100	1435.01
1099.06	1349.57
1098.12	1391.92
1097.18	1410.29
1096.24	1431.33
1095.3	1417.77
1094.36	1438.79
1093.42	1417.27
1092.48	1411.7
1091.54	1366.26
1090.6	1326.15
1089.66	1325.91
1088.72	1378.81
1087.78	1359.97
1086.84	1354.42
1085.9	1298.42
1084.95	1322.08
1084.01	1366.96
1083.07	1287.11
1082.13	1284.22
1081.19	1289.3
1080.24	1246.63
1079.3	1302.1
1078.36	1376.11
1077.41	1322.84
1076.47	1349.11
1075.53	1295.87
1074.58	1316.83
1073.64	1260.97
1072.7	1242.2
1071.75	1252.57
1070.81	1255
1069.86	1209.77
1068.92	1273.08
1067.98	1280.79
1067.03	1256.75
1066.09	1267.1
1065.14	1198.11
1064.19	1229.63
1063.25	1187.11
1062.3	1223.91
1061.36	1194.61
1060.41	1210.26
1059.46	1220.61
1058.52	1175.48
1057.57	1217.53
1056.63	1159.22
1055.68	1135.25
1054.73	1211.6
1053.78	1240.41
1052.84	1163.67
1051.89	1205.67
1050.94	1223.92
1049.99	1163.04
1049.05	1199.75
1048.1	1199.54
1047.15	1201.96
1046.2	1243.91
1045.25	1254.23
1044.3	1219.75
1043.35	1177.39
1042.4	1156.11
1041.45	1240.16
1040.5	1166.23
1039.55	1184.45
1038.6	1123.71
1037.65	1189.29
1036.7	1189.07
1035.75	1102.06
1034.8	1175.5
1033.85	1185.8
1032.9	1211.88
1031.95	1169.61
1031	1103.7
1030.05	1148.17
1029.1	1163.73
1028.14	1205.54
1027.19	1173.82
1026.24	1176.23
1025.29	1194.39
1024.33	1196.81
1023.38	1120.49
1022.43	1172.76
1021.48	1162.06
1020.52	1172.34
1019.57	1140.67
1018.62	1109
1017.66	1163.85
1016.71	1205.57
1015.75	1105.78
1014.8	1113.45
1013.85	1194.45
1012.89	1123.52
1011.94	1118.08
1010.98	1193.81
1010.03	1088.89
1009.07	1148.89
1008.12	1104.2
1007.16	1114.47
1006.2	1143.04
1005.25	1140.22
1004.29	1106.02
1003.34	1111.05
1002.38	1139.6
1001.42	1100.2
1000.47	1149.65
999.508	1037.11
998.551	1094.38
997.594	1125.52
996.636	1125.32
995.679	1036.36
994.721	1104.04
993.763	1064.7
992.805	1150.61
991.846	1100.84
990.888	1074.56
989.929	1103.05
988.97	1071.56
988.011	1081.8
987.052	1105.06
986.093	1102.26
985.133	1115.08
984.173	1153.96
983.213	1125.1
982.253	1038.97
981.293	1127.3
980.333	1103.67
979.372	1098.27
978.411	1092.87
977.45	1108.28
976.489	1076.87
975.528	1102.68
974.566	1099.88
973.605	1125.68
972.643	1044.9
971.681	1055.11
970.719	1078.3
969.756	1096.29
968.794	1018.17
967.831	1132.26
966.868	1119.07
965.905	1092.91
964.942	1095.31
963.979	1128.85
963.015	1087.13
962.052	1076.56
961.088	1081.55
960.124	1078.76
959.159	1013.75
958.195	1036.9
957.23	1070.41
956.266	1070.21
955.301	1124.43
954.336	1113.86
953.37	1072.22
952.405	1082.39
951.439	1082.19
950.473	1089.76
949.507	1086.98
948.541	1066.08
947.575	1107.29
946.608	1003.62
945.642	1130.16
944.675	1119.62
943.708	1008.25
942.741	1036.5
941.773	1051.82
940.806	1046.46
939.838	1035.94
938.87	1056.42
937.902	1038.15
936.934	1050.87
935.965	1071.33
934.997	1040.17
934.028	1109.66
933.059	1037.21
932.09	1018.97
931.121	1132.27
930.151	1018.6
929.182	1082.87
928.212	1064.63
927.242	1072.17
926.272	1053.94
925.301	1040.87
924.331	994.314
923.36	1107.46
922.389	1104.68
921.418	1109.63
920.447	1047.65
919.475	1047.46
918.504	1103.88
917.532	1034.22
916.56	1039.18
915.588	992.699
914.616	1061.94
913.643	1025.76
912.671	1035.86
911.698	1071.65
910.725	1050.9
909.752	1096.95
908.779	1142.99
907.805	1096.55
906.831	1073.25
905.858	1060.22
904.883	1080.56
903.909	1041.87
902.935	1067.34
901.96	1067.15
900.986	1049
900.011	1130.87
899.036	1128.1
898.06	1071.5
897.085	1086.69
896.109	1112.12
895.133	1050.43
894.157	1129.64
893.181	1101.27
892.205	1129.24
891.229	1121.35
890.252	1077.63
889.275	1141.42
888.298	1074.68
887.321	1102.63
886.343	1110.1
885.366	1120.13
884.388	1091.8
883.41	1145.29
882.432	1124.64
881.454	1078.43
880.475	1078.24
879.497	1147.02
878.518	1210.66
877.539	1115.96
876.56	1133.63
875.58	1102.79
874.601	1064.31
873.621	1120.25
872.641	1130.26
871.661	1101.99
870.681	1089.04
869.701	1206.14
868.72	1075.9
867.739	1162.37
866.758	1149.42
865.777	1167.04
864.796	1131.17
863.815	1123.32
862.833	1156.22
861.851	1176.38
860.869	1186.35
859.887	1206.5
858.905	1224.1
857.922	1226.42
856.939	1261.81
855.956	1192.91
854.973	1230.84
853.99	1253.5
853.007	1197.34
852.023	1273.38
851.039	1260.44
850.055	1176.37
849.071	1163.45
848.087	1163.24
847.102	1142.71
846.118	1195.82
845.133	1180.38
844.148	1192.85
843.163	1174.87
842.177	1118.84
841.192	1128.79
840.206	1082.93
839.22	1128.38
838.234	1120.57
837.248	1102.62
836.261	1132.83
835.274	1135.16
834.288	1165.35
833.301	1109.42
832.313	1104.15
831.326	1109.01
830.339	1108.81
829.351	1118.73
828.363	1146.37
827.375	1130.98
826.387	1140.89
825.398	1064.81
824.409	1153.12
823.421	1114.99
822.432	1135.01
821.443	1112.05
820.453	1129.54
819.464	1131.86
818.474	1119.02
817.484	1101.14
816.494	1068.12
815.504	1136.09
814.513	1080.35
813.523	1095.29
812.532	1069.86
811.541	1089.85
810.55	1097.22
809.559	1076.84
808.567	1101.86
807.575	1111.74
806.583	1156.91
805.591	1048.34
804.599	1133.81
803.607	1090.78
802.614	1077.99
801.621	1105.49
800.628	1145.58
799.635	1135.3
798.642	1145.16
797.649	1195.28
796.655	1119.58
795.661	1121.89
794.667	1134.26
793.673	1191.89
792.678	1113.74
791.684	1141.18
790.689	1130.92
789.694	1093.03
788.699	1107.9
787.704	1132.82
786.708	1067.32
785.713	1152.49
784.717	1097.05
783.721	1099.36
782.724	1129.28
781.728	1051.29
780.731	1101.27
779.735	1068.46
778.738	1088.33
777.741	1060.55
776.743	1092.95
775.746	1100.26
774.748	1130.13
773.75	1119.91
772.752	1082.13
771.754	1031.84
770.756	1101.76
769.757	1033.97
768.758	1128.9
767.759	1086.15
766.76	1113.47
765.761	1125.78
764.761	1145.58
763.762	1112.86
762.762	1085.15
761.762	1059.96
760.762	1052.26
759.761	1087.06
758.761	1126.84
757.76	1044.19
756.759	1136.41
755.758	1108.74
754.756	1116.03
753.755	1153.27
752.753	1083.17
751.751	1130.39
750.749	1152.63
749.747	1147.43
748.745	1132.26
747.742	1132.05
746.739	1067.03
745.736	1059.35
744.733	1168.81
743.73	1141.19
742.726	1096.14
741.723	1150.74
740.719	1103.21
739.715	1088.07
738.71	1130.19
737.706	1167.32
736.701	1159.64
735.697	1092.25
734.692	1201.5
733.686	1134.13
732.681	1106.57
731.675	1054.16
730.67	1118.59
729.664	1113.42
728.658	1105.76
727.651	1140.34
726.645	1085.48
725.638	1139.92
724.631	1209.24
723.624	1149.43
722.617	1084.69
721.61	1116.75
720.602	1079.33
719.595	1121.3
718.587	1083.89
717.578	1066.33
716.57	1073.58
715.562	1125.44
714.553	1167.37
713.544	1134.94
712.535	1139.68
711.526	1181.59
710.516	1154.13
709.507	1191.06
708.497	1158.66
707.487	1178.24
706.477	1140.91
705.467	1155.54
704.456	1214.71
703.445	1239.22
702.434	1194.48
701.423	1228.87
700.412	1139.65
699.401	1149.33
698.389	1173.83
697.377	1143.96
696.365	1151.17
695.353	1160.83
694.34	1150.74
693.328	1083.87
692.315	1133.04
691.302	1098.28
690.289	1149.9
689.276	1055.94
688.262	1139.61
687.249	1122.14
686.235	1158.92
685.221	1180.89
684.206	1116.59
683.192	1123.78
682.177	1133.43
681.162	1197.27
680.147	1194.59
679.132	1157.43
678.117	1144.9
677.101	1184.08
676.086	1075.57
675.07	1163.96
674.054	1190.81
673.037	1165.99
672.021	1160.86
671.004	1118.84
669.987	1185.01
668.97	1125.8
667.953	1115.77
666.936	1110.65
665.918	1166.95
664.9	1156.91
663.882	1117.4
662.864	1129.47
661.846	1195.55
660.827	1097.15
659.808	1180.38
658.789	1204.7
657.77	1170.13
656.751	1133.13
655.731	1142.73
654.712	1162.13
653.692	1098.19
652.672	1164.16
651.652	1159.04
650.631	1149.03
649.611	1143.92
648.59	1119.22
647.569	1182.67
646.548	1155.53
645.526	1196.92
644.505	1235.86
643.483	1113.29
642.461	1176.69
641.439	1164.24
640.417	1166.48
639.394	1171.15
638.371	1214.94
637.348	1190.27
636.325	1209.6
635.302	1294.89
634.279	1236.03
633.255	1360.35
632.231	1428.47
631.207	1345.2
630.183	1313.22
629.159	1256.85
628.134	1251.74
627.109	1188.08
626.084	1202.49
625.059	1260.8
624.034	1128.9
623.008	1223.77
621.983	1194.29
620.957	1096.6
619.931	1123.2
618.904	1249.66
617.878	1142.27
616.851	1183.45
615.824	1127.24
614.797	1195.19
613.77	1187.66
612.743	1197.18
611.715	1162.9
610.687	1216.19
609.659	1150.31
608.631	1133.07
607.603	1159.61
606.574	1137.52
605.546	1198.06
604.517	1107.94
603.487	1163.61
602.458	1182.82
601.429	1223.89
600.399	1243.08
599.369	1208.87
598.339	1228.06
597.309	1196.29
596.278	1232.46
595.248	1268.62
594.217	1210.18
593.186	1166.31
592.155	1129.73
591.123	1243.44
590.091	1187.47
589.06	1194.52
588.028	1225.79
586.996	1191.66
585.963	1213.23
584.931	1186.37
583.898	1261.19
582.865	1183.51
581.832	1258.31
580.798	1168.56
579.765	1231.23
578.731	1240.68
577.697	1221.11
576.663	1247.47
575.629	1254.49
574.594	1237.34
573.56	1188.79
572.525	1265.88
571.49	1241.49
570.455	1176.06
569.419	1214.47
568.384	1199.76
567.348	1187.47
566.312	1276.53
565.276	1257
564.239	1196.46
563.203	1227.59
562.166	1261.12
561.129	1198.2
560.092	1294.4
559.054	1248.37
558.017	1233.68
556.979	1264.77
555.941	1274.17
554.903	1206.5
553.865	1249.62
552.826	1246.98
551.787	1174.54
550.749	1251.33
549.709	1162.08
548.67	1219.59
547.631	1236.2
546.591	1207.12
545.551	1218.92
544.511	1206.67
543.471	1220.87
542.43	1278.31
541.39	1246.84
540.349	1263.42
539.308	1243.97
538.267	1258.15
537.225	1320.33
536.184	1207.28
535.142	1216.65
534.1	1242.82
533.058	1221
532.015	1189.59
530.973	1158.2
529.93	1172.37
528.887	1205.71
527.844	1181.52
526.801	1116.6
525.757	1221.81
524.713	1152.12
523.669	1235.72
522.625	1235.49
521.581	1266.38
520.537	1218.28
519.492	1186.94
518.447	1213.04
517.402	1179.32
516.357	1236.51
515.311	1236.28
514.265	1195.4
513.22	1176.06
512.174	1142.38
511.127	1211.46
510.081	1199.29
509.034	1105.91
507.987	1143.92
506.94	1105.5
505.893	1136.33
504.846	1179.08
503.798	1164.54
502.75	1212.04
501.702	1130.71
500.654	1209.21
499.606	1223.29
