3200.54	33.6783
3199.95	12.6294
3199.35	50.5099
3198.76	54.7107
3198.16	33.6631
3197.57	33.658
3196.98	58.8926
3196.38	50.4717
3195.79	37.8481
3195.19	67.2753
3194.6	50.4488
3194	33.6275
3193.41	29.4196
3192.81	37.8194
3192.22	29.4107
3191.62	29.4062
3191.03	42.0025
3190.43	37.7966
3189.84	37.7909
3189.24	62.9752
3188.65	33.5817
3188.05	50.3649
3187.45	41.9644
3186.86	67.133
3186.26	20.9759
3185.67	71.3072
3185.07	46.133
3184.47	62.8991
3183.88	46.119
3183.28	50.304
3182.69	50.2964
3182.09	50.2888
3181.49	37.7109
3180.9	50.2736
3180.3	50.266
3179.7	50.2584
3179.1	37.6881
3178.51	20.9346
3177.91	41.8629
3177.31	12.557
3176.72	54.4054
3176.12	62.7659
3175.52	41.8376
3174.92	20.9156
3174.33	33.4599
3173.73	71.0916
3173.13	45.9935
3172.53	79.4313
3171.93	37.6196
3171.34	37.6139
3170.74	29.2509
3170.14	33.4245
3169.54	50.1291
3168.94	29.2376
3168.34	54.2901
3167.74	37.5798
3167.15	20.8745
3166.55	45.9169
3165.95	29.2154
3165.35	58.422
3164.75	37.5513
3164.15	70.9195
3163.55	75.0798
3162.95	41.7047
3162.35	29.1889
3161.75	16.6768
3161.15	70.8658
3160.55	12.5038
3159.95	70.8443
3159.35	54.1668
3158.75	41.6605
3158.15	37.4887
3157.55	41.6478
3156.95	54.134
3156.35	41.6352
3155.75	66.6062
3155.15	49.9471
3154.55	54.1011
3153.95	20.805
3153.35	49.9244
3152.75	33.2779
3152.15	33.2728
3151.54	49.9016
3150.94	49.8941
3150.34	29.1005
3149.74	54.0355
3149.14	45.7154
3148.54	20.7766
3147.94	45.7015
3147.33	20.7703
3146.73	58.148
3146.13	45.6807
3145.53	37.3695
3144.93	45.6669
3144.32	49.8109
3143.72	45.653
3143.12	45.6461
3142.52	62.2352
3141.91	41.4838
3141.31	8.29551
3140.71	49.7655
3140.1	53.9044
3139.5	45.6045
3138.9	53.8881
3138.29	24.8676
3137.69	37.2958
3137.09	16.5734
3136.48	70.4262
3135.88	37.2788
3135.28	49.6975
3134.67	37.2675
3134.07	37.2618
3133.47	49.6749
3132.86	49.6673
3132.26	62.0747
3131.65	45.5145
3131.05	41.3706
3130.45	53.7736
3129.84	57.9012
3129.24	49.6221
3128.63	41.3454
3128.03	41.3391
3127.42	20.6664
3126.82	33.0613
3126.21	33.0562
3125.61	28.9198
3125	41.3077
3124.4	61.9522
3123.79	53.6837
3123.19	49.5467
3122.58	33.0261
3121.97	41.2763
3121.37	49.5241
3120.76	37.1374
3120.16	41.2575
3119.55	49.5015
3118.94	70.1164
3118.34	20.6193
3117.73	24.7395
3117.13	37.1035
3116.52	61.8298
3115.91	65.9418
3115.31	45.3281
3114.7	65.9217
3114.09	65.9117
3113.48	45.3074
3112.88	57.6552
3112.27	45.2936
3111.66	57.6376
3111.06	65.8615
3110.45	37.0415
3109.84	65.8415
3109.23	45.2591
3108.63	57.5938
3108.02	49.3586
3107.41	86.3644
3106.8	57.5675
3106.19	37.002
3105.59	32.8857
3104.98	36.9908
3104.37	49.3135
3103.76	45.1972
3103.15	69.8395
3102.54	61.6137
3101.93	53.3904
3101.33	61.595
3100.72	69.797
3100.11	32.8406
3099.5	53.3579
3098.89	36.9345
3098.28	61.5481
3097.67	65.6413
3097.06	36.9176
3096.45	57.4186
3095.84	53.3092
3095.23	86.1017
3094.62	49.1935
3094.01	36.8895
3093.4	57.3749
3092.79	53.2685
3092.18	61.4543
3091.57	20.4817
3090.96	57.3399
3090.35	65.5213
3089.74	61.4169
3089.13	65.5013
3088.52	57.3049
3087.91	69.574
3087.3	53.1955
3086.69	65.4614
3086.08	69.5421
3085.46	94.0721
3084.85	44.9841
3084.24	85.8657
3083.63	73.5879
3083.02	77.6643
3082.41	98.0873
3081.79	57.2089
3081.18	102.143
3080.57	110.298
3079.96	65.3517
3079.35	98.0125
3078.73	81.6647
3078.12	44.9087
3077.51	69.3938
3076.9	102.034
3076.28	106.099
3075.67	77.5222
3075.06	44.8745
3074.45	85.6563
3073.83	40.7825
3073.22	65.242
3072.61	81.5401
3071.99	77.4513
3071.38	69.2879
3070.77	52.9768
3070.15	28.5216
3069.54	77.404
3068.93	40.7327
3068.31	40.7265
3067.7	44.7923
3067.08	65.1425
3066.47	28.4955
3065.86	56.9823
3065.24	81.3908
3064.63	81.3784
3064.01	77.2977
3063.4	52.8798
3062.78	81.3411
3062.17	32.5315
3061.55	44.7239
3060.94	60.9779
3060.32	60.9685
3059.71	52.8313
3059.09	89.3932
3058.48	81.2541
3057.86	60.9313
3057.25	60.922
3056.63	89.3386
3056.02	28.4216
3055.4	52.7748
3054.78	60.8847
3054.17	77.1089
3053.55	44.6352
3052.94	52.7426
3052.32	64.904
3051.7	73.0058
3051.09	60.8289
3050.47	36.4918
3049.85	72.9724
3049.24	64.8544
3048.62	60.7917
3048	101.304
3047.39	40.5154
3046.77	64.8147
3046.15	60.7545
3045.53	36.4471
3044.92	89.0794
3044.3	64.7751
3043.68	97.1478
3043.06	56.6609
3042.45	60.6988
3041.83	60.6895
3041.21	68.7709
3040.59	48.5367
3039.97	93.0145
3039.35	84.9133
3038.74	88.9431
3038.12	60.6338
3037.5	68.7078
3036.88	72.7382
3036.26	80.8079
3035.64	52.5171
3035.02	60.5874
3034.41	60.5781
3033.79	80.7584
3033.17	100.933
3032.55	92.8437
3031.93	68.6131
3031.31	56.4963
3030.69	44.3831
3030.07	72.6158
3029.45	72.6047
3028.83	60.4946
3028.21	60.4854
3027.59	60.4761
3026.97	72.5602
3026.35	96.7321
3025.73	76.5679
3025.11	28.2049
3024.49	52.3725
3023.87	76.5327
3023.25	76.521
3022.63	100.67
3022	68.4451
3021.38	92.588
3020.76	68.4242
3020.14	68.4137
3019.52	80.4743
3018.9	64.3696
3018.28	84.4721
3017.66	76.4155
3017.03	88.4675
3016.41	56.2889
3015.79	76.3803
3015.17	64.3104
3014.55	64.3005
3013.92	92.4178
3013.3	72.3159
3012.68	84.3556
3012.06	72.2937
3011.43	92.3612
3010.81	88.3319
3010.19	96.3473
3009.57	92.3187
3008.94	100.331
3008.32	108.341
3007.7	64.1921
3007.07	88.2506
3006.45	84.2263
3005.83	44.1118
3005.2	84.2005
3004.58	56.125
3003.96	72.1497
3003.33	52.1001
3002.71	88.1559
3002.08	84.1359
3001.46	72.1054
3000.84	84.11
3000.21	100.116
2999.59	56.0561
2998.96	76.0645
2998.34	100.069
2997.71	60.0325
2997.09	84.0326
2996.46	80.0187
2995.84	68.0055
2995.21	87.9936
2994.59	75.9828
2993.96	51.9802
2993.34	99.9466
2992.71	87.9395
2992.09	83.9294
2991.46	71.9284
2990.84	99.8852
2990.21	63.9167
2989.58	87.872
2988.96	99.8392
2988.33	91.8379
2987.71	83.8391
2987.08	83.8262
2986.45	63.8578
2985.83	83.8005
2985.2	63.8382
2984.57	67.8176
2983.95	95.7278
2983.32	67.7968
2982.69	91.711
2982.07	79.7364
2981.44	107.628
2980.81	75.7263
2980.18	71.7297
2979.56	131.484
2978.93	83.6589
2978.3	91.6123
2977.67	79.6506
2977.05	83.6203
2976.42	99.5326
2975.79	107.479
2975.16	91.5418
2974.53	83.5688
2973.91	99.4714
2973.28	79.5649
2972.65	103.418
2972.02	71.5863
2971.39	123.269
2970.76	79.5159
2970.13	83.4789
2969.5	127.186
2968.88	99.349
2968.25	107.28
2967.62	127.128
2966.99	99.3031
2966.36	111.202
2965.73	55.5926
2965.1	115.138
2964.47	111.151
2963.84	107.165
2963.21	107.148
2962.58	126.971
2961.95	103.148
2961.32	107.099
2960.69	150.709
2960.06	75.3427
2959.43	107.049
2958.8	126.854
2958.17	122.871
2957.53	114.926
2956.9	114.908
2956.27	114.89
2955.64	114.873
2955.01	114.855
2954.38	118.797
2953.75	110.86
2953.12	79.1738
2952.48	134.575
2951.85	122.681
2951.22	106.835
2950.59	130.556
2949.96	106.802
2949.33	138.426
2948.69	98.8605
2948.06	118.614
2947.43	94.8768
2946.8	98.8147
2946.16	75.0876
2945.53	114.59
2944.9	110.621
2944.26	86.9034
2943.63	106.638
2943	82.9276
2942.37	106.605
2941.73	102.641
2941.1	110.519
2940.47	102.609
2939.83	94.7014
2939.2	98.632
2938.56	114.395
2937.93	94.6575
2937.3	106.473
2936.66	102.514
2936.03	98.556
2935.39	94.5991
2934.76	102.467
2934.13	66.987
2933.49	94.5553
2932.86	78.7839
2932.22	82.7104
2931.59	114.201
2930.95	94.497
2930.32	90.5456
2929.68	102.34
2929.05	102.324
2928.41	102.308
2927.78	82.621
2927.14	78.6745
2926.5	90.4617
2925.87	102.245
2925.23	82.57
2924.6	133.664
2923.96	86.4752
2923.32	98.2521
2922.69	86.4485
2922.05	90.364
2921.42	117.848
2920.78	106.047
2920.14	82.468
2919.51	106.014
2918.87	78.5167
2918.23	109.906
2917.6	74.5678
2916.96	129.492
2916.32	125.549
2915.68	90.2244
2915.05	125.51
2914.41	117.648
2913.77	98.0246
2913.13	105.85
2912.5	121.513
2911.86	90.1408
2911.22	94.0454
2910.58	129.292
2909.94	148.859
2909.31	97.9185
2908.67	105.736
2908.03	97.8883
2907.39	82.2134
2906.75	93.9437
2906.11	101.757
2905.47	105.654
2904.83	133.025
2904.2	105.621
2903.56	97.7823
2902.92	86.0351
2902.28	105.572
2901.64	105.556
2901	101.631
2900.36	128.973
2899.72	113.322
2899.08	105.491
2898.44	128.913
2897.8	117.175
2897.16	132.778
2896.52	124.948
2895.88	132.737
2895.24	97.5858
2894.6	140.502
2893.96	128.773
2893.32	101.442
2892.67	128.733
2892.03	124.813
2891.39	105.295
2890.75	120.875
2890.11	116.958
2889.47	97.4499
2888.83	97.4348
2888.19	120.8
2887.54	109.093
2886.9	136.345
2886.26	105.164
2885.62	128.514
2884.98	124.601
2884.33	120.688
2883.69	101.207
2883.05	144.002
2882.41	112.849
2881.77	120.613
2881.12	124.485
2880.48	151.692
2879.84	120.557
2879.19	124.427
2878.55	112.744
2877.91	97.1784
2877.26	136.029
2876.62	104.92
2875.98	120.445
2875.33	116.542
2874.69	135.944
2874.05	112.622
2873.4	124.253
2872.76	97.0579
2872.11	100.925
2871.47	143.601
2870.83	124.176
2870.18	128.037
2869.54	124.138
2868.89	120.24
2868.25	120.221
2867.6	104.693
2866.96	96.9225
2866.31	104.66
2865.67	131.774
2865.02	108.503
2864.38	123.984
2863.73	104.595
2863.09	89.0857
2862.44	89.0719
2861.8	135.523
2861.15	116.145
2860.5	154.835
2859.86	116.109
2859.21	135.439
2858.57	119.942
2857.92	143.134
2857.27	131.508
2856.63	127.62
2855.98	112.134
2855.33	127.581
2854.69	123.695
2854.04	127.541
2853.39	123.657
2852.75	92.7283
2852.1	135.208
2851.45	158.362
2850.81	123.58
2850.16	131.284
2849.51	135.124
2848.86	119.662
2848.21	123.503
2847.57	123.484
2846.92	162.048
2846.27	150.45
2845.62	138.855
2844.97	104.125
2844.33	138.812
2843.68	88.6715
2843.03	111.786
2842.38	131.039
2841.73	104.044
2841.08	134.851
2840.43	123.273
2839.78	127.106
2839.14	103.979
2838.49	127.066
2837.84	100.097
2837.19	123.177
2836.54	150.099
2835.89	138.531
2835.24	146.205
2834.59	107.713
2833.94	103.85
2833.29	99.9882
2832.64	142.269
2831.99	126.869
2831.34	138.381
2830.69	107.613
2830.04	142.18
2829.39	115.263
2828.74	157.502
2828.08	138.273
2827.43	142.092
2826.78	122.871
2826.13	111.335
2825.48	122.833
2824.83	84.4344
2824.18	138.144
2823.53	122.775
2822.87	134.265
2822.22	149.586
2821.57	107.378
2820.92	103.527
2820.27	115.012
2819.61	145.66
2818.96	172.465
2818.31	111.127
2817.66	95.784
2817	107.261
2816.35	91.924
2815.7	164.671
2815.05	126.356
2814.39	141.65
2813.74	149.283
2813.09	179.878
2812.43	80.3583
2811.78	130.084
2811.13	133.889
2810.47	114.744
2809.82	103.253
2809.16	95.5901
2808.51	122.336
2807.86	129.962
2807.2	114.655
2806.55	118.458
2805.89	126.081
2805.24	156.621
2804.58	164.236
2803.93	106.927
2803.28	118.366
2802.62	125.982
2801.97	137.414
2801.31	114.494
2800.66	175.53
2800	152.611
2799.34	129.699
2798.69	133.493
2798.03	144.912
2797.38	133.451
2796.72	152.492
2796.07	129.598
2795.41	144.822
2794.75	95.2627
2794.1	133.347
2793.44	152.373
2792.79	152.349
2792.13	140.901
2791.47	121.841
2790.82	159.891
2790.16	106.578
2789.5	148.424
2788.84	117.96
2788.19	136.964
2787.53	125.531
2786.87	163.545
2786.22	121.689
2785.56	152.087
2784.9	155.865
2784.24	152.04
2783.59	121.613
2782.93	155.792
2782.27	178.563
2781.61	151.945
2780.95	155.719
2780.29	136.708
2779.64	132.89
2778.98	167.035
2778.32	125.257
2777.66	132.827
2777	163.162
2776.34	151.755
2775.68	151.731
2775.02	151.708
2774.36	163.06
2773.71	132.703
2773.05	121.309
2772.39	121.29
2771.73	166.748
2771.07	159.144
2770.41	147.753
2769.75	132.578
2769.09	147.707
2768.43	151.471
2767.77	147.661
2767.11	109.782
2766.45	136.26
2765.79	136.238
2765.12	121.082
2764.46	136.196
2763.8	170.218
2763.14	109.679
2762.48	170.165
2761.82	139.891
2761.16	132.309
2760.5	132.288
2759.83	154.942
2759.17	147.361
2758.51	128.448
2757.85	154.869
2757.19	154.845
2756.53	154.821
2755.86	128.368
2755.2	147.223
2754.54	135.876
2753.88	154.724
2753.21	154.7
2752.55	158.448
2751.89	154.651
2751.23	116.913
2750.56	184.769
2749.9	147.038
2749.24	150.785
2748.57	128.147
2747.91	150.738
2747.25	192.16
2746.58	180.828
2745.92	180.8
2745.25	150.643
2744.59	161.916
2743.93	192.01
2743.26	139.279
2742.6	176.895
2741.93	176.867
2741.27	191.889
2740.61	173.05
2739.94	150.454
2739.28	195.56
2738.61	176.728
2737.95	142.864
2737.28	127.806
2736.62	165.37
2735.95	120.25
2735.29	169.076
2734.62	157.779
2733.95	161.51
2733.29	153.974
2732.62	165.215
2731.96	172.697
2731.29	142.641
2730.62	180.149
2729.96	176.369
2729.29	157.581
2728.63	172.562
2727.96	161.283
2727.29	172.508
2726.63	146.234
2725.96	194.948
2725.29	161.181
2724.62	176.147
2723.96	183.614
2723.29	161.105
2722.62	131.112
2721.96	172.291
2721.29	172.264
2720.62	146.027
2719.95	153.492
2719.28	119.78
2718.62	179.641
2717.95	123.484
2717.28	130.947
2716.61	172.075
2715.94	142.127
2715.27	157.063
2714.61	160.777
2713.94	171.967
2713.27	156.989
2712.6	130.803
2711.93	179.359
2711.26	145.706
2710.59	156.89
2709.92	171.805
2709.25	160.575
2708.58	205.354
2707.91	153.058
2707.24	201.557
2706.57	194.062
2705.9	171.643
2705.23	149.231
2704.56	156.668
2703.89	179.021
2703.22	149.161
2702.55	160.323
2701.88	137.931
2701.21	167.727
2700.54	182.607
2699.87	160.222
2699.2	167.648
2698.53	156.447
2697.86	145.249
2697.19	171.293
2696.51	119.141
2695.84	148.903
2695.17	186.1
2694.5	182.349
2693.83	178.6
2693.15	171.131
2692.48	163.665
2691.81	182.234
2691.14	182.206
2690.47	178.459
2689.79	185.866
2689.12	208.137
2688.45	178.375
2687.77	189.493
2687.1	185.749
2686.43	182.005
2685.76	196.832
2685.08	174.521
2684.41	167.069
2683.74	174.466
2683.06	170.727
2682.39	196.677
2681.71	189.225
2681.04	178.066
2680.37	148.365
2679.69	174.302
2679.02	174.274
2678.34	174.247
2677.67	155.685
2676.99	189.017
2676.32	181.576
2675.65	185.252
2674.97	185.223
2674.3	196.305
2673.62	185.164
2672.95	174.027
2672.27	188.808
2671.59	170.271
2670.92	170.244
2670.24	188.719
2669.57	203.488
2668.89	184.96
2668.22	188.63
2667.54	195.996
2666.86	184.873
2666.19	181.147
2665.51	155.244
2664.83	158.915
2664.16	166.281
2663.48	184.727
2662.8	210.556
2662.13	214.216
2661.45	206.797
2660.77	221.533
2660.1	228.881
2659.42	188.243
2658.74	210.357
2658.06	177.114
2657.39	147.572
2656.71	151.238
2656.03	180.719
2655.35	199.128
2654.68	206.471
2654	191.692
2653.32	195.348
2652.64	213.743
2651.96	184.232
2651.28	195.255
2650.6	187.858
2649.93	232.023
2649.25	173.069
2648.57	161.997
2647.89	209.826
2647.21	161.945
2646.53	187.68
2645.85	165.574
2645.17	176.584
2644.49	158.165
2643.81	176.528
2643.13	202.24
2642.45	180.149
2641.77	191.148
2641.09	227.872
2640.41	180.064
2639.73	198.406
2639.05	202.048
2638.37	205.69
2637.69	183.622
2637.01	205.625
2636.33	201.921
2635.65	179.865
2634.96	212.867
2634.28	146.782
2633.6	201.793
2632.92	209.098
2632.24	187.058
2631.56	194.363
2630.88	194.332
2630.19	208.966
2629.51	205.267
2628.83	219.894
2628.15	219.86
2627.46	223.489
2626.78	208.801
2626.1	230.743
2625.42	212.397
2624.73	201.379
2624.05	223.312
2623.37	193.994
2622.69	172.006
2622	208.57
2621.32	204.878
2620.64	215.819
2619.95	230.415
2619.27	193.81
2618.58	190.123
2617.9	233.961
2617.22	219.304
2616.53	244.85
2615.85	211.927
2615.16	197.28
2614.48	226.47
2613.79	222.782
2613.11	251.96
2612.43	215.41
2611.74	193.473
2611.06	222.641
2610.37	218.957
2609.69	233.517
2609	233.48
2608.31	222.5
2607.63	207.877
2606.94	211.491
2606.26	240.624
2605.57	226.005
2604.89	218.68
2604.2	211.357
2603.51	160.314
2602.83	182.146
2602.14	193.045
2601.45	185.73
2600.77	251.242
2600.08	182.031
2599.39	214.762
2598.71	225.647
2598.02	203.778
2597.33	185.554
2596.65	243.728
2595.96	240.052
2595.27	178.192
2594.58	221.796
2593.9	214.49
2593.21	207.187
2592.52	203.519
2591.83	232.557
2591.14	236.153
2590.46	192.525
2589.77	254.238
2589.08	214.252
2588.39	196.064
2587.7	225.075
2587.01	232.299
2586.32	225.004
2585.64	253.996
2584.95	221.304
2584.26	210.387
2583.57	192.22
2582.88	264.713
2582.19	184.907
2581.5	232.004
2580.81	221.094
2580.12	217.435
2579.43	206.53
2578.74	213.743
2578.05	249.931
2577.36	220.918
2576.67	235.367
2575.98	209.987
2575.29	238.912
2574.6	235.255
2573.91	235.218
2573.22	256.889
2572.52	217.055
2571.83	238.723
2571.14	213.37
2570.45	213.336
2569.76	253.07
2569.07	213.268
2568.38	238.533
2567.68	216.814
2566.99	260.135
2566.3	223.97
2565.61	223.934
2564.92	213.065
2564.22	209.42
2563.53	220.217
2562.84	216.573
2562.14	220.147
2561.45	241.763
2560.76	205.646
2560.07	212.828
2559.37	263.287
2558.68	245.215
2557.99	255.993
2557.29	209.088
2556.6	270.329
2555.91	201.813
2555.21	266.64
2554.52	259.392
2553.82	255.748
2553.13	201.685
2552.44	219.658
2551.74	230.424
2551.05	212.388
2550.35	244.747
2549.66	237.511
2548.96	212.287
2548.27	233.838
2547.57	230.204
2546.88	258.938
2546.18	219.343
2545.49	226.499
2544.79	255.22
2544.1	265.961
2543.4	212.017
2542.7	201.204
2542.01	183.21
2541.31	240.65
2540.62	237.02
2539.92	236.982
2539.22	244.125
2538.53	226.138
2537.83	236.869
2537.13	240.42
2536.44	240.382
2535.74	215.233
2535.04	265.411
2534.35	265.369
2533.65	204.373
2532.95	222.265
2532.25	243.736
2531.56	215.027
2530.86	240.075
2530.16	257.95
2529.46	239.999
2528.76	265.031
2528.07	254.246
2527.37	204.08
2526.67	218.367
2525.97	229.07
2525.27	225.455
2524.57	268.356
2523.88	239.693
2523.18	257.539
2522.48	243.193
2521.78	221.699
2521.08	268.142
2520.38	228.778
2519.68	239.464
2518.98	253.719
2518.28	242.96
2517.58	278.645
2516.88	285.744
2516.18	235.701
2515.48	199.957
2514.78	274.897
2514.08	267.714
2513.38	231.982
2512.68	296.176
2511.98	260.451
2511.28	263.976
2510.58	267.501
2509.88	249.628
2509.17	235.326
2508.47	238.853
2507.77	295.845
2507.07	224.521
2506.37	238.739
2505.67	242.263
2504.97	260.035
2504.26	210.132
2503.56	284.879
2502.86	231.427
2502.16	245.63
2501.45	270.505
2500.75	217.081
2500.05	245.512
2499.35	252.588
2498.64	281.004
2497.94	245.394
2497.24	295.137
2496.53	277.314
2495.83	263.05
2495.13	266.562
2494.42	284.288
2493.72	252.265
2493.02	252.225
2492.31	277.048
2491.61	277.003
2490.9	269.858
2490.2	244.963
2489.5	252.023
2488.79	280.375
2488.09	255.491
2487.38	237.711
2486.68	241.22
2485.97	234.088
2485.27	251.782
2484.56	276.561
2483.86	287.152
2483.15	269.383
2482.45	279.972
2481.74	255.124
2481.04	244.454
2480.33	265.669
2479.62	258.543
2478.92	240.796
2478.21	279.703
2477.51	240.719
2476.8	258.377
2476.09	268.953
2475.39	279.524
2474.68	258.253
2473.97	282.972
2473.27	265.244
2472.56	247.521
2471.85	243.946
2471.14	261.582
2470.44	275.677
2469.73	240.295
2469.02	293.255
2468.31	300.273
2467.61	268.436
2466.9	261.33
2466.19	282.474
2465.48	275.368
2464.77	278.854
2464.07	247.046
2463.36	264.65
2462.65	285.776
2461.94	250.455
2461.23	275.103
2460.52	285.639
2459.81	292.644
2459.1	264.395
2458.4	260.828
2457.69	288.98
2456.98	246.65
2456.27	295.933
2455.56	285.318
2454.85	257.097
2454.14	235.928
2453.43	257.015
2452.72	313.297
2452.01	295.648
2451.3	239.296
2450.59	256.85
2449.88	302.542
2449.16	267.32
2448.45	277.827
2447.74	274.267
2447.03	288.285
2446.32	267.148
2445.61	281.164
2444.9	249.493
2444.19	305.667
2443.47	274.003
2442.76	298.545
2442.05	259.868
2441.34	273.871
2440.63	287.869
2439.91	270.273
2439.2	284.267
2438.49	259.659
2437.78	294.701
2437.06	259.576
2436.35	256.027
2435.64	277.026
2434.93	259.451
2434.21	252.398
2433.5	315.447
2432.79	255.822
2432.07	308.338
2431.36	273.256
2430.64	290.725
2429.93	297.683
2429.22	255.616
2428.5	280.082
2427.79	336.045
2427.07	293.992
2426.36	279.947
2425.65	248.413
2424.93	297.348
2424.22	269.319
2423.5	311.241
2422.79	227.274
2422.07	258.702
2421.36	258.66
2420.64	290.072
2419.92	304.003
2419.21	272.51
2418.49	248.014
2417.78	310.841
2417.06	296.823
2416.35	296.775
2415.63	286.255
2414.91	254.796
2414.2	293.142
2413.48	324.498
2412.76	265.139
2412.05	299.977
2411.33	299.929
2410.61	306.855
2409.9	296.346
2409.18	324.185
2408.46	299.736
2407.74	264.84
2407.03	310.092
2406.31	264.755
2405.59	261.229
2404.87	282.082
2404.16	299.447
2403.44	320.287
2402.72	295.869
2402	295.822
2401.28	313.172
2400.56	316.601
2399.85	274.807
2399.13	306.065
2398.41	281.674
2397.69	295.536
2396.97	288.536
2396.25	281.538
2395.53	291.918
2394.81	288.396
2394.09	277.928
2393.37	288.303
2392.65	312.568
2391.93	309.045
2391.21	340.242
2390.49	312.417
2389.77	301.954
2389.05	281.084
2388.33	305.326
2387.61	301.808
2386.89	312.165
2386.17	305.179
2385.45	298.195
2384.73	298.147
2384	298.099
2383.28	284.188
2382.56	298.003
2381.84	322.207
2381.12	284.05
2380.4	266.687
2379.67	308.199
2378.95	280.451
2378.23	287.329
2377.51	328.817
2376.79	294.158
2376.06	314.871
2375.34	307.901
2374.62	300.933
2373.9	283.592
2373.17	314.668
2372.45	352.648
2371.73	279.998
2371	311.059
2370.28	300.642
2369.56	310.959
2368.83	355.818
2368.11	335.036
2367.38	355.703
2366.66	331.475
2365.94	283.089
2365.21	341.723
2364.49	293.352
2363.76	324.36
2363.04	262.206
2362.31	331.154
2361.59	348.346
2360.86	341.392
2360.14	330.994
2359.41	313.704
2358.69	317.1
2357.96	299.818
2357.24	327.334
2356.51	306.611
2355.79	330.673
2355.06	309.956
2354.33	330.566
2353.61	323.627
2352.88	282.267
2352.15	302.872
2351.43	320.029
2350.7	378.468
2349.98	271.765
2349.25	330.192
2348.52	316.383
2347.79	326.647
2347.07	285.34
2346.34	343.728
2345.61	333.362
2344.88	278.33
2344.16	326.383
2343.43	312.59
2342.7	285.064
2341.97	339.961
2341.25	315.872
2340.52	322.686
2339.79	295.176
2339.06	356.899
2338.33	305.374
2337.6	295.033
2336.87	301.845
2336.14	325.803
2335.42	315.463
2334.69	315.412
2333.96	311.933
2333.23	311.883
2332.5	332.393
2331.77	322.06
2331.04	322.008
2330.31	363.057
2329.58	304.781
2328.85	318.428
2328.12	304.683
2327.39	342.285
2326.66	331.962
2325.93	297.691
2325.2	307.906
2324.47	338.642
2323.73	335.167
2323	352.211
2322.27	389.762
2321.54	331.586
2320.81	280.264
2320.08	372.486
2319.35	317.758
2318.61	304.041
2317.88	351.811
2317.15	338.094
2316.42	334.624
2315.69	310.672
2314.95	314.035
2314.22	351.526
2313.49	348.057
2312.76	337.765
2312.02	327.477
2311.29	341.066
2310.56	358.061
2309.82	310.27
2309.09	347.718
2308.36	320.394
2307.62	333.974
2306.89	371.401
2306.16	388.374
2305.42	320.186
2304.69	309.917
2303.95	367.754
2303.22	303.008
2302.48	364.231
2301.75	343.751
2301.02	391.336
2300.28	319.823
2299.55	363.995
2298.81	340.127
2298.08	350.274
2297.34	309.415
2296.6	316.164
2295.87	333.108
2295.13	384.031
2294.4	326.204
2293.66	343.138
2292.93	363.463
2292.19	360.008
2291.45	363.345
2290.72	404.028
2289.98	349.649
2289.24	393.715
2288.51	312.206
2287.77	346.085
2287.03	349.421
2286.3	393.459
2285.56	376.439
2284.82	311.952
2284.08	359.365
2283.35	308.461
2282.61	338.913
2281.87	393.076
2281.13	355.743
2280.4	318.423
2279.66	342.08
2278.92	372.502
2278.18	355.512
2277.44	399.463
2276.7	399.398
2275.97	341.802
2275.23	311.294
2274.49	345.074
2273.75	348.4
2273.01	334.816
2272.27	388.864
2271.53	365.135
2270.79	371.836
2270.05	327.838
2269.31	354.819
2268.57	358.14
2267.83	439.157
2267.09	405.309
2266.35	334.326
2265.61	374.789
2264.87	361.224
2264.13	347.664
2263.39	374.606
2262.65	374.545
2261.91	360.989
2261.17	364.304
2260.42	357.499
2259.68	367.557
2258.94	364.126
2258.2	374.179
2257.46	367.378
2256.72	353.838
2255.97	400.951
2255.23	367.198
2254.49	346.929
2253.75	350.24
2253	383.855
2252.26	363.592
2251.52	380.363
2250.78	383.667
2250.03	376.874
2249.29	383.542
2248.55	373.388
2247.8	400.233
2247.06	410.256
2246.32	373.205
2245.57	295.826
2244.83	363
2244.09	373.023
2243.34	349.442
2242.6	359.463
2241.85	403.071
2241.11	382.855
2240.36	366.003
2239.62	325.656
2238.88	382.667
2238.13	328.906
2237.39	399.321
2236.64	375.77
2235.89	372.354
2235.15	402.479
2234.4	362.172
2233.66	409.054
2232.91	442.511
2232.17	365.347
2231.42	355.234
2230.67	398.735
2229.93	391.969
2229.18	375.157
2228.44	391.841
2227.69	354.944
2226.94	401.757
2226.2	384.955
2225.45	408.32
2224.7	424.985
2223.95	378.075
2223.21	401.43
2222.46	377.951
2221.71	394.61
2220.96	397.889
2220.22	387.795
2219.47	391.074
2218.72	391.01
2217.97	360.874
2217.22	417.61
2216.48	367.437
2215.73	380.736
2214.98	414.066
2214.23	390.627
2213.48	417.269
2212.73	397.175
2211.98	420.469
2211.23	393.709
2210.48	406.988
2209.73	400.251
2208.98	420.195
2208.23	390.117
2207.48	443.394
2206.73	409.989
2205.98	403.256
2205.23	426.515
2204.48	419.782
2203.73	373.079
2202.98	376.348
2202.23	376.287
2201.48	412.849
2200.73	412.782
2199.98	386.087
2199.23	389.352
2198.48	412.579
2197.72	399.205
2196.97	412.444
2196.22	399.074
2195.47	389.033
2194.72	378.996
2193.97	382.258
2193.21	418.753
2192.46	418.685
2191.71	435.228
2190.96	478.34
2190.2	385.267
2189.45	401.807
2188.7	338.658
2187.94	424.913
2187.19	424.843
2186.44	381.633
2185.68	418.068
2184.93	424.635
2184.18	411.298
2183.42	437.761
2182.67	414.479
2181.91	427.672
2181.16	371.251
2180.41	407.647
2179.65	434.089
2178.9	437.331
2178.14	440.572
2177.39	410.691
2176.63	410.624
2175.88	443.666
2175.12	423.731
2174.37	453.45
2173.61	433.52
2172.86	446.684
2172.1	439.994
2171.34	390.307
2170.59	420.007
2169.83	429.858
2169.08	433.094
2168.32	393.357
2167.56	423.037
2166.81	446.099
2166.05	455.937
2165.29	379.885
2164.54	426.062
2163.78	432.597
2163.02	373.095
2162.27	425.852
2161.51	386.175
2160.75	429.013
2159.99	395.947
2159.23	432.171
2158.48	399.115
2157.72	438.625
2156.96	398.984
2156.2	458.262
2155.44	438.409
2154.69	418.563
2153.93	392.132
2153.17	451.372
2152.41	444.71
2151.65	451.224
2150.89	451.15
2150.13	418.15
2149.37	408.206
2148.61	378.516
2147.85	447.562
2147.09	460.65
2146.33	401.358
2145.57	444.053
2144.81	434.113
2144.05	470.212
2143.29	387.944
2142.53	424.038
2141.77	440.401
2141.01	437.043
2140.25	433.685
2139.49	417.189
2138.73	400.699
2137.97	420.336
2137.2	430.117
2136.44	420.198
2135.68	370.895
2134.92	436.468
2134.16	423.272
2133.4	433.044
2132.63	469.054
2131.87	449.3
2131.11	422.993
2130.35	449.152
2129.58	419.576
2128.82	455.559
2128.06	478.422
2127.29	465.238
2126.53	478.264
2125.77	451.984
2125	415.888
2124.24	442.013
2123.48	451.761
2122.71	425.502
2121.95	402.524
2121.19	431.906
2120.42	484.178
2119.66	441.576
2118.89	444.774
2118.13	441.431
2117.36	451.166
2116.6	447.823
2115.83	473.895
2115.07	424.802
2114.3	477.006
2113.54	460.595
2112.77	447.454
2112.01	431.053
2111.24	450.572
2110.48	427.646
2109.71	463.479
2108.94	427.505
2108.18	453.538
2107.41	443.676
2106.64	489.268
2105.88	476.142
2105.11	443.457
2104.34	528.148
2103.58	440.051
2102.81	439.979
2102.04	446.423
2101.28	465.898
2100.51	443.018
2099.74	420.147
2098.97	400.539
2098.21	472.102
2097.44	413.428
2096.67	478.456
2095.9	484.886
2095.13	449.015
2094.36	432.675
2093.6	455.372
2092.83	455.297
2092.06	419.454
2091.29	448.644
2090.52	494.078
2089.75	432.247
2088.98	458.171
2088.21	487.335
2087.44	480.758
2086.67	431.961
2085.9	428.643
2085.13	461.039
2084.36	441.486
2083.59	480.361
2082.82	454.321
2082.05	470.469
2081.28	463.903
2080.51	447.609
2079.74	428.077
2078.97	476.643
2078.2	437.661
2077.43	440.83
2076.65	482.889
2075.88	479.569
2075.11	463.29
2074.34	440.539
2073.57	518.196
2072.8	476.014
2072.02	488.885
2071.25	472.619
2070.48	501.67
2069.71	488.643
2068.93	485.327
2068.16	491.717
2067.39	501.339
2066.61	436.578
2065.84	430.039
2065.07	484.926
2064.29	510.704
2063.52	487.997
2062.75	520.229
2061.97	494.297
2061.2	520.057
2060.43	426.311
2059.65	487.594
2058.88	471.37
2058.1	471.292
2057.33	464.759
2056.55	432.413
2055.78	490.417
2055	474.206
2054.23	477.353
2053.45	486.949
2052.68	428.831
2051.9	506.13
2051.13	493.153
2050.35	525.299
2049.57	470.435
2048.8	480.022
2048.02	489.606
2047.25	495.966
2046.47	502.324
2045.69	492.582
2044.92	466.749
2044.14	447.361
2043.36	489.12
2042.59	527.647
2041.81	453.573
2041.03	533.905
2040.25	456.638
2039.48	546.589
2038.7	495.063
2037.92	514.266
2037.14	514.181
2036.37	475.538
2035.59	520.436
2034.81	456.109
2034.03	459.245
2033.25	449.536
2032.47	532.932
2031.69	459.016
2030.92	535.965
2030.14	494.161
2029.36	484.454
2028.58	522.867
2027.8	461.843
2027.02	471.387
2026.24	480.927
2025.46	512.904
2024.68	525.639
2023.9	487.097
2023.12	490.22
2022.34	522.174
2021.56	470.84
2020.78	512.393
2020	518.712
2019.21	499.418
2018.43	572.955
2017.65	518.454
2016.87	486.37
2016.09	511.883
2015.31	562.978
2014.53	502.119
2013.74	518.024
2012.96	508.346
2012.18	540.228
2011.4	453.844
2010.62	508.093
2009.83	520.789
2009.05	488.758
2008.27	523.81
2007.49	517.336
2006.7	530.022
2005.92	494.818
2005.14	517.078
2004.35	449.975
2003.57	491.38
2002.79	500.869
2002	500.786
2001.22	513.46
2000.43	522.94
1999.65	561.111
1998.87	541.892
1998.08	532.241
1997.3	535.339
1996.51	522.506
1995.73	484.193
1994.94	512.777
1994.16	477.663
1993.37	547.63
1992.59	506.155
1991.8	483.791
1991.02	528.263
1990.23	515.448
1989.44	531.268
1988.66	566.168
1987.87	508.83
1987.09	556.44
1986.3	508.661
1985.51	518.112
1984.73	514.848
1983.94	556.07
1983.15	489.26
1982.37	508.238
1981.58	520.857
1980.79	517.595
1980	552.433
1979.22	526.946
1978.43	463.381
1977.64	558.504
1976.85	520.337
1976.06	542.456
1975.28	539.194
1974.49	542.276
1973.7	561.209
1972.91	567.456
1972.12	548.344
1971.33	554.591
1970.54	503.801
1969.76	532.23
1968.97	522.639
1968.18	557.388
1967.39	607.959
1966.6	563.534
1965.81	563.441
1965.02	490.555
1964.23	528.445
1963.44	528.357
1962.65	544.085
1961.86	531.344
1961.07	540.742
1960.28	565.945
1959.48	505.788
1958.69	534.15
1957.9	505.62
1957.11	552.929
1956.32	568.633
1955.53	555.904
1954.74	565.285
1953.94	546.246
1953.15	539.841
1952.36	508.186
1951.57	577.532
1950.78	542.726
1949.98	574.184
1949.19	536.236
1948.4	558.223
1947.61	517.138
1946.81	517.051
1946.02	583.162
1945.23	554.699
1944.43	567.211
1943.64	513.556
1942.85	485.119
1942.05	503.935
1941.26	563.684
1940.46	478.579
1939.67	528.867
1938.88	579.139
1938.08	563.307
1937.29	538.042
1936.49	556.827
1935.7	559.88
1934.9	556.641
1934.11	569.126
1933.31	521.873
1932.52	537.502
1931.72	565.698
1930.93	575.03
1930.13	552.942
1929.33	546.567
1928.54	584.163
1927.74	558.945
1926.95	593.387
1926.15	605.844
1925.35	549.249
1924.56	536.605
1923.76	520.828
1922.96	564.658
1922.17	536.336
1921.37	608.373
1920.57	580.052
1919.77	595.63
1918.98	595.53
1918.18	532.754
1917.38	551.464
1916.58	563.903
1915.78	604.529
1914.99	566.846
1914.19	554.227
1913.39	604.225
1912.59	647.947
1911.79	550.819
1910.99	522.565
1910.19	591.306
1909.39	606.848
1908.59	566.088
1907.8	584.755
1907	587.784
1906.2	575.182
1905.4	521.953
1904.6	531.24
1903.8	540.524
1903	581.044
1902.2	552.837
1901.39	549.621
1900.59	602.609
1899.79	546.315
1898.99	633.62
1898.19	561.736
1897.39	552.281
1896.59	552.189
1895.79	614.48
1894.99	555.122
1894.18	539.439
1893.38	595.465
1892.58	576.663
1891.78	601.499
1890.98	620.095
1890.17	610.644
1889.37	607.427
1888.57	563.722
1887.76	572.969
1886.96	572.873
1886.16	569.664
1885.36	625.592
1884.55	575.697
1883.75	612.937
1882.94	619.056
1882.14	556.746
1881.34	547.323
1880.53	562.777
1879.73	584.444
1878.92	606.104
1878.12	581.14
1877.32	581.043
1876.51	593.372
1875.71	618.122
1874.9	624.229
1874.1	562.022
1873.29	627.124
1872.49	577.354
1871.68	580.361
1870.87	660.941
1870.07	589.473
1869.26	567.66
1868.46	589.275
1867.65	623.287
1866.84	595.278
1866.04	564.179
1865.23	607.476
1864.42	613.571
1863.62	579.387
1862.81	619.561
1862	622.554
1861.2	631.74
1860.39	644.019
1859.58	591.283
1858.77	591.184
1857.96	600.368
1857.16	646.68
1856.35	590.886
1855.54	603.159
1854.73	624.706
1853.92	584.404
1853.12	630.679
1852.31	633.664
1851.5	630.467
1850.69	608.731
1849.88	596.27
1849.07	608.526
1848.26	592.982
1847.45	642.289
1846.64	620.569
1845.83	617.377
1845.02	626.533
1844.21	632.599
1843.4	620.151
1842.59	641.641
1841.78	632.28
1840.97	647.592
1840.16	588.901
1839.35	588.802
1838.54	644.183
1837.72	647.156
1836.91	622.398
1836.1	566.841
1835.29	606.788
1834.48	612.845
1833.67	625.058
1832.85	643.424
1832.04	627.926
1831.23	637.053
1830.42	618.483
1829.6	569.155
1828.79	645.959
1827.98	624.322
1827.17	596.542
1826.35	636.409
1825.54	624.006
1824.73	651.562
1823.91	620.723
1823.1	685.138
1822.29	657.376
1821.47	601.981
1820.66	666.367
1819.84	623.27
1819.03	623.165
1818.21	598.506
1817.4	622.955
1816.58	699.556
1815.77	564.459
1814.95	641.043
1814.14	647.069
1813.32	643.893
1812.51	625.391
1811.69	680.458
1810.88	597.599
1810.06	631.203
1809.25	631.096
1808.43	673.873
1807.61	621.696
1806.8	646.087
1805.98	655.163
1805.16	630.564
1804.35	645.76
1803.53	611.992
1802.71	666.958
1801.89	648.492
1801.08	645.324
1800.26	636.042
1799.44	635.934
1798.62	638.884
1797.81	599.043
1796.99	650.891
1796.17	611.062
1795.35	669
1794.53	647.507
1793.71	665.721
1792.9	647.289
1792.08	634.968
1791.26	674.54
1790.44	683.581
1789.62	646.851
1788.8	652.843
1787.98	655.783
1787.16	658.722
1786.34	652.513
1785.52	670.694
1784.7	609.619
1783.88	710.086
1783.06	673.401
1782.24	594.077
1781.42	667.081
1780.6	660.877
1779.78	642.496
1778.95	605.853
1778.13	642.278
1777.31	690.865
1776.49	696.834
1775.67	681.504
1774.85	657.054
1774.02	693.439
1773.2	675.077
1772.38	687.124
1771.56	674.848
1770.74	647.38
1769.91	653.348
1769.09	662.353
1768.27	701.732
1767.44	628.718
1766.62	695.421
1765.8	704.412
1764.97	704.293
1764.15	692.032
1763.33	725.297
1762.5	688.764
1761.68	706.85
1760.85	682.464
1760.03	664.153
1759.21	727.716
1758.38	642.707
1757.56	682.002
1756.73	694.009
1755.91	748.433
1755.08	742.247
1754.26	660.337
1753.43	729.882
1752.6	760.038
1751.78	768.992
1750.95	681.078
1750.13	735.44
1749.3	789.783
1748.47	750.318
1747.65	777.416
1746.82	756.113
1745.99	771.104
1745.17	801.208
1744.34	795.026
1743.51	864.407
1742.69	843.107
1741.86	833.9
1741.03	900.217
1740.2	975.573
1739.38	936.15
1738.55	993.358
1737.72	984.133
1736.89	1059.42
1736.06	1026.05
1735.23	1080.19
1734.4	1076.99
1733.58	1125.06
1732.75	1085.67
1731.92	1178.96
1731.09	1223.98
1730.26	1211.71
1729.43	1136.16
1728.6	1178.15
1727.77	1223.15
1726.94	1180.77
1726.11	1273.93
1725.28	1300.81
1724.45	1228.34
1723.62	1225.12
1722.79	1203.84
1721.96	1296.92
1721.13	1239.54
1720.3	1170.14
1719.46	1154.9
1718.63	1193.8
1717.8	1217.65
1716.97	1169.34
1716.14	1145.1
1715.31	1024.71
1714.47	976.461
1713.64	1066.41
1712.81	955.105
1711.98	951.94
1711.14	966.79
1710.31	954.618
1709.48	888.424
1708.65	831.256
1707.81	789.108
1706.98	833.973
1706.15	806.836
1705.31	818.695
1704.48	767.583
1703.64	782.442
1702.81	710.372
1701.98	779.179
1701.14	800.021
1700.31	784.906
1699.47	754.819
1698.64	760.68
1697.8	751.568
1696.97	769.403
1696.13	832.13
1695.3	748.191
1694.46	798.932
1693.63	780.846
1692.79	729.862
1691.95	729.738
1691.12	780.447
1690.28	744.438
1689.45	786.16
1688.61	750.162
1687.77	773.939
1686.94	797.709
1686.1	752.766
1685.26	791.464
1684.42	770.426
1683.59	722.525
1682.75	749.268
1681.91	787.94
1681.07	740.06
1680.24	728
1679.4	835.267
1678.56	814.247
1677.72	769.377
1676.88	822.914
1676.04	798.925
1675.21	789.847
1674.37	777.792
1673.53	768.721
1672.69	807.318
1671.85	795.266
1671.01	780.24
1670.17	774.152
1669.33	794.859
1668.49	830.441
1667.65	788.636
1666.81	794.452
1665.97	800.267
1665.13	782.284
1664.29	758.358
1663.45	770.123
1662.61	853.234
1661.77	832.281
1660.92	814.308
1660.08	814.169
1659.24	799.175
1658.4	858.447
1657.56	852.361
1656.72	798.766
1655.87	789.723
1655.03	822.24
1654.19	848.811
1653.35	792.286
1652.5	863.355
1651.66	836.511
1650.82	836.368
1649.98	851.052
1649.13	815.328
1648.29	850.761
1647.45	838.76
1646.6	897.883
1645.76	758.478
1644.91	876.84
1644.07	900.385
1643.23	852.85
1642.38	811.254
1641.54	896.963
1640.69	905.689
1639.85	884.819
1639	914.256
1638.16	875.642
1637.31	884.366
1636.47	890.129
1635.62	957.982
1634.78	937.124
1633.93	904.451
1633.08	919.073
1632.24	942.553
1631.39	977.842
1630.55	936.323
1629.7	933.21
1628.85	1024.58
1628.01	912.225
1627.16	979.958
1626.31	947.327
1625.46	935.363
1624.62	970.605
1623.77	1064.83
1622.92	1070.54
1622.07	1079.21
1621.23	1146.83
1620.38	1108.31
1619.53	1137.59
1618.68	1166.87
1617.83	1331.65
1616.98	1431.57
1616.13	1552.08
1615.29	1701.99
1614.44	1845.96
1613.59	1948.67
1612.74	2016.03
1611.89	2080.42
1611.04	1974.15
1610.19	2023.81
1609.34	1976.41
1608.49	1737.88
1607.64	1708.19
1606.79	1557.97
1605.94	1498.93
1605.09	1481.04
1604.24	1316.25
1603.38	1310.15
1602.53	1213
1601.68	1300.89
1600.83	1203.78
1599.98	1177.15
1599.13	1168.15
1598.27	1123.93
1597.42	1147.21
1596.57	1176.35
1595.72	1070.56
1594.87	1134.89
1594.01	1052.6
1593.16	1108.11
1592.31	1081.55
1591.45	1031.54
1590.6	1048.94
1589.75	1083.92
1588.89	1045.66
1588.04	1054.26
1587.19	1004.3
1586.33	1042.19
1585.48	1012.74
1584.62	1100.36
1583.77	1024.1
1582.92	1021
1582.06	1038.37
1581.21	1014.8
1580.35	1029.24
1579.5	1029.07
1578.64	1075.66
1577.78	1043.32
1576.93	1057.75
1576.07	1101.4
1575.22	1069.08
1574.36	1025.08
1573.51	1004.47
1572.65	1071.44
1571.79	1012.88
1570.94	986.44
1570.08	1032.96
1569.22	1021.11
1568.37	930.51
1567.51	991.595
1566.65	988.509
1565.79	1026.24
1564.94	991.084
1564.08	1046.29
1563.22	1008.23
1562.36	1013.88
1561.5	993.316
1560.65	993.145
1559.79	940.559
1558.93	978.246
1558.07	1004.28
1557.21	1012.83
1556.35	925.362
1555.49	904.837
1554.63	980.314
1553.77	985.962
1552.91	997.424
1552.05	997.252
1551.19	933.128
1550.33	1017.25
1549.47	941.525
1548.61	979.133
1547.75	944.106
1546.89	967.179
1546.03	1013.48
1545.17	926.197
1544.31	920.232
1543.45	943.293
1542.58	992.464
1541.72	995.194
1540.86	1026.93
1540	942.643
1539.14	977.28
1538.28	945.218
1537.41	974.045
1536.55	953.588
1535.69	956.321
1534.82	924.285
1533.96	950.198
1533.1	892.105
1532.24	981.726
1531.37	946.811
1530.51	935.068
1529.64	1050.69
1528.78	1012.88
1527.92	995.347
1527.05	925.745
1526.19	937.155
1525.32	951.453
1524.46	919.483
1523.59	971.362
1522.73	991.427
1521.86	1017.27
1521	962.191
1520.13	1022.69
1519.27	987.855
1518.4	987.685
1517.54	947.09
1516.67	944.039
1515.8	943.876
1514.94	946.599
1514.07	963.749
1513.21	1003.97
1512.34	983.608
1511.47	934.41
1510.6	960.2
1509.74	913.907
1508.87	968.516
1508	1014.46
1507.14	979.708
1506.27	962.252
1505.4	941.923
1504.53	918.72
1503.66	1025.1
1502.8	967.346
1501.93	978.693
1501.06	918.085
1500.19	909.294
1499.32	989.694
1498.45	986.646
1497.58	923.203
1496.71	1009.31
1495.84	943.009
1494.97	991.713
1494.1	911.069
1493.23	1020.11
1492.36	930.865
1491.49	930.704
1490.62	962.136
1489.75	947.612
1488.88	996.256
1488.01	941.543
1487.14	904.069
1486.27	915.391
1485.4	949.662
1484.52	952.366
1483.65	897.708
1482.78	923.361
1481.91	1006.35
1481.04	1003.31
1480.17	922.882
1479.29	914.125
1478.42	922.562
1477.55	953.913
1476.67	970.933
1475.8	927.81
1474.93	939.102
1474.06	941.802
1473.18	1038.95
1472.31	958.646
1471.43	984.23
1470.56	944.011
1469.69	992.47
1468.81	1040.91
1467.94	1046.45
1467.06	1020.54
1466.19	988.924
1465.31	954.461
1464.44	1008.58
1463.56	1028.4
1462.69	1031.08
1461.81	1048.04
1460.94	1030.72
1460.06	1010.56
1459.19	1024.66
1458.31	1004.51
1457.43	1078.51
1456.56	1049.8
1455.68	1032.51
1454.8	983.847
1453.93	1063.51
1453.05	1040.52
1452.17	1051.74
1451.3	1060.11
1450.42	1014.34
1449.54	1031.25
1448.66	1059.56
1447.78	1122.02
1446.91	1067.73
1446.03	1073.24
1445.15	1058.82
1444.27	1044.41
1443.39	1035.69
1442.51	1069.65
1441.64	1112.13
1440.76	1057.9
1439.88	1052.03
1439	1034.79
1438.12	1074.41
1437.24	1082.75
1436.36	1059.83
1435.48	1059.64
1434.6	1104.9
1433.72	1008.16
1432.84	1064.77
1431.96	1050.39
1431.08	1027.5
1430.2	993.267
1429.31	1015.79
1428.43	1024.13
1427.55	1001.26
1426.67	1029.44
1425.79	995.24
1424.91	1034.76
1424.02	1054.42
1423.14	1025.89
1422.26	1028.55
1421.38	1034.04
1420.49	991.37
1419.61	1002.53
1418.73	1041.99
1417.85	1033.32
1416.96	1041.63
1416.08	1038.62
1415.2	995.995
1414.31	1077.86
1413.43	1114.45
1412.54	984.163
1411.66	1026.41
1410.78	1068.63
1409.89	1068.45
1409.01	1110.65
1408.12	1144.37
1407.24	1073.54
1406.35	1084.65
1405.47	1078.81
1404.58	1064.51
1403.7	1092.55
1402.81	1092.36
1401.92	1024.44
1401.04	1046.84
1400.15	1069.22
1399.27	1080.32
1398.38	984.246
1397.49	1020.73
1396.61	1026.19
1395.72	1034.47
1394.83	1107.56
1393.94	1056.65
1393.06	1087.46
1392.17	1090.08
1391.28	1078.63
1390.39	1075.62
1389.51	1072.62
1388.62	1058.36
1387.73	1066.62
1386.84	1088.94
1385.95	1133.77
1385.06	1037.93
1384.17	1155.87
1383.29	1043.2
1382.4	1000.84
1381.51	1104.67
1380.62	1065.13
1379.73	1109.91
1378.84	1076
1377.95	1084.24
1377.06	1154.26
1376.17	1100.71
1375.28	1108.94
1374.39	1069.45
1373.5	1125.39
1372.6	1108.36
1371.71	1153.05
1370.82	1122
1369.93	1085.34
1369.04	1158.06
1368.15	1127.02
1367.26	1121.21
1366.36	1163.06
1365.47	1221.7
1364.58	1129.03
1363.69	1159.65
1362.79	1137.04
1361.9	1136.84
1361.01	1103.05
1360.11	1150.44
1359.22	1158.63
1358.33	1211.6
1357.43	1093.88
1356.54	1183.2
1355.65	1185.79
1354.75	1143.64
1353.86	1109.89
1352.96	1137.65
1352.07	1120.68
1351.17	1215.49
1350.28	1195.72
1349.39	1159.2
1348.49	1192.51
1347.59	1116.91
1346.7	1113.92
1345.8	1116.52
1344.91	1133.07
1344.01	1138.45
1343.12	1163.36
1342.22	1107.37
1341.32	1162.96
1340.43	1179.48
1339.53	1184.85
1338.63	1153.98
1337.74	1148.21
1336.84	1150.79
1335.94	1200.74
1335.04	1144.82
1334.15	1147.4
1333.25	1239.09
1332.35	1166.49
1331.45	1227.52
1330.55	1110.42
1329.66	1177.01
1328.76	1168.46
1327.86	1243.35
1326.96	1209.76
1326.06	1209.55
1325.16	1137.06
1324.26	1159.1
1323.36	1222.81
1322.46	1222.6
1321.56	1180.71
1320.66	1249.95
1319.76	1224.73
1318.86	1235.62
1317.96	1277.05
1317.06	1185.23
1316.16	1276.6
1315.26	1295.8
1314.36	1281.7
1313.46	1295.35
1312.55	1206.38
1311.65	1258.85
1310.75	1283.58
1309.85	1319.39
1308.95	1258.19
1308.04	1285.67
1307.14	1357.48
1306.24	1304.61
1305.34	1309.92
1304.43	1365.07
1303.53	1301.16
1302.63	1339.68
1301.72	1311.77
1300.82	1292.17
1299.92	1361.11
1299.01	1291.72
1298.11	1346.8
1297.21	1307.86
1296.3	1296.57
1295.4	1393.08
1294.49	1379.02
1293.59	1367.73
1292.68	1431.03
1291.78	1428.01
1290.87	1425
1289.97	1369.53
1289.06	1468.67
1288.16	1454.61
1287.25	1429.52
1286.34	1528.6
1285.44	1442.81
1284.53	1439.8
1283.62	1442.3
1282.72	1450.32
1281.81	1397.69
1280.9	1460.84
1280	1399.95
1279.09	1358.38
1278.18	1484.86
1277.27	1393.71
1276.37	1321.86
1275.46	1340.9
1274.55	1370.95
1273.64	1266.12
1272.73	1345.7
1271.82	1345.46
1270.92	1312.21
1270.01	1281.73
1269.1	1281.5
1268.19	1234.54
1267.28	1228.82
1266.37	1236.85
1265.46	1198.16
1264.55	1173.22
1263.64	1230.7
1262.73	1216.75
1261.82	1120.42
1260.91	1153.17
1260	1202.39
1259.09	1199.43
1258.18	1188.24
1257.27	1171.57
1256.35	1127.47
1255.44	1121.79
1254.53	1066.74
1253.62	1096.72
1252.71	1096.52
1251.79	1104.55
1250.88	1085.18
1249.97	1079.5
1249.06	1093.01
1248.14	1098.3
1247.23	1084.41
1246.32	1037.68
1245.41	1021.07
1244.49	1097.52
1243.58	1034.39
1242.66	1108.08
1241.75	1091.47
1240.84	1009.23
1239.92	1058.27
1239.01	992.468
1238.09	1049.7
1237.18	1044.05
1236.26	1057.53
1235.35	1111.98
1234.43	1043.5
1233.52	1010.54
1232.6	1010.36
1231.69	1021.1
1230.77	1029.11
1229.86	1004.37
1228.94	1036.93
1228.02	990.37
1227.11	995.651
1226.19	1036.39
1225.27	951.67
1224.36	973.313
1223.44	1005.85
1222.52	1005.67
1221.6	1032.75
1220.69	972.626
1219.77	1002.42
1218.85	950.495
1217.93	996.618
1217.01	974.662
1216.1	1015.32
1215.18	1031.47
1214.26	993.194
1213.34	984.856
1212.42	946.601
1211.5	1028.02
1210.58	989.773
1209.66	954.255
1208.74	956.805
1207.82	1059.91
1206.9	1035.27
1205.98	1021.5
1205.06	942.547
1204.14	993.981
1203.22	961.221
1202.3	952.907
1201.38	996.168
1200.46	949.856
1199.54	963.255
1198.61	960.372
1197.69	927.653
1196.77	954.609
1195.85	965.286
1194.93	889.207
1194	962.234
1193.08	910.573
1192.16	953.765
1191.24	956.305
1190.31	988.639
1189.39	934.302
1188.47	907.06
1187.54	947.507
1186.62	941.926
1185.7	933.641
1184.77	1001.12
1183.85	982.005
1182.92	941.259
1182	992.474
1181.07	965.26
1180.15	1040.78
1179.23	1021.68
1178.3	1018.8
1177.37	994.298
1176.45	1031.94
1175.52	1007.45
1174.6	958.664
1173.67	1001.69
1172.75	1001.52
1171.82	960.853
1170.89	957.984
1169.97	998.286
1169.04	976.528
1168.11	949.384
1167.19	989.665
1166.26	913.997
1165.33	994.706
1164.4	894.807
1163.48	897.343
1162.55	843.299
1161.62	921.269
1160.69	956.118
1159.76	837.465
1158.83	931.548
1157.91	917.924
1156.98	931.218
1156.05	909.525
1155.12	842.103
1154.19	898.443
1153.26	906.352
1152.33	949.215
1151.4	919.473
1150.47	881.677
1149.54	962.148
1148.61	932.419
1147.68	921.507
1146.75	961.635
1145.82	929.237
1144.89	888.794
1143.96	974.547
1143.02	907.268
1142.09	874.902
1141.16	880.113
1140.23	909.468
1139.3	911.989
1138.36	893.054
1137.43	911.665
1136.5	873.97
1135.57	924.743
1134.63	905.819
1133.7	873.505
1132.77	1012.66
1131.83	945.514
1130.9	993.551
1129.97	878.239
1129.03	920.916
1128.1	939.489
1127.17	925.941
1126.23	984.641
1125.3	1037.97
1124.36	978.941
1123.43	925.283
1122.49	1016.03
1121.56	973.073
1120.62	1018.34
1119.69	1079.62
1118.75	991.257
1117.81	1055.19
1116.88	1038.98
1115.94	1060.16
1115.01	1017.25
1114.07	955.672
1113.13	995.537
1112.2	1027.38
1111.26	1040.54
1110.32	968.33
1109.38	1005.5
1108.45	965.318
1107.51	959.814
1106.57	996.963
1105.63	922.16
1104.69	969.96
1103.76	903.181
1102.82	985.598
1101.88	958.789
1100.94	916.013
1100	1014.36
1099.06	963.601
1098.12	928.831
1097.18	918.021
1096.24	920.518
1095.3	944.294
1094.36	869.66
1093.42	949.276
1092.48	970.375
1091.54	914.382
1090.6	903.589
1089.66	874.199
1088.72	927.177
1087.78	924.355
1086.84	849.83
1085.9	854.989
1084.95	889.349
1084.01	958.202
1083.07	830.647
1082.13	875.606
1081.19	962.995
1080.24	848.77
1079.3	893.701
1078.36	861.724
1077.41	856.269
1076.47	840.213
1075.53	832.113
1074.58	805.468
1073.64	855.657
1072.7	836.964
1071.75	850.056
1070.81	831.37
1069.86	847.105
1068.92	860.187
1067.98	841.51
1067.03	849.297
1066.09	817.402
1065.14	782.873
1064.19	822.398
1063.25	824.895
1062.3	843.252
1061.36	795.528
1060.41	856.163
1059.46	800.528
1058.52	824.159
1057.57	789.678
1056.63	797.458
1055.68	823.717
1054.73	847.327
1053.78	844.536
1052.84	762.585
1051.89	807.299
1050.94	867.823
1049.99	901.953
1049.05	804.229
1048.1	846.267
1047.15	819.757
1046.2	769.537
1045.25	872.162
1044.3	814.048
1043.35	827.072
1042.4	784.788
1041.45	855.74
1040.5	837.159
1039.55	826.481
1038.6	847.386
1037.65	857.759
1036.7	839.19
1035.75	862.712
1034.8	846.779
1033.85	854.516
1032.9	822.817
1031.95	785.873
1031	798.871
1030.05	806.611
1029.1	767.062
1028.14	822.08
1027.19	800.925
1026.24	806.033
1025.29	811.139
1024.33	821.492
1023.38	844.961
1022.43	779.219
1021.48	821.05
1020.52	862.866
1019.57	794.534
1018.62	841.583
1017.66	791.628
1016.71	783.623
1015.75	822.788
1014.8	838.36
1013.85	846.068
1012.89	817.108
1011.94	822.198
1010.98	730.421
1010.03	738.142
1009.07	803.436
1008.12	777.126
1007.16	813.613
1006.2	803.004
1005.25	826.397
1004.29	760.881
1003.34	786.886
1002.38	865.158
1001.42	791.831
1000.47	799.527
999.508	893.429
998.551	791.404
997.594	736.422
996.636	819.841
995.679	723.106
994.721	767.346
993.763	780.256
992.805	793.161
991.846	806.062
990.888	782.444
989.929	745.796
988.97	735.233
988.011	805.483
987.052	807.945
986.093	813.011
985.133	789.417
984.173	833.558
983.213	776.111
982.253	815.031
981.293	747.194
980.333	825.15
979.372	744.323
978.411	767.608
977.45	764.868
976.489	751.725
975.528	793.2
974.566	800.858
973.605	720.123
972.643	816.166
971.681	753.648
970.719	737.923
969.756	768.964
968.794	758.436
967.831	755.703
966.868	815.285
965.905	778.795
964.942	760.486
963.979	786.3
963.015	713.51
962.052	824.929
961.088	809.218
960.124	741.65
959.159	731.145
958.195	775.082
957.23	806.044
956.266	761.846
955.301	795.39
954.336	738.259
953.37	745.895
952.405	678.435
951.439	781.872
950.473	748.081
949.507	758.298
948.541	773.687
947.575	760.612
946.608	737.195
945.642	778.441
944.675	778.301
943.708	788.502
942.741	780.605
941.773	808.892
940.806	726.063
939.838	790.517
938.87	787.791
937.902	787.649
936.934	784.925
935.965	753.805
934.997	815.615
934.028	830.951
933.059	797.26
932.09	784.218
931.121	740.23
930.151	814.88
929.182	830.202
928.212	770.763
927.242	737.118
926.272	742.139
925.301	780.651
924.331	832.029
923.36	775.219
922.389	757.054
921.418	754.342
920.447	772.225
919.475	800.395
918.504	782.238
917.532	756.37
916.56	797.389
915.588	810.104
914.616	807.386
913.643	784.103
912.671	873.924
911.698	824.938
910.725	824.789
909.752	811.795
908.779	798.806
907.805	744.733
906.831	803.653
905.858	782.97
904.883	793.095
903.909	810.915
902.935	759.454
901.96	856.797
900.986	843.818
900.011	782.121
899.036	805.055
898.06	843.36
897.085	817.578
896.109	868.68
895.133	794.225
894.157	835.066
893.181	814.426
892.205	821.96
891.229	837.173
890.252	857.499
889.275	893.173
888.298	823.924
887.321	836.567
886.343	841.531
885.366	889.969
884.388	907.706
883.41	858.969
882.432	823.03
881.454	845.881
880.475	820.177
879.497	868.566
878.518	847.975
877.539	840.161
876.56	880.86
875.58	850.067
874.601	895.855
873.621	875.278
872.641	875.119
871.661	867.308
870.681	892.655
869.701	887.393
868.72	869.386
867.739	927.857
866.758	874.168
865.777	909.683
864.796	934.995
863.815	878.787
862.833	909.189
861.851	975.227
860.869	1010.69
859.887	1028.33
858.905	1089.22
857.922	1076.3
856.939	1101.54
855.956	1070.82
854.973	1060.45
853.99	1052.63
853.007	1029.56
852.023	1077.67
851.039	1064.77
850.055	993.432
849.071	1028.82
848.087	990.532
847.102	990.352
846.118	952.088
845.133	888.455
844.148	987.274
843.163	910.97
842.177	951.397
841.192	908.102
840.206	905.401
839.22	869.737
838.234	935.495
837.248	892.234
836.261	919.949
835.274	864.038
834.288	851.214
833.301	881.454
832.313	893.956
831.326	830.494
830.339	868.316
829.351	852.972
828.363	888.245
827.375	890.614
826.387	903.1
825.398	887.761
824.409	877.484
823.421	872.268
822.432	899.916
821.443	816.348
820.453	851.577
819.464	876.686
818.474	876.527
817.484	878.893
816.494	850.957
815.504	855.851
814.513	901.131
813.523	858.064
812.532	862.954
811.541	862.797
810.55	880.296
809.559	897.789
808.567	940.49
807.575	804.187
806.583	889.737
805.591	836.654
804.599	854.139
803.607	889.251
802.614	841.235
801.621	891.446
800.628	823.304
799.635	830.706
798.642	893.475
797.649	815.305
796.655	865.475
795.661	890.472
794.667	917.974
793.673	890.147
792.678	887.471
791.684	877.254
790.689	872.068
789.694	851.808
788.699	834.067
787.704	884.15
786.708	868.921
785.713	813.523
784.717	805.844
783.721	808.207
782.724	755.36
781.728	815.439
780.731	787.696
779.735	797.585
778.738	820.008
777.741	787.265
776.743	794.641
775.746	839.61
774.748	789.34
773.75	876.884
772.752	789.051
771.754	801.43
770.756	826.324
769.757	798.634
768.758	760.941
767.759	785.829
766.76	780.681
765.761	828.071
764.761	765.388
763.762	855.278
762.762	805.114
761.762	854.965
760.762	757.331
759.761	787.18
758.761	824.514
757.76	789.39
756.759	771.763
755.758	806.582
754.756	808.931
753.755	836.242
752.753	798.652
751.751	825.955
750.749	823.309
749.747	798.214
748.745	798.069
747.742	845.299
746.739	795.284
745.736	822.557
744.733	745.15
743.73	767.439
742.726	804.667
741.723	747.232
740.719	794.411
739.715	769.367
738.71	831.461
737.706	836.287
736.701	833.646
735.697	853.397
734.692	902.993
733.686	771.01
732.681	818.115
731.675	803.048
730.67	810.358
729.664	842.519
728.658	827.456
727.651	842.21
726.645	842.056
725.638	827.001
724.631	821.883
723.624	841.593
722.617	841.439
721.61	801.578
720.602	811.356
719.595	793.842
718.587	840.823
717.578	820.83
716.57	776.05
715.562	785.824
714.553	832.771
713.544	783.057
712.535	792.824
711.526	827.359
710.516	854.45
709.507	893.913
708.497	851.661
707.487	910.912
706.477	863.723
705.467	920.475
704.456	900.515
703.445	964.661
702.434	937.28
701.423	862.931
700.412	860.3
699.401	889.802
698.389	857.513
697.377	830.177
696.365	857.198
695.353	807.644
694.34	817.373
693.328	757.968
692.315	797.325
691.302	831.731
690.289	804.435
689.276	799.353
688.262	823.873
687.249	826.188
686.235	781.652
685.221	813.558
684.206	820.803
683.192	751.648
682.177	813.109
681.162	817.887
680.147	847.293
679.132	802.811
678.117	878.99
677.101	824.671
676.086	817.135
675.07	753.004
674.054	755.326
673.037	806.845
672.021	833.751
671.004	826.22
669.987	791.649
668.97	828.375
667.953	749.578
666.936	783.84
665.918	810.72
664.9	776.183
663.882	842.348
662.864	842.193
661.846	783.12
660.827	807.52
659.808	829.458
658.789	809.676
657.77	834.058
656.751	843.716
655.731	843.56
654.712	838.501
653.692	801.577
652.672	830.84
651.652	801.282
650.631	803.584
649.611	818.133
648.59	761.655
647.569	874.15
646.548	849.507
645.526	842.008
644.505	797.802
643.483	866.165
642.461	885.576
641.439	824.266
640.417	836.341
639.394	828.852
638.371	855.589
637.348	801.661
636.325	899.259
635.302	913.752
634.279	986.866
633.255	1015.99
632.231	1103.71
631.207	1118.15
630.183	1012.99
629.159	963.992
628.134	934.533
627.109	870.932
626.084	904.919
625.059	843.785
624.034	843.629
623.008	882.478
621.983	843.318
620.957	877.278
619.931	818.642
618.904	891.57
617.878	835.389
616.851	883.936
615.824	847.253
614.797	881.175
613.77	902.916
612.743	883.283
611.715	861.224
610.687	848.903
609.659	873.066
608.631	858.316
607.603	826.554
606.574	836.123
605.546	845.689
604.517	855.252
603.487	859.952
602.458	888.939
601.429	835.351
600.399	849.764
599.369	842.324
598.339	871.292
597.309	825.027
596.278	815.17
595.248	781.06
594.217	848.821
593.186	838.965
592.155	860.629
591.123	780.482
590.091	773.068
589.06	843.19
588.028	838.189
586.996	854.989
585.963	782.182
584.931	815.934
583.898	798.837
582.865	813.211
581.832	781.603
580.798	810.491
579.765	810.341
578.731	788.424
577.697	829.385
576.663	802.638
575.629	865.335
574.594	775.757
573.56	857.765
572.525	804.459
571.49	777.741
570.455	784.842
569.419	864.373
568.384	837.659
567.348	743.375
566.312	784.26
565.276	788.94
564.239	894.931
563.203	820.001
562.166	807.792
561.129	829.34
560.092	848.47
559.054	807.343
558.017	828.879
556.979	855.225
555.941	867.109
554.903	903.071
553.865	857.157
552.826	792.001
551.787	808.702
550.749	832.616
549.709	803.59
548.67	805.846
547.631	824.937
546.591	836.807
545.551	841.46
544.511	786.018
543.471	860.374
542.43	790.532
541.39	814.409
540.349	835.875
539.308	864.538
538.267	816.356
537.225	813.804
536.184	787.251
535.142	832.7
534.1	801.354
533.058	832.39
532.015	791.463
530.973	856.06
529.93	815.144
528.887	817.389
527.844	805.255
526.801	771.559
525.757	752.25
524.713	807.201
523.669	809.446
522.625	773.38
521.581	801.963
520.537	830.535
519.492	863.883
518.447	815.871
517.402	818.111
516.357	853.835
515.311	822.589
514.265	800.919
513.22	757.744
512.174	745.653
511.127	800.472
510.081	781.211
509.034	781.066
507.987	819.13
506.94	773.612
505.893	794.953
504.846	759.003
503.798	768.407
502.75	777.808
501.702	830.143
500.654	813.293
499.606	789.296
