3200.54	50.5175
3199.95	84.1958
3199.35	75.7648
3198.76	79.9619
3198.16	92.5734
3197.57	100.974
3196.98	71.5124
3196.38	88.3255
3195.79	100.928
3195.19	96.7082
3194.6	71.4691
3194	92.4755
3193.41	58.8391
3192.81	92.4475
3192.22	67.2244
3191.62	67.2142
3191.03	71.4043
3190.43	83.9924
3189.84	79.7807
3189.24	75.5703
3188.65	62.9657
3188.05	58.7591
3187.45	62.9467
3186.86	58.7413
3186.26	83.9035
3185.67	71.3072
3185.07	75.4903
3184.47	62.8991
3183.88	71.2748
3183.28	88.032
3182.69	54.4878
3182.09	79.6239
3181.49	67.0416
3180.9	50.2736
3180.3	37.6995
3179.7	58.6347
3179.1	75.3761
3178.51	92.1124
3177.91	83.7259
3177.31	37.6709
3176.72	58.5904
3176.12	58.5815
3175.52	66.9402
3174.92	62.7469
3174.33	54.3724
3173.73	83.6372
3173.13	96.1682
3172.53	100.334
3171.93	79.4192
3171.34	83.5865
3170.74	71.0378
3170.14	100.273
3169.54	91.9034
3168.94	66.8287
3168.34	41.7616
3167.74	62.6329
3167.15	75.1481
3166.55	87.6595
3165.95	58.4308
3165.35	62.595
3164.75	95.9644
3164.15	70.9195
3163.55	41.711
3162.95	54.2161
3162.35	58.3777
3161.75	75.0457
3161.15	70.8658
3160.55	70.855
3159.95	70.8443
3159.35	66.6668
3158.75	79.1549
3158.15	74.9775
3157.55	62.4717
3156.95	41.6415
3156.35	58.2893
3155.75	66.6062
3155.15	70.7584
3154.55	74.9093
3153.95	58.2539
3153.35	70.7262
3152.75	58.2363
3152.15	83.182
3151.54	74.8525
3150.94	54.0519
3150.34	78.987
3149.74	91.4447
3149.14	70.6511
3148.54	91.417
3147.94	91.4031
3147.33	62.3108
3146.73	83.0685
3146.13	53.9863
3145.53	66.4346
3144.93	103.788
3144.32	83.0181
3143.72	58.1038
3143.12	53.9454
3142.52	112.023
3141.91	82.9677
3141.31	82.9551
3140.71	82.9425
3140.1	95.3694
3139.5	66.3338
3138.9	74.6142
3138.29	82.8921
3137.69	49.7277
3137.09	53.8635
3136.48	66.2835
3135.88	86.9839
3135.28	62.1219
3134.67	70.3941
3134.07	95.2246
3133.47	74.5123
3132.86	66.2231
3132.26	78.628
3131.65	82.7537
3131.05	78.6041
3130.45	70.3193
3129.84	53.7654
3129.24	74.4331
3128.63	66.1527
3128.03	62.0087
3127.42	49.5994
3126.82	82.6532
3126.21	78.5086
3125.61	86.7594
3125	82.6155
3124.4	78.4728
3123.79	86.7199
3123.19	90.8356
3122.58	66.0522
3121.97	61.9145
3121.37	82.5401
3120.76	78.4012
3120.16	78.3893
3119.55	45.3764
3118.94	74.2409
3118.34	70.1058
3117.73	111.328
3117.13	86.5749
3116.52	70.0738
3115.91	86.5486
3115.31	86.5354
3114.7	82.4021
3114.09	82.3896
3113.48	94.7336
3112.88	65.8916
3112.27	74.1168
3111.66	82.3395
3111.06	74.0942
3110.45	98.7773
3109.84	90.5321
3109.23	90.5183
3108.63	69.9353
3108.02	69.9247
3107.41	82.2518
3106.8	78.1273
3106.19	74.0041
3105.59	61.6607
3104.98	90.4219
3104.37	86.2986
3103.76	94.5032
3103.15	69.8395
3102.54	82.1516
3101.93	82.1391
3101.33	102.658
3100.72	78.0084
3100.11	86.2067
3099.5	45.149
3098.89	73.8689
3098.28	49.2385
3097.67	82.0516
3097.06	82.0391
3096.45	90.2292
3095.84	77.9134
3095.23	86.1017
3094.62	69.6907
3094.01	86.0754
3093.4	73.7677
3092.79	57.3661
3092.18	77.8422
3091.57	94.2156
3090.96	77.8184
3090.35	102.377
3089.74	106.456
3089.13	81.8767
3088.52	110.517
3087.91	81.8517
3087.3	110.483
3086.69	69.5527
3086.08	73.6329
3085.46	94.0721
3084.85	73.6104
3084.24	61.3326
3083.63	134.911
3083.02	106.277
3082.41	102.174
3081.79	73.5543
3081.18	77.6288
3080.57	85.7871
3079.96	73.5206
3079.35	69.4255
3078.73	81.6647
3078.12	73.487
3077.51	126.542
3076.9	81.6273
3076.28	89.7763
3075.67	69.362
3075.06	106.067
3074.45	106.051
3073.83	85.6433
3073.22	73.3973
3072.61	89.6941
3071.99	52.993
3071.38	69.2879
3070.77	93.7282
3070.15	73.3413
3069.54	97.7735
3068.93	44.806
3068.31	97.7436
3067.7	81.4406
3067.08	93.6423
3066.47	77.3449
3065.86	93.6137
3065.24	73.2517
3064.63	89.5162
3064.01	97.6391
3063.4	81.3535
3062.78	81.3411
3062.17	93.528
3061.55	85.3821
3060.94	97.5646
3060.32	97.5497
3059.71	105.663
3059.09	93.4565
3058.48	81.2541
3057.86	93.428
3057.25	81.2293
3056.63	85.2777
3056.02	89.3249
3055.4	77.1325
3054.78	97.4156
3054.17	64.9338
3053.55	81.1548
3052.94	105.485
3052.32	56.791
3051.7	81.1176
3051.09	77.0499
3050.47	52.7103
3049.85	97.2965
3049.24	77.0146
3048.62	60.7917
3048	81.0432
3047.39	60.7731
3046.77	113.426
3046.15	64.8048
3045.53	68.8446
3044.92	93.1284
3044.3	97.1626
3043.68	72.8608
3043.06	52.6136
3042.45	64.7454
3041.83	105.195
3041.21	72.8162
3040.59	72.8051
3039.97	76.8381
3039.35	117.261
3038.74	44.4716
3038.12	80.845
3037.5	88.9159
3036.88	101.025
3036.26	88.8887
3035.64	105.034
3035.02	84.8223
3034.41	80.7708
3033.79	84.7963
3033.17	72.6715
3032.55	108.99
3031.93	113.01
3031.31	64.5672
3030.69	72.6269
3030.07	92.7869
3029.45	104.873
3028.83	100.824
3028.21	72.5825
3027.59	80.6348
3026.97	60.4669
3026.35	80.6101
3025.73	68.5081
3025.11	88.644
3024.49	84.6017
3023.87	84.5888
3023.25	112.768
3022.63	84.5628
3022	52.3404
3021.38	76.4858
3020.76	100.624
3020.14	92.5597
3019.52	92.5455
3018.9	128.739
3018.28	80.4497
3017.66	104.569
3017.03	92.4887
3016.41	100.516
3015.79	84.4203
3015.17	64.3104
3014.55	104.488
3013.92	80.3633
3013.3	72.3159
3012.68	100.423
3012.06	92.3753
3011.43	100.393
3010.81	84.3168
3010.19	64.2315
3009.57	112.388
3008.94	80.2648
3008.32	112.353
3007.7	128.384
3007.07	84.2392
3006.45	88.2371
3005.83	92.2337
3005.2	80.1909
3004.58	112.25
3003.96	76.158
3003.33	92.1771
3002.71	76.1346
3002.08	72.1164
3001.46	96.1405
3000.84	80.1048
3000.21	112.129
2999.59	96.0962
2998.96	96.0815
2998.34	92.0639
2997.71	92.0498
2997.09	112.043
2996.46	92.0215
2995.84	84.0068
2995.21	71.9947
2994.59	79.9819
2993.96	75.9711
2993.34	111.94
2992.71	67.9533
2992.09	99.9159
2991.46	111.889
2990.84	99.8852
2990.21	99.8699
2989.58	123.82
2988.96	95.8456
2988.33	91.8379
2987.71	119.77
2987.08	103.785
2986.45	95.7867
2985.83	91.7815
2985.2	87.7775
2984.57	103.721
2983.95	115.671
2983.32	111.665
2982.69	59.8115
2982.07	83.7232
2981.44	127.559
2980.81	103.625
2980.18	127.519
2979.56	99.6092
2978.93	111.545
2978.3	103.562
2977.67	111.511
2977.05	107.512
2976.42	87.5887
2975.79	107.479
2975.16	59.7012
2974.53	91.5278
2973.91	83.556
2973.28	107.413
2972.65	131.262
2972.02	103.403
2971.39	119.292
2970.76	95.4191
2970.13	155.032
2969.5	103.339
2968.88	127.167
2968.25	107.28
2967.62	75.482
2966.99	127.108
2966.36	111.202
2965.73	111.185
2965.1	107.198
2964.47	91.3026
2963.84	127.01
2963.21	182.549
2962.58	99.1962
2961.95	115.05
2961.32	107.099
2960.69	118.98
2960.06	99.1351
2959.43	111.014
2958.8	122.89
2958.17	110.98
2957.53	110.963
2956.9	126.795
2956.27	114.89
2955.64	110.912
2955.01	95.0524
2954.38	150.477
2953.75	122.738
2953.12	118.761
2952.48	118.742
2951.85	87.0643
2951.22	110.792
2950.59	75.1687
2949.96	98.891
2949.33	63.2805
2948.69	90.9516
2948.06	110.707
2947.43	110.69
2946.8	110.673
2946.16	82.9916
2945.53	106.687
2944.9	94.8183
2944.26	102.704
2943.63	130.335
2943	130.315
2942.37	98.7081
2941.73	82.902
2941.1	138.149
2940.47	110.502
2939.83	114.431
2939.2	122.304
2938.56	102.561
2937.93	130.154
2937.3	126.191
2936.66	126.171
2936.03	122.209
2935.39	94.5991
2934.76	106.408
2934.13	126.093
2933.49	118.194
2932.86	82.7231
2932.22	141.789
2931.59	126.015
2930.95	106.309
2930.32	94.4824
2929.68	98.4039
2929.05	94.4532
2928.41	110.178
2927.78	98.3584
2927.14	106.211
2926.5	137.659
2925.87	98.3128
2925.23	137.617
2924.6	106.145
2923.96	94.3366
2923.32	113.972
2922.69	121.814
2922.05	102.151
2921.42	117.848
2920.78	117.83
2920.14	133.52
2919.51	125.646
2918.87	98.1459
2918.23	105.981
2917.6	121.663
2916.96	105.948
2916.32	102.009
2915.68	125.53
2915.05	113.744
2914.41	133.334
2913.77	113.709
2913.13	125.452
2912.5	113.673
2911.86	137.171
2911.22	133.231
2910.58	109.703
2909.94	125.355
2909.31	129.252
2908.67	125.316
2908.03	113.55
2907.39	97.8731
2906.75	121.344
2906.11	144.807
2905.47	121.306
2904.83	105.638
2904.2	117.357
2903.56	121.25
2902.92	113.41
2902.28	113.392
2901.64	117.284
2901	105.54
2900.36	152.422
2899.72	117.23
2899.08	140.654
2898.44	78.1291
2897.8	128.893
2897.16	97.6311
2896.52	74.1882
2895.88	121.025
2895.24	113.199
2894.6	113.182
2893.96	117.067
2893.32	109.245
2892.67	144.338
2892.03	113.112
2891.39	128.694
2890.75	120.875
2890.11	116.958
2889.47	120.838
2888.83	120.819
2888.19	159.768
2887.54	112.989
2886.9	105.181
2886.26	124.639
2885.62	124.62
2884.98	120.707
2884.33	140.154
2883.69	85.6364
2883.05	108.975
2882.41	136.197
2881.77	143.958
2881.12	136.155
2880.48	132.245
2879.84	147.78
2879.19	136.092
2878.55	108.857
2877.91	147.711
2877.26	171.007
2876.62	128.236
2875.98	159.298
2875.33	167.043
2874.69	97.1031
2874.05	143.69
2873.4	128.136
2872.76	155.293
2872.11	104.806
2871.47	151.363
2870.83	97.0128
2870.18	151.316
2869.54	96.9827
2868.89	104.725
2868.25	124.099
2867.6	135.713
2866.96	147.322
2866.31	104.66
2865.67	139.525
2865.02	139.503
2864.38	116.235
2863.73	143.334
2863.09	154.932
2862.44	143.29
2861.8	143.267
2861.15	127.759
2860.5	162.577
2859.86	154.811
2859.21	139.309
2858.57	116.073
2857.92	154.739
2857.27	119.904
2856.63	119.886
2855.98	135.334
2855.33	146.911
2854.69	135.292
2854.04	139.136
2853.39	162.3
2852.75	131.365
2852.1	127.482
2851.45	142.912
2850.81	123.58
2850.16	166.035
2849.51	146.706
2848.86	146.683
2848.21	150.52
2847.57	131.202
2846.92	135.04
2846.27	146.592
2845.62	154.283
2844.97	107.981
2844.33	169.659
2843.68	134.935
2843.03	131.059
2842.38	158.017
2841.73	123.312
2841.08	127.145
2840.43	142.535
2839.78	150.216
2839.14	138.639
2838.49	127.066
2837.84	138.596
2837.19	177.067
2836.54	142.402
2835.89	142.38
2835.24	142.357
2834.59	157.723
2833.94	123.082
2833.29	130.754
2832.64	153.804
2831.99	134.558
2831.34	157.6
2830.69	184.479
2830.04	184.45
2829.39	146
2828.74	176.71
2828.08	145.955
2827.43	138.251
2826.78	180.467
2826.13	153.565
2825.48	122.833
2824.83	157.355
2824.18	161.168
2823.53	145.796
2822.87	180.298
2822.22	157.257
2821.57	145.728
2820.92	180.214
2820.27	180.186
2819.61	172.492
2818.96	141.804
2818.31	149.446
2817.66	137.929
2817	172.384
2816.35	157.037
2815.7	176.16
2815.05	168.475
2814.39	153.135
2813.74	137.8
2813.09	141.606
2812.43	130.104
2811.78	202.777
2811.13	195.095
2810.47	168.291
2809.82	130.023
2809.16	149.121
2808.51	187.327
2807.86	168.186
2807.2	126.12
2806.55	137.564
2805.89	171.928
2805.24	141.341
2804.58	133.68
2803.93	148.935
2803.28	179.457
2802.62	175.612
2801.97	194.67
2801.31	141.209
2800.66	156.45
2800	167.872
2799.34	167.846
2798.69	156.377
2798.03	141.099
2797.38	156.328
2796.72	160.116
2796.07	148.656
2795.41	121.955
2794.75	175.283
2794.1	156.206
2793.44	144.754
2792.79	186.627
2792.13	163.75
2791.47	182.762
2790.82	209.382
2790.16	175.092
2789.5	140.813
2788.84	152.206
2788.19	159.792
2787.53	186.394
2786.87	190.169
2786.22	167.322
2785.56	148.285
2784.9	186.278
2784.24	163.443
2783.59	174.819
2782.93	155.792
2782.27	167.166
2781.61	151.945
2780.95	174.709
2780.29	182.277
2779.64	201.233
2778.98	182.22
2778.32	208.761
2777.66	204.934
2777	170.751
2776.34	151.755
2775.68	159.318
2775.02	197.22
2774.36	178.229
2773.71	181.992
2773.05	174.382
2772.39	151.613
2771.73	174.328
2771.07	162.933
2770.41	193.216
2769.75	162.882
2769.09	174.219
2768.43	196.912
2767.77	208.24
2767.11	204.422
2766.45	132.475
2765.79	151.376
2765.12	181.623
2764.46	189.161
2763.8	204.262
2763.14	177.756
2762.48	185.291
2761.82	211.728
2761.16	200.354
2760.5	207.882
2759.83	192.733
2759.17	215.374
2758.51	196.45
2757.85	203.974
2757.19	207.719
2756.53	181.254
2755.86	158.572
2755.2	166.097
2754.54	181.169
2753.88	215.104
2753.21	222.617
2752.55	154.675
2751.89	143.335
2751.23	169.713
2750.56	192.311
2749.9	165.889
2749.24	188.481
2748.57	211.066
2747.91	199.727
2747.25	203.464
2746.58	165.759
2745.92	203.4
2745.25	210.9
2744.59	188.274
2743.93	184.48
2743.26	210.801
2742.6	195.713
2741.93	195.683
2741.27	203.177
2740.61	176.812
2739.94	184.307
2739.28	165.474
2738.61	191.769
2737.95	187.98
2737.28	214.263
2736.62	206.713
2735.95	184.133
2735.29	210.405
2734.62	217.885
2733.95	184.047
2733.29	168.996
2732.62	225.293
2731.96	183.96
2731.29	183.931
2730.62	217.68
2729.96	187.626
2729.29	202.604
2728.63	236.335
2727.96	195.039
2727.29	225.01
2726.63	221.225
2725.96	232.437
2725.29	217.407
2724.62	179.895
2723.96	228.581
2723.29	191.079
2722.62	183.557
2721.96	228.473
2721.29	235.927
2720.62	217.169
2719.95	194.672
2719.28	228.33
2718.62	217.066
2717.95	198.323
2717.28	220.74
2716.61	220.705
2715.94	198.229
2715.27	198.198
2714.61	201.906
2713.94	216.828
2713.27	201.843
2712.6	220.497
2711.93	212.989
2711.26	183.067
2710.59	216.658
2709.92	209.154
2709.25	216.59
2708.58	205.354
2707.91	220.255
2707.24	216.488
2706.57	235.113
2705.9	194.031
2705.23	246.232
2704.56	231.272
2703.89	179.021
2703.22	205.096
2702.55	205.064
2701.88	216.215
2701.21	216.181
2700.54	208.694
2699.87	208.661
2699.2	227.256
2698.53	197.421
2697.86	212.287
2697.19	234.596
2696.51	193.605
2695.84	230.8
2695.17	267.984
2694.5	204.677
2693.83	230.691
2693.15	223.214
2692.48	219.46
2691.81	208.268
2691.14	197.08
2690.47	223.074
2689.79	256.495
2689.12	223.004
2688.45	252.698
2687.77	263.805
2687.1	226.613
2686.43	211.72
2685.76	267.394
2685.08	248.786
2684.41	193.057
2683.74	244.995
2683.06	226.399
2682.39	244.918
2681.71	274.562
2681.04	226.292
2680.37	244.802
2679.69	218.804
2679.02	248.433
2678.34	233.565
2677.67	211.287
2676.99	244.61
2676.32	244.571
2675.65	222.302
2674.97	229.676
2674.3	255.567
2673.62	274.043
2672.95	236.973
2672.27	255.446
2671.59	236.899
2670.92	207.254
2670.24	259.026
2669.57	233.087
2668.89	244.148
2668.22	218.219
2667.54	273.655
2666.86	225.545
2666.19	243.994
2665.51	258.74
2664.83	236.525
2664.16	266.049
2663.48	229.062
2662.8	254.883
2662.13	262.23
2661.45	214.182
2660.77	265.839
2660.1	191.965
2659.42	258.373
2658.74	258.333
2658.06	269.362
2657.39	250.873
2656.71	272.965
2656.03	247.105
2655.35	298.692
2654.68	235.966
2654	246.988
2653.32	250.635
2652.64	217.428
2651.96	257.925
2651.28	246.832
2650.6	206.275
2649.93	239.389
2649.25	257.762
2648.57	242.995
2647.89	279.768
2647.21	265.002
2646.53	224.48
2645.85	264.918
2645.17	242.803
2644.49	250.121
2643.81	250.082
2643.13	294.167
2642.45	290.444
2641.77	260.991
2641.09	235.222
2640.41	257.234
2639.73	301.283
2639.05	282.868
2638.37	271.804
2637.69	290.123
2637.01	246.015
2636.33	253.319
2635.65	286.315
2634.96	231.218
2634.28	267.877
2633.6	267.834
2632.92	282.466
2632.24	282.421
2631.56	278.709
2630.88	260.332
2630.19	274.955
2629.51	271.246
2628.83	263.873
2628.15	271.16
2627.46	260.126
2626.78	256.422
2626.1	293.007
2625.42	278.313
2624.73	263.623
2624.05	274.564
2623.37	278.181
2622.69	252.519
2622	281.752
2621.32	303.658
2620.64	292.637
2619.95	270.646
2619.27	259.633
2618.58	288.841
2617.9	288.796
2617.22	248.544
2616.53	299.668
2615.85	281.351
2615.16	259.386
2614.48	325.095
2613.79	255.652
2613.11	266.566
2612.43	277.477
2611.74	292.035
2611.06	284.689
2610.37	266.397
2609.69	262.707
2609	284.554
2608.31	295.451
2607.63	288.111
2606.94	317.236
2606.26	273.436
2605.57	251.521
2604.89	255.126
2604.2	320.679
2603.51	258.689
2602.83	291.434
2602.14	276.819
2601.45	324.118
2600.77	302.219
2600.08	283.968
2599.39	262.083
2598.71	298.436
2598.02	331.139
2597.33	287.427
2596.65	298.294
2595.96	312.796
2595.27	294.563
2594.58	261.792
2593.9	258.115
2593.21	305.327
2592.52	301.645
2591.83	308.864
2591.14	283.384
2590.46	286.971
2589.77	305.085
2589.08	341.351
2588.39	308.619
2587.7	330.352
2587.01	323.04
2586.32	268.553
2585.64	322.938
2584.95	275.723
2584.26	304.698
2583.57	311.904
2582.88	275.592
2582.19	333.558
2581.5	300.88
2580.81	297.208
2580.12	304.408
2579.43	340.593
2578.74	260.839
2578.05	315.13
2577.36	275.242
2576.67	300.546
2575.98	314.98
2575.29	296.83
2574.6	336.596
2573.91	340.161
2573.22	307.544
2572.52	321.965
2571.83	289.361
2571.14	361.644
2570.45	289.269
2569.76	336.222
2569.07	274.718
2568.38	325.272
2567.68	332.448
2566.99	310.717
2566.3	354.017
2565.61	299.783
2564.92	288.901
2564.22	299.688
2563.53	317.691
2562.84	360.955
2562.14	313.981
2561.45	299.497
2560.76	324.704
2560.07	295.795
2559.37	317.388
2558.68	320.943
2557.99	335.314
2557.29	317.236
2556.6	327.999
2555.91	327.947
2555.21	259.433
2554.52	335.048
2553.82	309.78
2553.13	324.137
2552.44	338.489
2551.74	280.829
2551.05	359.98
2550.35	287.938
2549.66	334.675
2548.96	327.425
2548.27	345.361
2547.57	302.143
2546.88	305.691
2546.18	316.43
2545.49	301.998
2544.79	330.707
2544.1	345.031
2543.4	355.757
2542.7	352.107
2542.01	352.051
2541.31	312.485
2540.62	323.209
2539.92	323.158
2539.22	380.547
2538.53	337.413
2537.83	358.893
2537.13	315.775
2536.44	315.725
2535.74	347.96
2535.04	355.077
2534.35	337.091
2533.65	347.793
2532.95	344.153
2532.25	365.604
2531.56	358.378
2530.86	372.654
2530.16	351.099
2529.46	351.043
2528.76	350.987
2528.07	347.35
2527.37	354.455
2526.67	357.979
2525.97	340.026
2525.27	339.971
2524.57	336.339
2523.88	347.018
2523.18	339.809
2522.48	307.567
2521.78	357.579
2521.08	361.098
2520.38	368.189
2519.68	321.668
2518.98	353.778
2518.28	360.867
2517.58	364.382
2516.88	332.178
2516.18	382.122
2515.48	367.778
2514.78	335.589
2514.08	349.813
2513.38	371.171
2512.68	331.86
2511.98	342.51
2511.28	356.725
2510.58	324.568
2509.88	306.685
2509.17	367.25
2508.47	352.932
2507.77	367.133
2507.07	342.128
2506.37	381.269
2505.67	374.083
2504.97	356.212
2504.26	366.84
2503.56	377.465
2502.86	377.404
2502.16	359.545
2501.45	391.521
2500.75	380.782
2500.05	355.814
2499.35	369.988
2498.64	377.043
2497.94	359.2
2497.24	376.922
2496.53	366.196
2495.83	398.13
2495.13	330.537
2494.42	380.235
2493.72	401.492
2493.02	369.456
2492.31	380.053
2491.61	362.235
2490.9	379.931
2490.2	390.521
2489.5	383.359
2488.79	315.866
2488.09	397.431
2487.38	404.463
2486.68	393.756
2485.97	390.146
2485.27	347.529
2484.56	400.659
2483.86	411.23
2483.15	404.075
2482.45	382.747
2481.74	389.772
2481.04	375.539
2480.33	350.683
2479.62	361.252
2478.92	435.557
2478.21	400.082
2477.51	350.458
2476.8	353.942
2476.09	424.662
2475.39	406.903
2474.68	378.536
2473.97	399.698
2473.27	389.024
2472.56	396.034
2471.85	392.435
2471.14	399.442
2470.44	417.05
2469.73	356.909
2469.02	409.85
2468.31	374.458
2467.61	370.866
2466.9	413.184
2466.19	406.056
2465.48	444.825
2464.77	388.277
2464.07	409.39
2463.36	409.325
2462.65	416.315
2461.94	458.579
2461.23	405.601
2460.52	409.063
2459.81	377.264
2459.1	415.982
2458.4	433.539
2457.69	341.842
2456.98	440.447
2456.27	384.008
2455.56	422.694
2454.85	394.451
2454.14	419.037
2453.43	376.721
2452.72	401.301
2452.01	362.521
2451.3	408.211
2450.59	372.96
2449.88	418.634
2449.16	369.323
2448.45	429.05
2447.74	439.53
2447.03	383.208
2446.32	425.328
2445.61	428.775
2444.9	397.08
2444.19	435.664
2443.47	403.978
2442.76	417.963
2442.05	421.407
2441.34	424.851
2440.63	417.761
2439.91	438.755
2439.2	452.722
2438.49	414.051
2437.78	413.985
2437.06	431.457
2436.35	424.374
2435.64	448.852
2434.93	459.298
2434.21	452.213
2433.5	424.101
2432.79	469.59
2432.07	455.499
2431.36	507.975
2430.64	441.342
2429.93	451.778
2429.22	399.181
2428.5	427.125
2427.79	434.058
2427.07	465.487
2426.36	430.419
2425.65	437.347
2424.93	444.273
2424.22	440.704
2423.5	423.148
2422.79	412.591
2422.07	430.004
2421.36	398.476
2420.64	475.299
2419.92	475.222
2419.21	471.652
2418.49	454.111
2417.78	495.949
2417.06	450.473
2416.35	446.909
2415.63	429.382
2414.91	408.371
2414.2	432.734
2413.48	446.621
2412.76	484.925
2412.05	442.989
2411.33	421.993
2410.61	439.36
2409.9	463.694
2409.18	397.388
2408.46	508.854
2407.74	446.047
2407.03	421.586
2406.31	459.838
2405.59	456.281
2404.87	431.83
2404.16	511.845
2403.44	456.06
2402.72	515.161
2402	410.67
2401.28	466.279
2400.56	473.162
2399.85	459.172
2399.13	473.01
2398.41	448.592
2397.69	451.996
2396.97	483.21
2396.25	451.851
2395.53	423.976
2394.81	476.028
2394.09	465.529
2393.37	444.612
2392.65	441.068
2391.93	479.193
2391.21	468.701
2390.49	489.453
2389.77	451.196
2389.05	465.004
2388.33	464.929
2387.61	485.668
2386.89	457.842
2386.17	471.64
2385.45	471.564
2384.73	506.156
2384	509.541
2383.28	457.473
2382.56	447.004
2381.84	488.507
2381.12	495.356
2380.4	450.251
2379.67	453.641
2378.95	484.729
2378.23	495.037
2377.51	467.267
2376.79	456.809
2376.06	519.018
2375.34	512.015
2374.62	494.637
2373.9	435.764
2373.17	484.104
2372.45	518.599
2371.73	511.602
2371	497.695
2370.28	487.247
2369.56	452.618
2368.83	514.726
2368.11	525.005
2367.38	500.747
2366.66	493.76
2365.94	434.991
2365.21	490.149
2364.49	503.874
2363.76	503.793
2363.04	489.911
2362.31	520.878
2361.59	524.243
2360.86	482.777
2360.14	486.147
2359.41	482.621
2358.69	496.33
2357.96	503.142
2357.24	520.289
2356.51	513.315
2355.79	568.344
2355.06	482.154
2354.33	506.179
2353.61	512.983
2352.88	530.112
2352.15	474.958
2351.43	498.97
2350.7	505.77
2349.98	467.848
2349.25	488.409
2348.52	539.915
2347.79	502.005
2347.07	529.427
2346.34	570.588
2345.61	512.072
2344.88	481.063
2344.16	501.599
2343.43	498.083
2342.7	539.217
2341.97	576.903
2341.25	515.008
2340.52	552.686
2339.79	494.248
2339.06	562.803
2338.33	487.226
2337.6	497.439
2336.87	548.809
2336.14	552.15
2335.42	462.908
2334.69	524.544
2333.96	565.593
2333.23	531.229
2332.5	537.996
2331.77	548.188
2331.04	554.95
2330.31	544.585
2329.58	541.072
2328.85	561.528
2328.12	537.474
2327.39	605.844
2326.66	554.411
2325.93	574.852
2325.2	567.916
2324.47	516.515
2323.73	567.732
2323	536.865
2322.27	492.331
2321.54	526.435
2320.81	533.186
2320.08	550.186
2319.35	546.68
2318.61	573.921
2317.88	597.737
2317.15	573.735
2316.42	549.74
2315.69	505.269
2314.95	573.456
2314.22	535.821
2313.49	580.095
2312.76	539.059
2312.02	562.851
2311.29	538.885
2310.56	566.078
2309.82	576.215
2309.09	572.713
2308.36	541.944
2307.62	562.303
2306.89	572.434
2306.16	609.816
2305.42	565.436
2304.69	599.401
2303.95	578.873
2303.22	582.183
2302.48	592.301
2301.75	599.012
2301.02	558.08
2300.28	581.806
2299.55	564.702
2298.81	557.808
2298.08	561.118
2297.34	595.029
2296.6	635.727
2295.87	560.845
2295.13	581.145
2294.4	547.071
2293.66	546.982
2292.93	546.893
2292.19	594.353
2291.45	567.09
2290.72	573.788
2289.98	617.826
2289.24	607.543
2288.51	600.657
2287.77	651.454
2287.03	580.107
2286.3	637.675
2285.56	627.398
2284.82	589.997
2284.08	600.072
2283.35	606.754
2282.61	610.044
2281.87	528.619
2281.13	555.637
2280.4	619.909
2279.66	579.165
2278.92	616.321
2278.18	612.835
2277.44	589.039
2276.7	629.56
2275.97	697.141
2275.23	619.204
2274.49	595.422
2273.75	615.62
2273.01	588.464
2272.27	598.513
2271.53	581.511
2270.79	709.869
2270.05	642.158
2269.31	571.089
2268.57	570.997
2267.83	604.685
2267.09	621.474
2266.35	628.127
2265.61	648.284
2264.87	607.667
2264.13	648.073
2263.39	631.093
2262.65	610.745
2261.91	657.878
2261.17	647.651
2260.42	637.428
2259.68	660.929
2258.94	623.734
2258.2	627.003
2257.46	616.79
2256.72	670.608
2255.97	646.913
2255.23	683.865
2254.49	666.912
2253.75	670.171
2253	606.086
2252.26	639.653
2251.52	615.987
2250.78	612.521
2250.03	609.056
2249.29	693.067
2248.55	629.041
2247.8	645.755
2247.06	652.375
2246.32	622.009
2245.57	608.461
2244.83	655.417
2244.09	628.426
2243.34	651.843
2242.6	621.502
2241.85	607.965
2241.11	661.6
2240.36	684.997
2239.62	651.312
2238.88	600.855
2238.13	637.675
2237.39	640.927
2236.64	644.177
2235.89	654.136
2235.15	630.551
2234.4	660.629
2233.66	687.345
2232.91	650.357
2232.17	630.14
2231.42	676.954
2230.67	636.635
2229.93	603.03
2229.18	696.721
2228.44	723.4
2227.69	696.493
2226.94	652.856
2226.2	689.571
2225.45	692.805
2224.7	716.117
2223.95	649.084
2223.21	689.121
2222.46	682.319
2221.71	638.733
2220.96	648.66
2220.22	748.846
2219.47	665.161
2218.72	645
2217.97	735.113
2217.22	718.289
2216.48	728.192
2215.73	691.336
2214.98	714.598
2214.23	681.094
2213.48	670.968
2212.73	690.884
2211.98	680.76
2211.23	730.696
2210.48	697.217
2209.73	700.439
2208.98	663.641
2208.23	700.21
2207.48	666.757
2206.73	736.646
2205.98	736.526
2205.23	739.738
2204.48	752.943
2203.73	706.185
2202.98	696.078
2202.23	739.254
2201.48	732.474
2200.73	682.421
2199.98	738.891
2199.23	745.426
2198.48	705.377
2197.72	718.568
2196.97	784.974
2196.22	738.287
2195.47	714.891
2194.72	734.721
2193.97	724.629
2193.21	714.54
2192.46	754.297
2191.71	804.009
2190.96	697.58
2190.2	743.963
2189.45	727.238
2188.7	743.72
2187.94	710.401
2187.19	763.391
2186.44	759.947
2185.68	789.685
2184.93	756.381
2184.18	802.694
2183.42	706.387
2182.67	706.272
2181.91	759.2
2181.16	755.761
2180.41	712.553
2179.65	745.573
2178.9	728.885
2178.14	715.515
2177.39	775.014
2176.63	721.904
2175.88	774.76
2175.12	724.977
2174.37	738.098
2173.61	790.926
2172.86	761.017
2172.1	800.591
2171.34	767.383
2170.59	727.572
2169.83	806.811
2169.08	839.739
2168.32	780.102
2167.56	783.279
2166.81	753.411
2166.05	802.846
2165.29	759.77
2164.54	779.463
2163.78	842.078
2163.02	785.81
2162.27	851.705
2161.51	831.761
2160.75	765.623
2159.99	801.792
2159.23	775.269
2158.48	778.44
2157.72	794.802
2156.96	738.616
2156.2	811.025
2155.44	817.485
2154.69	827.238
2153.93	731.54
2153.17	830.261
2152.41	777.418
2151.65	780.584
2150.89	856.196
2150.13	793.498
2149.37	793.367
2148.61	780.071
2147.85	802.98
2147.09	766.654
2146.33	802.716
2145.57	848.634
2144.81	881.382
2144.05	752.997
2143.29	831.777
2142.53	795.482
2141.77	844.65
2141.01	831.367
2140.25	850.944
2139.49	817.954
2138.73	814.535
2137.97	817.685
2137.2	833.967
2136.44	804.285
2135.68	853.387
2134.92	843.401
2134.16	856.387
2133.4	905.456
2132.63	852.826
2131.87	872.363
2131.11	849.266
2130.35	898.304
2129.58	927.657
2128.82	875.066
2128.06	851.984
2127.29	868.226
2126.53	851.704
2125.77	848.288
2125	854.698
2124.24	890.573
2123.48	860.964
2122.71	893.553
2121.95	841.046
2121.19	893.259
2120.42	870.212
2119.66	883.152
2118.89	896.089
2118.13	873.052
2117.36	889.255
2116.6	898.915
2115.83	924.913
2115.07	885.548
2114.3	914.807
2113.54	901.589
2112.77	836.119
2112.01	950.276
2111.24	806.458
2110.48	894.466
2109.71	946.542
2108.94	903.962
2108.18	942.967
2107.41	910.189
2106.64	945.918
2105.88	965.33
2105.11	873.871
2104.34	925.89
2103.58	854.025
2102.81	870.18
2102.04	951.5
2101.28	954.601
2100.51	925.127
2099.74	820.752
2098.97	905.283
2098.21	940.949
2097.44	953.815
2096.67	917.855
2095.9	907.94
2095.13	976.119
2094.36	969.452
2093.6	910.744
2092.83	923.602
2092.06	916.946
2091.29	994.82
2090.52	942.648
2089.75	909.993
2088.98	1033.32
2088.21	984.417
2087.44	938.777
2086.67	980.844
2085.9	980.682
2085.13	993.508
2084.36	947.896
2083.59	1006.16
2082.82	960.564
2082.05	986.362
2081.28	992.688
2080.51	953.601
2079.74	1044.25
2078.97	1005.17
2078.2	1021.21
2077.43	946.489
2076.65	1027.35
2075.88	981.819
2075.11	1030.25
2074.34	1020.37
2073.57	1029.91
2072.8	981.171
2072.02	1071.66
2071.25	1042.35
2070.48	954.792
2069.71	1019.35
2068.93	938.299
2068.16	996.373
2067.39	967.098
2066.61	1060.72
2065.84	1079.95
2065.07	1028.04
2064.29	1044.03
2063.52	1056.79
2062.75	1043.69
2061.97	995.056
2061.2	1072.42
2060.43	1065.78
2059.65	1017.17
2058.88	1071.88
2058.1	1036.2
2057.33	1081.21
2056.55	1042.31
2055.78	1006.65
2055	1045.19
2054.23	1090.17
2053.45	1070.64
2052.68	1054.34
2051.9	1160.55
2051.13	1121.68
2050.35	1021.59
2049.57	1027.87
2048.8	1076.02
2048.02	1111.28
2047.25	1101.43
2046.47	1101.25
2045.69	1017.36
2044.92	1097.66
2044.14	1023.46
2043.36	1097.3
2042.59	1158.25
2041.81	1096.94
2041.03	1112.84
2040.25	1109.44
2039.48	1044.95
2038.7	1086.57
2037.92	1102.46
2037.14	1144.05
2036.37	1118.16
2035.59	1124.4
2034.81	1185.24
2034.03	1152.93
2033.25	1146.32
2032.47	1085.13
2031.69	1213.34
2030.92	1190.68
2030.14	1135.93
2029.36	1183.87
2028.58	1193.29
2027.8	1167.44
2027.02	1167.24
2026.24	1179.87
2025.46	1179.68
2024.68	1153.84
2023.9	1249.79
2023.12	1131.03
2022.34	1140.45
2021.56	1207.53
2020.78	1194.52
2020	1149.49
2019.21	1238.94
2018.43	1229.13
2017.65	1212.93
2016.87	1260.72
2016.09	1257.31
2015.31	1221.92
2014.53	1244.1
2013.74	1243.9
2012.96	1307.63
2012.18	1208.32
2011.4	1224.1
2010.62	1265.44
2009.83	1258.84
2009.05	1284.19
2008.27	1290.36
2007.49	1270.99
2006.7	1325.05
2005.92	1308.87
2005.14	1241.63
2004.35	1270.14
2003.57	1276.31
2002.79	1311.19
2002	1352.44
2001.22	1301.19
2000.43	1351.99
1999.65	1326.26
1998.87	1281.42
1998.08	1313.07
1997.3	1341.53
1996.51	1312.64
1995.73	1398.43
1994.94	1318.57
1994.16	1359.75
1993.37	1327.68
1992.59	1387.95
1991.8	1374.98
1991.02	1374.76
1990.23	1371.35
1989.44	1412.47
1988.66	1380.43
1987.87	1424.72
1987.09	1329.1
1986.3	1363.85
1985.51	1404.94
1984.73	1439.67
1983.94	1347.28
1983.15	1350.23
1982.37	1464.36
1981.58	1400.6
1980.79	1454.35
1980	1384.26
1979.22	1418.94
1978.43	1447.27
1977.64	1431.17
1976.85	1434.1
1976.06	1497.31
1975.28	1462.17
1974.49	1468.27
1973.7	1550.46
1972.91	1458.27
1972.12	1489.72
1971.33	1498.98
1970.54	1467.04
1969.76	1549.17
1968.97	1457.05
1968.18	1605.66
1967.39	1561.06
1966.6	1548.14
1965.81	1639.68
1965.02	1544.46
1964.23	1569.51
1963.44	1562.92
1962.65	1527.87
1961.86	1559.24
1961.07	1593.77
1960.28	1647.25
1959.48	1571.11
1958.69	1555.04
1957.9	1529.5
1957.11	1488.17
1956.32	1614.28
1955.53	1604.54
1954.74	1560.06
1953.94	1613.48
1953.15	1647.93
1952.36	1685.54
1951.57	1644.23
1950.78	1628.18
1949.98	1555.34
1949.19	1646.56
1948.4	1605.29
1947.61	1633.4
1946.81	1718.25
1946.02	1724.27
1945.23	1733.43
1944.43	1632.31
1943.64	1717.1
1942.85	1691.62
1942.05	1751.18
1941.26	1722.54
1940.46	1744.29
1939.67	1753.45
1938.88	1746.86
1938.08	1718.24
1937.29	1661.32
1936.49	1695.65
1935.7	1764.56
1934.9	1732.82
1934.11	1833.15
1933.31	1735.39
1932.52	1735.1
1931.72	1813.37
1930.93	1806.79
1930.13	1815.91
1929.33	1740.22
1928.54	1768.19
1927.74	1742.78
1926.95	1742.49
1926.15	1770.45
1925.35	1757.6
1924.56	1848.31
1923.76	1854.27
1922.96	1791.22
1922.17	1819.15
1921.37	1906.65
1920.57	1815.41
1919.77	1840.18
1918.98	1836.74
1918.18	1842.7
1917.38	1873.73
1916.58	1901.61
1915.78	1913.82
1914.99	1788.23
1914.19	1897.52
1913.39	1909.73
1912.59	1843.67
1911.79	1912.22
1910.99	1852.44
1910.19	1842.75
1909.39	1895.62
1908.59	1860.9
1907.8	1832.44
1907	1925.93
1906.2	1831.83
1905.4	1831.52
1904.6	1837.47
1903.8	1846.53
1903	1874.34
1902.2	1958.35
1901.39	1929.92
1900.59	1814.07
1899.79	1910.54
1898.99	1838.43
1898.19	1944.23
1897.39	2031.27
1896.59	1918.62
1895.79	1890.23
1894.99	1961.64
1894.18	1861.53
1893.38	2013.98
1892.58	1951.3
1891.78	1941.63
1890.98	1925.72
1890.17	2040.67
1889.37	1950
1888.57	1937.21
1887.76	2014.73
1886.96	1911.65
1886.16	2048.3
1885.36	1939.02
1884.55	1976.04
1883.75	1891.7
1882.94	2028.26
1882.14	1965.72
1881.34	2043.13
1880.53	2008.59
1879.73	2002.03
1878.92	2082.51
1878.12	2032.44
1877.32	2035.2
1876.51	1950.98
1875.71	1994.14
1874.9	2099.4
1874.1	1965.53
1873.29	2033.5
1872.49	2045.57
1871.68	1955.23
1870.87	1930.07
1870.07	2001.11
1869.26	2072.12
1868.46	1947.71
1867.65	1997
1866.84	2077.27
1866.04	2042.83
1865.23	2188.15
1864.42	2438.79
1863.62	2175.02
1862.81	2165.37
1862	2034.92
1861.2	2065.54
1860.39	2099.25
1859.58	2058.66
1858.77	2126.4
1857.96	2036.3
1857.16	2085.47
1856.35	2035.62
1855.54	2010.53
1854.73	1926.69
1853.92	2167.55
1853.12	2040.43
1852.31	2086.45
1851.5	2045.93
1850.69	2054.85
1849.88	2122.48
1849.07	2078.87
1848.26	2069.26
1847.45	2183.16
1846.64	2096.35
1845.83	2108.34
1845.02	2129.59
1844.21	2129.24
1843.4	2082.6
1842.59	2147.03
1841.78	2137.41
1840.97	2112.38
1840.16	2084.28
1839.35	2120.92
1838.54	2148.3
1837.72	2061.66
1836.91	2230.77
1836.1	2073.28
1835.29	2082.18
1834.48	2146.5
1833.67	2035.29
1832.85	2068.81
1832.04	1997.67
1831.23	2080.42
1830.42	2040.07
1829.6	2073.57
1828.79	2085.52
1827.98	2088.25
1827.17	2115.57
1826.35	2173.63
1825.54	2105.64
1824.73	2182.12
1823.91	2126.44
1823.1	2095.36
1822.29	2171.8
1821.47	2137.65
1820.66	2063.59
1819.84	2063.24
1819.03	2010.71
1818.21	2188.38
1817.4	2086.75
1816.58	2236.74
1815.77	2282.38
1814.95	2147.04
1814.14	2125.21
1813.32	2204.57
1812.51	2084.64
1811.69	2133.33
1810.88	2154.42
1810.06	2169.38
1809.25	2110.8
1808.43	2196.21
1807.61	2177.47
1806.8	2170.98
1805.98	2143.06
1805.16	2099.84
1804.35	2130.09
1803.53	2166.45
1802.71	2175.26
1801.89	2199.37
1801.08	2098.07
1800.26	2220.03
1799.44	2127.93
1798.62	2112.29
1797.81	2127.22
1796.99	2169.64
1796.17	2181.49
1795.35	2214.73
1794.53	2211.3
1793.71	2143.74
1792.9	2207.5
1792.08	2228.49
1791.26	2182.34
1790.44	2181.97
1789.62	2257.88
1788.8	2178.18
1787.98	2147.31
1787.16	2177.44
1786.34	2174.03
1785.52	2170.61
1784.7	2295.21
1783.88	2130.26
1783.06	2160.37
1782.24	2132.58
1781.42	2247.97
1780.6	2265.87
1779.78	2155.86
1778.95	2179.85
1778.13	2179.49
1777.31	2130.42
1776.49	2245.69
1775.67	2245.31
1774.85	2296.65
1774.02	2189.81
1773.2	2283.71
1772.38	2265.08
1771.56	2273.81
1770.74	2325.1
1769.91	2257.85
1769.09	2157.2
1768.27	2220.63
1767.44	2214.18
1766.62	2292.76
1765.8	2298.45
1764.97	2273.77
1764.15	2203.58
1763.33	2315.49
1762.5	2284.75
1761.68	2372.34
1760.85	2280.95
1760.03	2295.72
1759.21	2319.59
1758.38	2334.36
1757.56	2264.25
1756.73	2309.32
1755.91	2372.56
1755.08	2296.42
1754.26	2274.83
1753.43	2180.56
1752.6	2255.89
1751.78	2325.14
1750.95	2388.32
1750.13	2291.06
1749.3	2441.97
1748.47	2314.49
1747.65	2359.47
1746.82	2322.78
1745.99	2394.96
1745.17	2488.28
1744.34	2424.38
1743.51	2563
1742.69	2502.12
1741.86	2441.27
1741.03	2428.77
1740.2	2518.97
1739.38	2642.36
1738.55	2500
1737.72	2578.07
1736.89	2644.03
1736.06	2667.73
1735.23	2724.6
1734.4	2715.09
1733.58	2717.65
1732.75	2744.33
1731.92	2743.86
1731.09	2683.1
1730.26	2748.96
1729.43	2802.74
1728.6	2738.98
1727.77	2807.81
1726.94	2786.25
1726.11	2788.79
1725.28	2860.58
1724.45	2772.79
1723.62	2880.68
1722.79	2970.48
1721.96	2861.65
1721.13	2846.12
1720.3	2911.81
1719.46	2908.31
1718.63	2784.53
1717.8	2823.14
1716.97	2813.64
1716.14	2792.13
1715.31	2836.73
1714.47	2707.05
1713.64	2847.78
1712.81	2679.1
1711.98	2711.68
1711.14	2615.14
1710.31	2680.74
1709.48	2599.24
1708.65	2733.84
1707.81	2556.35
1706.98	2555.92
1706.15	2585.48
1705.31	2465.08
1704.48	2545.62
1703.64	2509.21
1702.81	2499.79
1701.98	2589.27
1701.14	2597.82
1700.31	2498.52
1699.47	2623.89
1698.64	2587.51
1697.8	2626
1696.97	2583.64
1696.13	2574.22
1695.3	2522.9
1694.46	2501.53
1693.63	2596.84
1692.79	2533.58
1691.95	2697.64
1691.12	2607.47
1690.28	2583.11
1689.45	2585.66
1688.61	2725.69
1687.77	2632.59
1686.94	2569.4
1686.1	2652.6
1685.26	2631.24
1684.42	2639.75
1683.59	2621.39
1682.75	2617.96
1681.91	2641.39
1681.07	2661.83
1680.24	2679.28
1679.4	2738.48
1678.56	2654.5
1677.72	2722.64
1676.88	2665.53
1676.04	2700.84
1675.21	2724.23
1674.37	2750.58
1673.53	2717.34
1672.69	2704.96
1671.85	2680.67
1671.01	2608.74
1670.17	2697.62
1669.33	2777.54
1668.49	2833.62
1667.65	2821.23
1666.81	2677.93
1665.97	2707.22
1665.13	2757.33
1664.29	2715.22
1663.45	2753.41
1662.61	2702.4
1661.77	2752.47
1660.92	2787.67
1660.08	2757.48
1659.24	2843.16
1658.4	2714.95
1657.56	2851.1
1656.72	2865.46
1655.87	2793.72
1655.03	2796.21
1654.19	2804.64
1653.35	2691.4
1652.5	2791.81
1651.66	2874.39
1650.82	2787.89
1649.98	2873.41
1649.13	2825.48
1648.29	2786.46
1647.45	2833.41
1646.6	2892.19
1645.76	2832.44
1644.91	2870.47
1644.07	2790.01
1643.23	2857.64
1642.38	2889.72
1641.54	2803.38
1640.69	2989.37
1639.85	2858.65
1639	2887.75
1638.16	2881.34
1637.31	2951.83
1636.47	2909.92
1635.62	2938.99
1634.78	2956.23
1633.93	2920.25
1633.08	2943.4
1632.24	2963.58
1631.39	2844.9
1630.55	2885.77
1629.7	2941.38
1628.85	2881.83
1628.01	3076.18
1627.16	2984.15
1626.31	2930.52
1625.46	2950.67
1624.62	3015.07
1623.77	3047
1622.92	3011.09
1622.07	3010.57
1621.23	3071.97
1620.38	3121.55
1619.53	3147.54
1618.68	3091.02
1617.83	3329.12
1616.98	3266.7
1616.13	3672.56
1615.29	3727.88
1614.44	3721.36
1613.59	3906.17
1612.74	3934.93
1611.89	3990.16
1611.04	3707.04
1610.19	3800.53
1609.34	3629.3
1608.49	3575.75
1607.64	3545.73
1606.79	3298.2
1605.94	3312.33
1605.09	3220.67
1604.24	3249.5
1603.38	3181.38
1602.53	3198.45
1601.68	3109.81
1600.83	3170.93
1599.98	3164.52
1599.13	3125.82
1598.27	3186.91
1597.42	3077.8
1596.57	3033.27
1595.72	3109.01
1594.87	3067.42
1594.01	3192.97
1593.16	3034.12
1592.31	2969.12
1591.45	3088.76
1590.6	3058.93
1589.75	3169.73
1588.89	3136.97
1588.04	3019.29
1587.19	3179.81
1586.33	3070.95
1585.48	3064.57
1584.62	3163.54
1583.77	3148.37
1582.92	3118.57
1582.06	3164.84
1581.21	3070.71
1580.35	3084.8
1579.5	3136.9
1578.64	3089.59
1577.78	3118.28
1576.93	3135.28
1576.07	3213.62
1575.22	3178.02
1574.36	3130.74
1573.51	3226.56
1572.65	3112.15
1571.79	3129.13
1570.94	3163.61
1570.08	3136.81
1569.22	3115.85
1568.37	3179.48
1567.51	3181.85
1566.65	3146.32
1565.79	3174.93
1564.94	3072.36
1564.08	3150.52
1563.22	3077.13
1562.36	3123.22
1561.5	3140.16
1560.65	3218.26
1559.79	3171.11
1558.93	3150.18
1558.07	3236.97
1557.21	3233.5
1556.35	3151.47
1555.49	3194.57
1554.63	3188.2
1553.77	3251.64
1552.91	3175.47
1552.05	3262.15
1551.19	3148.22
1550.33	3223.24
1549.47	3228.5
1548.61	3236.66
1547.75	3209.96
1546.89	3296.54
1546.03	3194.33
1545.17	3304.11
1544.31	3262.9
1543.45	3323.29
1542.58	3253.08
1541.72	3325.05
1540.86	3283.87
1540	3280.4
1539.14	3274.03
1538.28	3209.68
1537.41	3272.91
1536.55	3324.51
1535.69	3263.08
1534.82	3195.88
1533.96	3331.49
1533.1	3394.63
1532.24	3301.38
1531.37	3390.57
1530.51	3285.77
1529.64	3366.24
1528.78	3391.71
1527.92	3249.35
1527.05	3243
1526.19	3320.54
1525.32	3343.1
1524.46	3215.3
1523.59	3310.15
1522.73	3387.62
1521.86	3306.11
1521	3346
1520.13	3232.75
1519.27	3336.18
1518.4	3295.17
1517.54	3320.59
1516.67	3461.48
1515.8	3253.05
1514.94	3414.11
1514.07	3350.04
1513.21	3239.83
1512.34	3346
1511.47	3414.63
1510.6	3382.33
1509.74	3404.81
1508.87	3366.75
1508	3481.44
1507.14	3428.98
1506.27	3385.17
1505.4	3439.31
1504.53	3458.88
1503.66	3386.3
1502.8	3515.27
1501.93	3482.99
1501.06	3491.03
1500.19	3432.87
1499.32	3532.98
1498.45	3532.37
1497.58	3511.62
1496.71	3479.39
1495.84	3527.66
1494.97	3541.42
1494.1	3520.69
1493.23	3525.83
1492.36	3597.05
1491.49	3424.07
1490.62	3434.97
1489.75	3445.86
1488.88	3597.43
1488.01	3530.79
1487.14	3504.34
1486.27	3592.7
1485.4	3537.56
1484.52	3562.77
1483.65	3699.82
1482.78	3501.32
1481.91	3669.87
1481.04	3560.3
1480.17	3634.2
1479.29	3622.11
1478.42	3544.13
1477.55	3646.64
1476.67	3583
1475.8	3648.24
1474.93	3656.2
1474.06	3595.45
1473.18	3689.28
1472.31	3611.38
1471.43	3742.36
1470.56	3756.02
1469.69	3683.86
1468.81	3583.14
1467.94	3711.18
1467.06	3744.84
1466.19	3824.22
1465.31	3826.42
1464.44	3797.18
1463.56	3907.93
1462.69	3798.72
1461.81	3749.52
1460.94	3954.44
1460.06	3890.95
1459.19	3810.36
1458.31	3903.87
1457.43	3914.61
1456.56	3896.81
1455.68	3879.02
1454.8	3929.68
1453.93	3991.73
1453.05	3916.92
1452.17	3779.43
1451.3	3921.26
1450.42	3883.54
1449.54	3931.29
1448.66	3867.95
1447.78	3918.54
1446.91	3983.35
1446.03	4019.66
1445.15	3888.04
1444.27	4032.5
1443.39	4006.19
1442.51	3948.6
1441.64	4073.06
1440.76	4194.64
1439.88	4111.46
1439	4119.27
1438.12	3984.97
1437.24	4061
1436.36	3977.9
1435.48	3988.57
1434.6	4007.76
1433.72	4126.34
1432.84	4151.18
1431.96	4124.91
1431.08	4050.39
1430.2	4262.53
1429.31	4091.55
1428.43	4215.66
1427.55	4039.07
1426.67	4338.98
1425.79	4213.46
1424.91	4164.54
1424.02	4237.51
1423.14	4188.6
1422.26	4102.86
1421.38	4238.13
1420.49	4285.55
1419.61	4225.33
1418.73	4306.71
1417.85	4164.41
1416.96	4146.7
1416.08	4346.92
1415.2	4298.06
1414.31	4285.99
1413.43	4239.99
1412.54	4276.02
1411.66	4323.34
1410.78	4237.78
1409.89	4426.42
1409.01	4428.48
1408.12	4455.96
1407.24	4299.81
1406.35	4284.94
1405.47	4371.74
1404.58	4351.21
1403.7	4406.92
1402.81	4535.99
1401.92	4317.9
1401.04	4353.83
1400.15	4381.28
1399.27	4307.18
1398.38	4436.16
1397.49	4395.91
1396.61	4476.9
1395.72	4431.02
1394.83	4323.16
1393.94	4333.68
1393.06	4524.49
1392.17	4464.55
1391.28	4384.92
1390.39	4347.55
1389.51	4358.06
1388.62	4379.81
1387.73	4440.97
1386.84	4473.96
1385.95	4475.99
1385.06	4373.95
1384.17	4398.5
1383.29	4425.85
1382.4	4441.95
1381.51	4382.14
1380.62	4364.52
1379.73	4439.62
1378.84	4306.81
1377.95	4418.41
1377.06	4350.24
1376.17	4473.03
1375.28	4228
1374.39	4300.24
1373.5	4484.72
1372.6	4455.88
1371.71	4359.71
1370.82	4401.03
1369.93	4431.11
1369.04	4405.1
1368.15	4440.78
1367.26	4409.17
1366.36	4371.97
1365.47	4365.6
1364.58	4202.35
1363.69	4324.86
1362.79	4198.08
1361.9	4340.15
1361.01	4235.81
1360.11	4240.67
1359.22	4391.05
1358.33	4219.6
1357.43	4232.85
1356.54	4192.95
1355.65	4228.57
1354.75	4157.93
1353.86	4081.72
1352.96	4307.42
1352.07	4013.22
1351.17	4124.29
1350.28	4140.33
1349.39	4053.01
1348.49	3935.01
1347.59	4029.26
1346.7	3914.09
1345.8	3885.49
1344.91	3957.38
1344.01	3875.77
1343.12	3813.71
1342.22	4008.3
1341.32	3898.83
1340.43	3889.78
1339.53	3928.13
1338.63	3768.57
1337.74	3912.83
1336.84	3758.89
1335.94	3777.73
1335.04	3779.86
1334.15	3670.58
1333.25	3728.41
1332.35	3624.75
1331.45	3741.03
1330.55	3720.89
1329.66	3678.5
1328.76	3586.05
1327.86	3527.01
1326.96	3609.82
1326.06	3467.38
1325.16	3433.41
1324.26	3407.8
1323.36	3429.43
1322.46	3551.09
1321.56	3603.25
1320.66	3447.07
1319.76	3399.26
1318.86	3340.35
1317.96	3403.62
1317.06	3422.45
1316.16	3352.47
1315.26	3243.67
1314.36	3320.78
1313.46	3375.67
1312.55	3336.26
1311.65	3319.04
1310.75	3340.63
1309.85	3326.19
1308.95	3225.84
1308.04	3361.04
1307.14	3202.54
1306.24	3268.46
1305.34	3231.88
1304.43	3236.85
1303.53	3219.67
1302.63	3260.63
1301.72	3132.75
1300.82	3126.67
1299.92	3203.58
1299.01	3297.07
1298.11	3213.52
1297.21	3127.24
1296.3	3157.1
1295.4	3120.62
1294.49	3158.76
1293.59	3172.02
1292.68	3207.38
1291.78	3135
1290.87	3217.3
1289.97	3180.84
1289.06	3138.87
1288.16	3176.96
1287.25	3201.24
1286.34	3167.57
1285.44	3073.21
1284.53	3136.11
1283.62	3099.71
1282.72	3060.57
1281.81	3151
1280.9	3059.49
1280	3009.35
1279.09	3083.21
1278.18	3000.03
1277.27	2883.82
1276.37	3100.86
1275.46	2924.1
1274.55	2967.64
1273.64	3013.9
1272.73	2969.34
1271.82	3037.61
1270.92	3006.81
1270.01	2951.27
1269.1	2948.01
1268.19	2966.73
1267.28	2798.52
1266.37	2872.24
1265.46	2882.73
1264.55	2917.94
1263.64	2793.81
1262.73	2883.95
1261.82	2894.43
1260.91	2844.5
1260	2756.15
1259.09	2958.77
1258.18	2862.21
1257.27	2886.4
1256.35	2844.74
1255.44	2665.96
1254.53	2816.31
1253.62	2777.43
1252.71	2842.74
1251.79	2691.49
1250.88	2795.15
1249.97	2745.34
1249.06	2701.03
1248.14	2774.5
1247.23	2749.37
1246.32	2680.43
1245.41	2882.53
1244.49	2671.28
1243.58	2684.49
1242.66	2733.26
1241.75	2637.04
1240.84	2691.28
1239.92	2745.49
1239.01	2775.08
1238.09	2665.25
1237.18	2634.72
1236.26	2831
1235.35	2751.27
1234.43	2666.1
1233.52	2747.57
1232.6	2618.74
1231.69	2653.77
1230.77	2664.22
1229.86	2671.94
1228.94	2578.69
1228.02	2711.92
1227.11	2648.7
1226.19	2650.96
1225.27	2639.59
1224.36	2598.23
1223.44	2518.72
1222.52	2624.57
1221.6	2558.7
1220.69	2656.33
1219.77	2536.01
1218.85	2595.48
1217.93	2608.63
1217.01	2613.62
1216.1	2596.83
1215.18	2667.13
1214.26	2582.3
1213.34	2628.1
1212.42	2614.03
1211.5	2570.06
1210.58	2632.14
1209.66	2599.05
1208.74	2623.06
1207.82	2579.11
1206.9	2464.53
1205.98	2469.53
1205.06	2534.28
1204.14	2604.45
1203.22	2457.36
1202.3	2538.37
1201.38	2551.49
1200.46	2583.61
1199.54	2499.04
1198.61	2419.92
1197.69	2538.84
1196.77	2668.57
1195.85	2451.18
1194.93	2526.65
1194	2561.44
1193.08	2536.6
1192.16	2449.44
1191.24	2570.92
1190.31	2556.92
1189.39	2588.96
1188.47	2523.52
1187.54	2550.15
1186.62	2552.4
1185.7	2465.35
1184.77	2589.38
1183.85	2564.57
1182.92	2564.12
1182	2506.88
1181.07	2468.58
1180.15	2562.76
1179.23	2567.71
1178.3	2540.23
1177.37	2593.82
1176.45	2477.2
1175.52	2536.18
1174.6	2589.74
1173.67	2578.48
1172.75	2453.85
1171.82	2480.4
1170.89	2523.14
1169.97	2447.15
1169.04	2435.93
1168.11	2430.1
1167.19	2478.21
1166.26	2386.1
1165.33	2409.94
1164.4	2468.8
1163.48	2460.28
1162.55	2392.49
1161.62	2402.84
1160.69	2429.35
1159.76	2399.3
1158.83	2361.18
1157.91	2403.83
1156.98	2293.06
1156.05	2343.78
1155.12	2394.48
1154.19	2340.26
1153.26	2345.22
1152.33	2374.38
1151.4	2363.21
1150.47	2376.23
1149.54	2367.74
1148.61	2300.15
1147.68	2383.02
1146.75	2347.68
1145.82	2454.69
1144.89	2432.77
1143.96	2316.9
1143.02	2308.43
1142.09	2391.22
1141.16	2406.9
1140.23	2414.52
1139.3	2282.65
1138.36	2301.02
1137.43	2346.2
1136.5	2367.23
1135.57	2353.4
1134.63	2393.18
1133.7	2296.3
1132.77	2336.08
1131.83	2429.41
1130.9	2399.52
1129.97	2433.9
1129.03	2393.31
1128.1	2360.77
1127.17	2338.94
1126.23	2466.95
1125.3	2418.36
1124.36	2466.08
1123.43	2409.48
1122.49	2403.7
1121.56	2430.01
1120.62	2501.74
1119.69	2463.88
1118.75	2369.93
1117.81	2377.52
1116.88	2417.16
1115.94	2392.7
1115.01	2499.07
1114.07	2293.08
1113.13	2415.44
1112.2	2337.63
1111.26	2363.89
1110.32	2427.49
1109.38	2392.39
1108.45	2341.3
1107.51	2418.2
1106.57	2359.12
1105.63	2435.99
1104.69	2323.64
1103.76	2395.16
1102.82	2258.88
1101.88	2306.42
1100.94	2348.61
1100	2310.92
1099.06	2374.4
1098.12	2283.49
1097.18	2291.06
1096.24	2280.01
1095.3	2375.37
1094.36	2289.84
1093.42	2305.38
1092.48	2254.46
1091.54	2230.14
1090.6	2203.16
1089.66	2372.83
1088.72	2226.29
1087.78	2175.42
1086.84	2220.18
1085.9	2140.13
1084.95	2240.63
1084.01	2213.69
1083.07	2200.02
1082.13	2215.55
1081.19	2138.22
1080.24	2169.67
1079.3	2224.97
1078.36	2168.89
1077.41	2314.31
1076.47	2221.13
1075.53	2151.83
1074.58	2170
1073.64	2159.01
1072.7	2370.52
1071.75	2205.91
1070.81	2163.15
1069.86	2205.12
1068.92	2217.96
1067.98	2101.13
1067.03	2153.67
1066.09	2153.28
1065.14	2158.19
1064.19	2210.69
1063.25	2144.2
1062.3	2194.04
1061.36	2138.15
1060.41	2148.34
1059.46	2140.03
1058.52	2189.83
1057.57	2221.13
1056.63	2101.91
1055.68	2138.5
1054.73	2130.2
1053.78	2124.54
1052.84	2155.82
1051.89	2242.5
1050.94	2176.15
1049.99	2207.41
1049.05	2220.2
1048.1	2156.53
1047.15	2206.23
1046.2	2187.38
1045.25	2068.42
1044.3	2215.58
1043.35	2175.67
1042.4	2088.38
1041.45	2148.57
1040.5	2264.01
1039.55	2137.27
1038.6	2121.1
1037.65	2147.03
1036.7	2167.69
1035.75	2141
1034.8	2145.88
1033.85	2184.93
1032.9	2176.65
1031.95	2213.06
1031	2210.04
1030.05	2180.74
1029.1	2151.45
1028.14	2177.33
1027.19	2069.28
1026.24	2129.29
1025.29	2176.16
1024.33	2104.91
1023.38	2193.75
1022.43	2198.6
1021.48	2219.2
1020.52	2166.34
1019.57	2186.93
1018.62	2147.22
1017.66	2149.45
1016.71	2073.06
1015.75	2198.47
1014.8	2164.02
1013.85	2090.28
1012.89	2087.29
1011.94	2105.25
1010.98	2078.69
1010.03	2148.99
1009.07	2070.09
1008.12	2093.27
1007.16	2179.23
1006.2	2095.13
1005.25	2173.21
1004.29	2240.81
1003.34	2088.78
1002.38	2213.86
1001.42	2129.84
1000.47	2179.1
999.508	2186.55
998.551	2152.2
997.594	2172.71
996.636	2135.76
995.679	2174.54
994.721	2189.81
993.763	2186.8
992.805	2071.61
991.846	2131.24
990.888	2201.28
989.929	2133.08
988.97	2122.27
988.011	2166.2
987.052	2238.79
986.093	2264.44
985.133	2167.64
984.173	2135.99
983.213	2135.61
982.253	2143.04
981.293	2119.22
980.333	2056.37
979.372	2240.78
978.411	2136.29
977.45	2156.72
976.489	2187.55
975.528	2163.75
974.566	2194.56
973.605	2162.97
972.643	2141.79
971.681	2042.65
970.719	2151.41
969.756	2156.22
968.794	2111.67
967.831	2207.38
966.868	2110.91
965.905	2159.86
964.942	2123.13
963.979	2081.23
963.015	2166.48
962.052	2124.58
961.088	2144.95
960.124	2287.19
959.159	2141.58
958.195	2125.64
957.23	2161.55
956.266	2197.43
955.301	2147.81
954.336	2170.74
953.37	2097.83
952.405	2294.25
951.439	2117.79
950.473	2078.58
949.507	2142.9
948.541	2080.42
947.575	2144.72
946.608	2118.47
945.642	2203.43
944.675	2179.76
943.708	2205.22
942.741	2140.2
941.773	2194.09
940.806	2111.01
939.838	2167.46
938.87	2205.82
937.902	2205.42
936.934	2223.09
935.965	2230.44
934.997	2188.74
934.028	2242.54
933.059	2172.47
932.09	2239.15
931.121	2117.52
930.151	2155.82
929.182	2070.35
928.212	2142.15
927.242	2175.27
926.272	2092.42
925.301	2269.81
924.331	2055.6
923.36	2173.7
922.389	2155.29
921.418	2188.37
920.447	2211.14
919.475	2213.31
918.504	2210.34
917.532	2166.2
916.56	2266.13
915.588	2183.42
914.616	2172.74
913.643	2216.06
912.671	2277.34
911.698	2212.69
910.725	2150.62
909.752	2206.75
908.779	2162.68
907.805	2257.31
906.831	2202.98
905.858	2189.75
904.883	2258.65
903.909	2245.41
902.935	2286.06
901.96	2224.08
900.986	2257.02
900.011	2254.05
899.036	2369.01
898.06	2289.12
897.085	2278.46
896.109	2247.29
895.133	2331.43
894.157	2323.33
893.181	2274.25
892.205	2340.41
891.229	2288.78
890.252	2280.69
889.275	2377.53
888.298	2282.42
887.321	2307.59
886.343	2317.41
885.366	2189.12
884.388	2296.11
883.41	2303.37
882.432	2292.73
881.454	2338.31
880.475	2343
879.497	2288.93
878.518	2319.16
877.539	2336.62
876.56	2359.17
875.58	2397.04
874.601	2279.2
873.621	2271.13
872.641	2273.27
871.661	2280.51
870.681	2379.56
869.701	2389.33
868.72	2327.71
867.739	2357.88
866.758	2377.84
865.777	2336.64
864.796	2392.26
863.815	2417.3
862.833	2429.6
861.851	2454.62
860.869	2543.28
859.887	2535.18
858.905	2567.8
857.922	2562.25
856.939	2554.15
855.956	2530.8
854.973	2522.71
853.99	2534.96
853.007	2516.71
852.023	2579.79
851.039	2548.83
850.055	2451.82
849.071	2400.57
848.087	2489.03
847.102	2432.71
846.118	2378.95
845.133	2360.75
844.148	2380.63
843.163	2392.88
842.177	2405.13
841.192	2389.48
840.206	2394.11
839.22	2342.97
838.234	2421.13
837.248	2402.95
836.261	2405.05
835.274	2320.99
834.288	2292.7
833.301	2345.48
832.313	2339.99
831.326	2430.71
830.339	2425.21
829.351	2386.8
828.363	2391.43
827.375	2347.98
826.387	2438.62
825.398	2372.42
824.409	2384.63
823.421	2444.88
822.432	2421.68
821.443	2370.69
820.453	2329.83
819.464	2387.52
818.474	2326.46
817.484	2351.29
816.494	2345.81
815.504	2426.17
814.513	2443.4
813.523	2422.77
812.532	2414.76
811.541	2421.89
810.55	2444.15
809.559	2398.31
808.567	2360.05
807.575	2319.28
806.583	2422.2
805.591	2351.2
804.599	2393.61
803.607	2322.63
802.614	2372.58
801.621	2354.52
800.628	2419.56
799.635	2404.01
798.642	2499.21
797.649	2413.2
796.655	2485.72
795.661	2399.75
794.667	2414.4
793.673	2444.13
792.678	2441.17
791.684	2398
790.689	2457.88
789.694	2464.97
788.699	2462
787.704	2351.04
786.708	2348.1
785.713	2352.69
784.717	2329.67
783.721	2404.54
782.724	2286.16
781.728	2393.63
780.731	2390.68
779.735	2362.66
778.738	2409.87
777.741	2406.92
776.743	2426.54
775.746	2446.15
774.748	2455.72
773.75	2397.65
772.752	2442.3
771.754	2406.79
770.756	2346.26
769.757	2378.38
768.758	2460.54
767.759	2385.02
766.76	2369.57
765.761	2316.6
764.761	2393.71
763.762	2443.29
762.762	2350.33
761.762	2504.9
760.762	2441.95
759.761	2394.03
758.761	2371.1
757.76	2413.14
756.759	2410.2
755.758	2497.16
754.756	2364.38
753.755	2461.3
752.753	2433.39
751.751	2422.97
750.749	2355.16
749.747	2404.62
748.745	2374.25
747.742	2416.21
746.739	2403.3
745.736	2447.73
744.733	2394.95
743.73	2424.41
742.726	2389.09
741.723	2510.7
740.719	2403.16
739.715	2472.43
738.71	2462.02
737.706	2359.52
736.701	2403.89
735.697	2488.04
734.692	2544.8
733.686	2489.61
732.681	2491.65
731.675	2496.16
730.67	2523.05
729.664	2435.6
728.658	2417.76
727.651	2534.08
726.645	2441.71
725.638	2570.41
724.631	2473.1
723.624	2537.19
722.617	2484.6
721.61	2461.81
720.602	2530.84
719.595	2441.07
718.587	2435.66
717.578	2522.01
716.57	2501.71
715.562	2516.12
714.553	2552.84
713.544	2482.99
712.535	2499.87
711.526	2541.53
710.516	2498.96
709.507	2652.02
708.497	2537.65
707.487	2623.82
706.477	2606.02
705.467	2496.67
704.456	2612.48
703.445	2574.9
702.434	2641.2
701.423	2620.94
700.412	2603.15
699.401	2607.62
698.389	2607.14
697.377	2520.18
696.365	2519.72
695.353	2521.73
694.34	2533.61
693.328	2594.87
692.315	2547.49
691.302	2492.73
690.289	2499.67
689.276	2565.82
688.262	2476.55
687.249	2532.82
686.235	2606.33
685.221	2514.63
684.206	2526.5
683.192	2558.07
682.177	2572.38
681.162	2611.33
680.147	2593.6
679.132	2630.07
678.117	2560.64
677.101	2661.1
676.086	2623.69
675.07	2610.91
674.054	2553.84
673.037	2563.21
672.021	2481.58
671.004	2596.69
669.987	2542.13
668.97	2642.44
667.953	2585.43
666.936	2577.58
665.918	2496.04
664.9	2625.76
663.882	2581.07
662.864	2641.98
661.846	2548.21
660.827	2572.28
659.808	2657.7
658.789	2586.06
657.77	2590.49
656.751	2695.47
655.731	2717.05
654.712	2623.38
653.692	2502.78
652.672	2575.85
651.652	2604.78
650.631	2636.15
649.611	2662.61
648.59	2684.16
647.569	2681.22
646.548	2670.93
645.526	2604.35
644.505	2559.82
643.483	2581.37
642.461	2715.44
641.439	2658.69
640.417	2760.9
639.394	2594.14
638.371	2659.66
637.348	2754.49
636.325	2746.65
635.302	2729.04
634.279	2779.84
633.255	2962.49
632.231	2979.04
631.207	3017.55
630.183	2877.86
629.159	2730.9
628.134	2696.24
627.109	2629.87
626.084	2690.37
625.059	2716.69
624.034	2660.11
623.008	2586.49
621.983	2673.76
620.957	2704.94
619.931	2709.32
618.904	2757.53
617.878	2735.11
616.851	2651.81
615.824	2702.45
614.797	2626.49
613.77	2652.77
612.743	2683.92
611.715	2617.73
610.687	2680.49
609.659	2653.24
608.631	2640.6
607.603	2666.85
606.574	2663.93
605.546	2714.47
604.517	2641.08
603.487	2788.77
602.458	2657.1
601.429	2773.17
600.399	2719.24
599.369	2735.73
598.339	2754.64
597.309	2775.97
596.278	2702.68
595.248	2670.64
594.217	2733.2
593.186	2725.42
592.155	2603.7
591.123	2768.05
590.091	2706.95
589.06	2706.45
588.028	2662.34
586.996	2678.8
585.963	2736.43
584.931	2789.19
583.898	2776.57
582.865	2788.15
581.832	2712.62
580.798	2714.54
579.765	2767.25
578.731	2643.4
577.697	2710.61
576.663	2717.36
575.629	2753.12
574.594	2771.94
573.56	2686.86
572.525	2679.11
571.49	2714.85
570.455	2709.52
569.419	2689.7
568.384	2732.65
567.348	2671.81
566.312	2688.2
565.276	2670.82
564.239	2663.08
563.203	2768.71
562.166	2770.61
561.129	2837.6
560.092	2844.3
559.054	2771.47
558.017	2785.42
556.979	2919.81
555.941	2801.25
554.903	2714.03
553.865	2706.3
552.826	2770.8
551.787	2741.4
550.749	2733.67
549.709	2675.42
548.67	2653.28
547.631	2724.94
546.591	2673.94
545.551	2695.08
544.511	2696.98
543.471	2691.67
542.43	2720.01
541.39	2753.14
540.349	2740.61
539.308	2752.11
538.267	2811.63
537.225	2767.89
536.184	2764.98
535.142	2793.26
534.1	2783.15
533.058	2729.86
532.015	2657.4
530.973	2707.26
529.93	2733.13
528.887	2631.95
527.844	2619.47
526.801	2650.14
525.757	2656.83
524.713	2610.83
523.669	2675
522.625	2844.5
521.581	2645.28
520.537	2809.94
519.492	2756.77
518.447	2753.86
517.402	2839.47
516.357	2843.72
515.311	2781.02
514.265	2878.53
513.22	2710.67
512.174	2664.75
511.127	2623.64
510.081	2563.42
509.034	2553.39
507.987	2524.26
506.94	2573.93
505.893	2559.13
504.846	2525.24
503.798	2570.11
502.75	2629.28
501.702	2686.04
500.654	2730.85
499.606	2749.42
