3200.54	50.5175
3199.95	58.9371
3199.35	37.8824
3198.76	58.9193
3198.16	37.8709
3197.57	58.9015
3196.98	37.8595
3196.38	42.0597
3195.79	71.4908
3195.19	46.2517
3194.6	71.4691
3194	75.6618
3193.41	67.2447
3192.81	33.6173
3192.22	71.4259
3191.62	29.4062
3191.03	75.6046
3190.43	71.3935
3189.84	58.7858
3189.24	50.3802
3188.65	71.3611
3188.05	50.3649
3187.45	67.1431
3186.86	75.5246
3186.26	41.9517
3185.67	67.1126
3185.07	41.9391
3184.47	50.3192
3183.88	79.6601
3183.28	50.304
3182.69	46.105
3182.09	58.6703
3181.49	62.8515
3180.9	50.2736
3180.3	4.18883
3179.7	71.1993
3179.1	50.2507
3178.51	87.9255
3177.91	62.7944
3177.31	66.9706
3176.72	71.1455
3176.12	75.3191
3175.52	62.7564
3174.92	46.0144
3174.33	75.2849
3173.73	54.3642
3173.13	58.5372
3172.53	58.5283
3171.93	62.6994
3171.34	58.5106
3170.74	91.9313
3170.14	79.3832
3169.54	66.8388
3168.94	54.2983
3168.34	75.1709
3167.74	70.984
3167.15	70.9732
3166.55	45.9169
3165.95	66.7781
3165.35	41.73
3164.75	54.2408
3164.15	95.9499
3163.55	75.0798
3162.95	70.898
3162.35	62.5476
3161.75	41.6921
3161.15	62.5286
3160.55	45.8474
3159.95	83.3462
3159.35	66.6668
3158.75	33.3284
3158.15	54.1504
3157.55	58.307
3156.95	62.4623
3156.35	45.7987
3155.75	49.9547
3155.15	66.5961
3154.55	62.4244
3153.95	79.0589
3153.35	41.6036
3152.75	37.4376
3152.15	87.3411
3151.54	66.5355
3150.94	99.7882
3150.34	70.6726
3149.74	66.5053
3149.14	78.963
3148.54	54.0191
3147.94	95.5578
3147.33	49.8487
3146.73	62.3014
3146.13	87.2087
3145.53	53.9781
3144.93	70.5761
3144.32	70.5654
3143.72	58.1038
3143.12	41.4964
3142.52	82.9803
3141.91	58.0774
3141.31	78.8073
3140.71	82.9425
3140.1	70.4904
3139.5	70.4797
3138.9	103.631
3138.29	62.1691
3137.69	91.1675
3137.09	78.7236
3136.48	86.9971
3135.88	70.4155
3135.28	66.2634
3134.67	91.0983
3134.07	66.2432
3133.47	111.768
3132.86	82.7789
3132.26	86.9046
3131.65	53.7899
3131.05	62.0559
3130.45	95.1379
3129.84	57.9012
3129.24	74.4331
3128.63	78.5563
3128.03	70.2766
3127.42	74.3992
3126.82	90.9185
3126.21	78.5086
3125.61	70.2338
3125	103.269
3124.4	99.1235
3123.79	57.8133
3123.19	70.1911
3122.58	82.5652
3121.97	94.9356
3121.37	90.7942
3120.76	103.159
3120.16	57.7605
3119.55	103.128
3118.94	61.8675
3118.34	107.221
3117.73	86.5881
3117.13	107.188
3116.52	37.0979
3115.91	98.9127
3115.31	94.7769
3114.7	90.6424
3114.09	90.6286
3113.48	86.4959
3112.88	86.4828
3112.27	94.7048
3111.66	86.4564
3111.06	107.025
3110.45	86.4301
3109.84	53.4962
3109.23	86.4038
3108.63	94.6183
3108.02	111.057
3107.41	127.49
3106.8	74.0153
3106.19	65.7814
3105.59	90.4356
3104.98	106.862
3104.37	110.955
3103.76	90.3943
3103.15	123.246
3102.54	94.4744
3101.93	86.2461
3101.33	57.4886
3100.72	82.1141
3100.11	119.047
3099.5	77.9846
3098.89	114.907
3098.28	118.993
3097.67	61.5387
3097.06	106.651
3096.45	118.939
3095.84	110.719
3095.23	86.1017
3094.62	81.9891
3094.01	98.3719
3093.4	90.1605
3092.79	94.2444
3092.18	94.23
3091.57	73.734
3090.96	81.9141
3090.35	126.948
3089.74	139.212
3089.13	110.534
3088.52	135.076
3087.91	122.778
3087.3	110.483
3086.69	135.014
3086.08	106.359
3085.46	126.793
3084.85	130.863
3084.24	102.221
3083.63	134.911
3083.02	163.504
3082.41	167.566
3081.79	155.281
3081.18	126.657
3080.57	147.064
3079.96	187.886
3079.35	204.193
3078.73	200.078
3078.12	159.222
3077.51	179.607
3076.9	179.58
3076.28	155.068
3075.67	126.484
3075.06	191.736
3074.45	154.997
3073.83	163.13
3073.22	171.26
3072.61	146.772
3071.99	146.75
3071.38	167.106
3070.77	146.705
3070.15	154.832
3069.54	134.439
3068.93	146.638
3068.31	138.47
3067.7	138.449
3067.08	146.571
3066.47	93.628
3065.86	146.526
3065.24	109.878
3064.63	158.688
3064.01	170.869
3063.4	126.098
3062.78	122.012
3062.17	109.794
3061.55	117.909
3060.94	81.3038
3060.32	134.131
3059.71	142.238
3059.09	130.026
3058.48	125.944
3057.86	109.676
3057.25	121.844
3056.63	69.0344
3056.02	142.108
3055.4	121.788
3054.78	121.769
3054.17	85.2256
3053.55	146.079
3052.94	129.828
3052.32	137.921
3051.7	141.956
3051.09	145.989
3050.47	145.967
3049.85	109.459
3049.24	101.335
3048.62	101.32
3048	109.408
3047.39	101.289
3046.77	129.629
3046.15	89.1066
3045.53	121.49
3044.92	109.325
3044.3	121.453
3043.68	89.0521
3043.06	117.369
3042.45	105.211
3041.83	109.241
3041.21	109.224
3040.59	109.208
3039.97	97.0586
3039.35	109.174
3038.74	129.372
3038.12	121.268
3037.5	109.124
3036.88	101.025
3036.26	101.01
3035.64	96.9546
3035.02	100.979
3034.41	153.465
3033.79	100.948
3033.17	117.082
3032.55	137.247
3031.93	137.226
3031.31	161.418
3030.69	117.01
3030.07	116.992
3029.45	108.907
3028.83	149.22
3028.21	72.5825
3027.59	124.984
3026.97	100.778
3026.35	145.098
3025.73	161.196
3025.11	132.966
3024.49	128.917
3023.87	112.785
3023.25	132.905
3022.63	80.536
3022	132.864
3021.38	140.895
3020.76	120.749
3020.14	120.73
3019.52	132.783
3018.9	140.808
3018.28	140.787
3017.66	120.656
3017.03	112.595
3016.41	124.64
3015.79	124.621
3015.17	140.679
3014.55	128.601
3013.92	148.672
3013.3	128.562
3012.68	128.542
3012.06	148.604
3011.43	140.55
3010.81	116.438
3010.19	128.463
3009.57	132.457
3008.94	124.41
3008.32	136.429
3007.7	164.492
3007.07	132.376
3006.45	136.366
3005.83	116.295
3005.2	156.372
3004.58	144.321
3003.96	160.333
3003.33	192.37
3002.71	160.283
3002.08	140.226
3001.46	152.222
3000.84	188.246
3000.21	160.185
2999.59	164.164
2998.96	156.132
2998.34	164.114
2997.71	148.08
2997.09	176.068
2996.46	156.037
2995.84	160.013
2995.21	167.988
2994.59	167.962
2993.96	135.948
2993.34	131.93
2992.71	179.876
2992.09	139.882
2991.46	203.797
2990.84	163.812
2990.21	175.771
2989.58	151.779
2988.96	151.756
2988.33	151.732
2987.71	187.64
2987.08	151.686
2986.45	167.627
2985.83	183.563
2985.2	211.464
2984.57	167.549
2983.95	163.535
2983.32	143.57
2982.69	155.51
2982.07	163.46
2981.44	147.49
2980.81	171.381
2980.18	171.354
2979.56	183.281
2978.93	151.383
2978.3	175.258
2977.67	159.301
2977.05	183.168
2976.42	167.215
2975.79	183.112
2975.16	183.084
2974.53	175.097
2973.91	163.133
2973.28	186.977
2972.65	175.016
2972.02	194.874
2971.39	198.82
2970.76	170.959
2970.13	198.759
2969.5	210.652
2968.88	210.62
2968.25	210.587
2967.62	226.446
2966.99	222.439
2966.36	210.49
2965.73	182.662
2965.1	226.307
2964.47	238.181
2963.84	206.392
2963.21	230.171
2962.58	186.489
2961.95	170.591
2961.32	214.198
2960.69	230.029
2960.06	206.201
2959.43	186.345
2958.8	225.958
2958.17	202.142
2957.53	225.889
2956.9	206.042
2956.27	206.01
2955.64	233.707
2955.01	178.223
2954.38	182.156
2953.75	162.331
2953.12	190.017
2952.48	205.82
2951.85	253.278
2951.22	201.8
2950.59	174.075
2949.96	185.915
2949.33	221.482
2948.69	193.767
2948.06	170.014
2947.43	193.707
2946.8	201.582
2946.16	201.551
2945.53	213.374
2944.9	205.44
2944.26	197.508
2943.63	193.528
2943	181.651
2942.37	177.675
2941.73	217.124
2941.1	165.779
2940.47	197.325
2939.83	220.97
2939.2	220.936
2938.56	193.289
2937.93	161.707
2937.3	205.06
2936.66	149.828
2936.03	173.458
2935.39	173.432
2934.76	185.228
2934.13	193.08
2933.49	157.592
2932.86	216.656
2932.22	173.298
2931.59	181.147
2930.95	196.869
2930.32	216.522
2929.68	220.425
2929.05	145.615
2928.41	196.747
2927.78	200.651
2927.14	173.084
2926.5	232.054
2925.87	157.3
2925.23	192.663
2924.6	216.221
2923.96	165.089
2923.32	196.504
2922.69	208.262
2922.05	220.017
2921.42	219.983
2920.78	188.527
2920.14	212.061
2919.51	192.396
2918.87	172.737
2918.23	219.813
2917.6	156.985
2916.96	231.517
2916.32	211.864
2915.68	219.677
2915.05	164.732
2914.41	196.079
2913.77	207.812
2913.13	219.541
2912.5	195.989
2911.86	211.635
2911.22	219.439
2910.58	227.241
2909.94	188.033
2909.31	215.421
2908.67	215.387
2908.03	207.523
2907.39	230.981
2906.75	227.031
2906.11	219.168
2905.47	219.134
2904.83	203.45
2904.2	195.595
2903.56	222.944
2902.92	211.177
2902.28	215.055
2901.64	218.931
2901	191.535
2900.36	203.23
2899.72	187.568
2899.08	207.074
2898.44	203.136
2897.8	234.351
2897.16	195.262
2896.52	203.041
2895.88	234.242
2895.24	206.882
2894.6	175.627
2893.96	234.133
2893.32	202.884
2892.67	218.457
2892.03	249.626
2891.39	206.69
2890.75	202.758
2890.11	210.524
2889.47	210.492
2888.83	233.843
2888.19	190.943
2887.54	218.186
2886.9	214.257
2886.26	206.434
2885.62	218.085
2884.98	245.307
2884.33	206.338
2883.69	237.446
2883.05	214.058
2882.41	237.373
2881.77	221.773
2881.12	217.848
2880.48	248.931
2879.84	178.891
2879.19	209.97
2878.55	225.489
2877.91	225.454
2877.26	240.965
2876.62	209.84
2875.98	244.776
2875.33	209.775
2874.69	233.047
2874.05	209.71
2873.4	287.336
2872.76	271.762
2872.11	232.903
2871.47	213.461
2870.83	228.95
2870.18	232.795
2869.54	252.155
2868.89	224.965
2868.25	248.199
2867.6	213.263
2866.96	224.86
2866.31	244.207
2865.67	232.542
2865.02	263.506
2864.38	236.344
2863.73	228.56
2863.09	193.665
2862.44	220.743
2861.8	224.581
2861.15	267.133
2860.5	239.995
2859.86	239.958
2859.21	228.311
2858.57	259.229
2857.92	243.714
2857.27	282.355
2856.63	251.373
2855.98	239.734
2855.33	259.027
2854.69	274.449
2854.04	274.407
2853.39	247.314
2852.75	204.775
2852.1	251.1
2851.45	258.786
2850.81	254.884
2850.16	270.29
2849.51	212.337
2848.86	243.185
2848.21	258.585
2847.57	227.674
2846.92	212.205
2846.27	277.753
2845.62	227.568
2844.97	258.384
2844.33	254.488
2843.68	246.738
2843.03	254.409
2842.38	242.807
2841.73	235.063
2841.08	258.143
2840.43	219.58
2839.78	227.25
2839.14	273.427
2838.49	292.637
2837.84	254.093
2837.19	288.697
2836.54	280.955
2835.89	238.582
2835.24	280.867
2834.59	269.283
2833.94	242.317
2833.29	207.668
2832.64	215.326
2831.99	246.048
2831.34	222.947
2830.69	234.442
2830.04	284.361
2829.39	292.001
2828.74	245.857
2828.08	299.592
2827.43	211.218
2826.78	253.422
2826.13	268.739
2825.48	261.02
2824.83	245.627
2824.18	253.264
2823.53	241.714
2822.87	268.53
2822.22	230.132
2821.57	283.786
2820.92	264.57
2820.27	283.697
2819.61	283.653
2818.96	245.283
2818.31	283.565
2817.66	279.689
2817	237.507
2816.35	291.093
2815.7	314.025
2815.05	256.541
2814.39	260.33
2813.74	256.461
2813.09	256.421
2812.43	271.688
2811.78	283.123
2811.13	244.825
2810.47	275.385
2809.82	290.639
2809.16	321.183
2808.51	282.903
2807.86	263.747
2807.2	271.349
2806.55	286.592
2805.89	286.547
2805.24	320.883
2804.58	271.18
2803.93	274.956
2803.28	332.187
2802.62	328.318
2801.97	274.828
2801.31	278.601
2800.66	297.637
2800	274.699
2799.34	286.1
2798.69	278.428
2798.03	259.317
2797.38	285.966
2796.72	297.359
2796.07	266.819
2795.41	304.888
2794.75	316.272
2794.1	293.363
2793.44	293.317
2792.79	289.463
2792.13	293.226
2791.47	285.565
2790.82	281.714
2790.16	289.282
2789.5	289.237
2788.84	277.776
2788.19	281.538
2787.53	266.278
2786.87	315.68
2786.22	300.42
2785.56	300.373
2784.9	307.929
2784.24	304.08
2783.59	342.037
2782.93	258.387
2782.27	311.536
2781.61	319.085
2780.95	326.631
2780.29	337.972
2779.64	311.341
2778.98	303.7
2778.32	292.266
2777.66	333.966
2777	292.174
2776.34	318.686
2775.68	303.463
2775.02	314.794
2774.36	307.16
2773.71	326.07
2773.05	367.719
2772.39	325.968
2771.73	329.707
2771.07	371.336
2770.41	314.449
2769.75	318.188
2769.09	318.138
2768.43	333.236
2767.77	355.901
2767.11	272.562
2766.45	348.219
2765.79	302.752
2765.12	291.353
2764.46	317.79
2763.8	302.61
2763.14	313.909
2762.48	344.111
2761.82	298.687
2761.16	355.344
2760.5	355.289
2759.83	302.326
2759.17	362.734
2758.51	309.787
2757.85	324.848
2757.19	279.477
2756.53	298.313
2755.86	343.573
2755.2	324.645
2754.54	347.24
2753.88	290.579
2753.21	332.038
2752.55	339.532
2751.89	365.882
2751.23	362.054
2750.56	309.206
2749.9	373.251
2749.24	305.339
2748.57	342.982
2747.91	358.002
2747.25	350.41
2746.58	316.45
2745.92	380.434
2745.25	323.883
2744.59	346.425
2743.93	308.722
2743.26	372.667
2742.6	372.608
2741.93	346.208
2741.27	364.966
2740.61	361.147
2739.94	376.136
2739.28	323.426
2738.61	353.457
2737.95	319.565
2737.28	360.864
2736.62	345.774
2735.95	345.72
2735.29	338.151
2734.62	330.585
2733.95	379.362
2733.29	371.791
2732.62	307.9
2731.96	367.92
2731.29	345.34
2730.62	345.286
2729.96	386.51
2729.29	390.201
2728.63	352.626
2727.96	393.829
2727.29	390.018
2726.63	378.708
2725.96	322.413
2725.29	322.363
2724.62	374.782
2723.96	359.734
2723.29	374.664
2722.62	344.637
2721.96	370.801
2721.29	337.039
2720.62	415.616
2719.95	363.139
2719.28	344.366
2718.62	340.57
2717.95	389.161
2717.28	332.98
2716.61	336.669
2715.94	336.616
2715.27	362.74
2714.61	332.771
2713.94	358.888
2713.27	403.685
2712.6	325.14
2711.93	407.295
2711.26	373.606
2710.59	395.961
2709.92	362.284
2709.25	399.57
2708.58	395.774
2707.91	373.313
2707.24	429.242
2706.57	365.732
2705.9	380.6
2705.23	406.655
2704.56	365.559
2703.89	391.609
2703.22	357.986
2702.55	417.585
2701.88	387.697
2701.21	395.09
2700.54	387.575
2699.87	406.144
2699.2	394.904
2698.53	398.567
2697.86	409.677
2697.19	443.126
2696.51	402.102
2695.84	402.039
2695.17	409.419
2694.5	364.698
2693.83	394.407
2693.15	431.548
2692.48	364.526
2691.81	409.097
2691.14	438.781
2690.47	408.969
2689.79	371.731
2689.12	427.424
2688.45	393.911
2687.77	401.28
2687.1	423.507
2686.43	393.725
2685.76	453.084
2685.08	415.881
2684.41	374.976
2683.74	415.75
2683.06	423.107
2682.39	400.775
2681.71	482.339
2681.04	378.391
2680.37	452.514
2679.69	415.357
2679.02	415.292
2678.34	430.056
2677.67	404.04
2676.99	411.389
2676.32	485.437
2675.65	426.08
2674.97	418.604
2674.3	425.945
2673.62	374.032
2672.95	433.217
2672.27	403.531
2671.59	421.975
2670.92	451.517
2670.24	418.142
2669.57	414.376
2668.89	421.71
2668.22	403.15
2667.54	425.275
2666.86	403.023
2666.19	436.231
2665.51	436.162
2664.83	417.615
2664.16	424.939
2663.48	410.094
2662.8	487.603
2662.13	413.658
2661.45	402.515
2660.77	476.296
2660.1	435.612
2659.42	417.088
2658.74	383.808
2658.06	450.166
2657.39	420.58
2656.71	472.156
2656.03	472.082
2655.35	479.382
2654.68	427.689
2654	501.349
2653.32	412.811
2652.64	445.913
2651.96	449.527
2651.28	493.665
2650.6	456.752
2649.93	456.68
2649.25	445.561
2648.57	449.172
2647.89	408.609
2647.21	478.475
2646.53	423.2
2645.85	496.721
2645.17	481.927
2644.49	496.564
2643.81	500.163
2643.13	481.699
2642.45	503.682
2641.77	470.519
2641.09	485.146
2640.41	499.769
2639.73	462.948
2639.05	506.958
2638.37	477.493
2637.69	462.728
2637.01	532.421
2636.33	466.253
2635.65	466.18
2634.96	488.127
2634.28	455.024
2633.6	473.297
2632.92	476.89
2632.24	495.154
2631.56	484.074
2630.88	491.331
2630.19	483.921
2629.51	531.496
2628.83	513.087
2628.15	494.684
2627.46	545.898
2626.78	483.538
2626.1	542.063
2625.42	468.737
2624.73	468.663
2624.05	545.467
2623.37	516.098
2622.69	483.08
2622	541.549
2621.32	534.146
2620.64	548.693
2619.95	515.69
2619.27	500.981
2618.58	453.371
2617.9	511.79
2617.22	511.709
2616.53	515.282
2615.85	496.931
2615.16	507.813
2614.48	518.69
2613.79	566.087
2613.11	522.178
2612.43	518.444
2611.74	478.207
2611.06	529.23
2610.37	492.653
2609.69	488.926
2609	580.052
2608.31	525.247
2607.63	481.4
2606.94	539.666
2606.26	521.351
2605.57	550.431
2604.89	517.542
2604.2	513.816
2603.51	495.517
2602.83	546.439
2602.14	542.71
2601.45	571.758
2600.77	517.05
2600.08	480.562
2599.39	516.886
2598.71	524.083
2598.02	534.916
2597.33	509.364
2596.65	531.109
2595.96	520.113
2595.27	494.575
2594.58	567.217
2593.9	541.679
2593.21	530.688
2592.52	570.581
2591.83	497.817
2591.14	541.335
2590.46	523.087
2589.77	533.9
2589.08	504.764
2588.39	551.884
2587.7	577.208
2587.01	529.931
2586.32	555.251
2585.64	558.791
2584.95	526.051
2584.26	609.397
2583.57	565.779
2582.88	536.679
2582.19	583.727
2581.5	634.386
2580.81	583.542
2580.12	594.321
2579.43	601.473
2578.74	561.528
2578.05	575.927
2577.36	528.755
2576.67	572.123
2575.98	528.587
2575.29	517.643
2574.6	535.658
2573.91	550.048
2573.22	578.906
2572.52	593.284
2571.83	593.19
2571.14	618.41
2570.45	549.611
2569.76	585.676
2569.07	610.886
2568.38	607.175
2567.68	607.079
2566.99	560.013
2566.3	574.374
2565.61	617.625
2564.92	563.358
2564.22	527.161
2563.53	530.688
2562.84	566.699
2562.14	544.955
2561.45	627.861
2560.76	580.86
2560.07	624.054
2559.37	566.248
2558.68	595.007
2557.99	573.279
2557.29	620.053
2556.6	612.745
2555.91	616.252
2555.21	580.121
2554.52	569.221
2553.82	561.926
2553.13	590.649
2552.44	658.973
2551.74	619.264
2551.05	597.567
2550.35	626.265
2549.66	600.975
2548.96	611.674
2548.27	661.942
2547.57	589.898
2546.88	614.978
2546.18	589.71
2545.49	578.83
2544.79	611.09
2544.1	578.646
2543.4	654.017
2542.7	614.391
2542.01	657.402
2541.31	664.48
2540.62	592.55
2539.92	585.275
2539.22	703.654
2538.53	635.341
2537.83	642.418
2537.13	613.609
2536.44	595.572
2535.74	645.698
2535.04	634.835
2534.35	620.39
2533.65	631.048
2532.95	598.683
2532.25	666.69
2531.56	677.335
2530.86	619.896
2530.16	612.632
2529.46	626.862
2528.76	691.23
2528.07	662.472
2527.37	637.304
2526.67	601.404
2525.97	637.101
2525.27	701.415
2524.57	626.163
2523.88	672.571
2523.18	693.925
2522.48	690.238
2521.78	640.067
2521.08	604.213
2520.38	607.691
2519.68	646.909
2518.98	639.659
2518.28	639.557
2517.58	635.882
2516.88	617.922
2516.18	635.68
2515.48	649.861
2514.78	678.318
2514.08	685.349
2513.38	613.86
2512.68	620.899
2511.98	617.232
2511.28	631.403
2510.58	670.535
2509.88	656.164
2509.17	681.018
2508.47	712.994
2507.77	659.414
2507.07	705.639
2506.37	687.71
2505.67	634.159
2504.97	634.058
2504.26	673.134
2503.56	640.978
2502.86	683.6
2502.16	655.012
2501.45	701.178
2500.75	697.508
2500.05	647.582
2499.35	672.382
2498.64	640.261
2497.94	682.836
2497.24	664.948
2496.53	632.844
2495.83	714.501
2495.13	732.158
2494.42	660.969
2493.72	671.523
2493.02	642.996
2492.31	749.45
2491.61	674.752
2490.9	681.746
2490.2	681.637
2489.5	685.077
2488.79	741.753
2488.09	706.149
2487.38	691.844
2486.68	688.186
2485.97	702.264
2485.27	737.613
2484.56	684.311
2483.86	740.923
2483.15	701.814
2482.45	683.982
2481.74	690.96
2481.04	612.907
2480.33	747.415
2479.62	701.253
2478.92	715.305
2478.21	644.38
2477.51	700.917
2476.8	700.804
2476.09	704.231
2475.39	732.425
2474.68	767.685
2473.97	725.116
2473.27	714.39
2472.56	735.492
2471.85	682.342
2471.14	721.117
2470.44	685.658
2469.73	696.149
2469.02	710.171
2468.31	748.916
2467.61	755.86
2466.9	734.55
2466.19	695.592
2465.48	713.133
2464.77	737.727
2464.07	748.196
2463.36	811.592
2462.65	737.372
2461.94	740.782
2461.23	740.663
2460.52	719.386
2459.81	796.839
2459.1	779.085
2458.4	687.318
2457.69	747.118
2456.98	789.281
2456.27	725.74
2455.56	778.461
2454.85	690.289
2454.14	774.69
2453.43	774.566
2452.72	707.558
2452.01	760.239
2451.3	795.307
2450.59	728.328
2449.88	731.73
2449.16	812.512
2448.45	752.596
2447.74	759.507
2447.03	762.901
2446.32	797.93
2445.61	734.54
2444.9	780.104
2444.19	772.952
2443.47	769.315
2442.76	755.142
2442.05	786.627
2441.34	782.989
2440.63	744.247
2439.91	845.919
2439.2	772.084
2438.49	768.451
2437.78	733.244
2437.06	775.22
2436.35	806.661
2435.64	813.544
2434.93	781.859
2434.21	785.239
2433.5	760.578
2432.79	777.978
2432.07	746.318
2431.36	823.271
2430.64	826.641
2429.93	830.01
2429.22	780.855
2428.5	791.232
2427.79	808.608
2427.07	815.477
2426.36	832.843
2425.65	836.208
2424.93	825.579
2424.22	804.46
2423.5	807.828
2422.79	800.705
2422.07	744.641
2421.36	849.384
2420.64	863.226
2419.92	828.145
2419.21	807.049
2418.49	771.988
2417.78	768.371
2417.06	848.565
2416.35	837.954
2415.63	855.274
2414.91	813.252
2414.2	813.121
2413.48	809.501
2412.76	795.416
2412.05	802.264
2411.33	843.986
2410.61	871.746
2409.9	916.929
2409.18	808.72
2408.46	843.443
2407.74	822.399
2407.03	829.235
2406.31	856.97
2405.59	849.866
2404.87	860.177
2404.16	832.183
2403.44	863.381
2402.72	891.089
2402	859.623
2401.28	835.127
2400.56	828.034
2399.85	800.072
2399.13	848.635
2398.41	831.111
2397.69	872.7
2396.97	827.367
2396.25	875.895
2395.53	903.556
2394.81	913.834
2394.09	868.524
2393.37	889.225
2392.65	861.298
2391.93	843.797
2391.21	888.795
2390.49	899.066
2389.77	853.801
2389.05	874.485
2388.33	863.935
2387.61	829.105
2386.89	880.999
2386.17	950.216
2385.45	873.78
2384.73	852.838
2384	845.768
2383.28	887.22
2382.56	914.799
2381.84	866.147
2381.12	928.36
2380.4	914.356
2379.67	962.689
2378.95	872.513
2378.23	889.681
2377.51	906.844
2376.79	934.383
2376.06	871.95
2375.34	923.703
2374.62	899.341
2373.9	871.528
2373.17	829.893
2372.45	940.393
2371.73	888.39
2371	957.371
2370.28	946.849
2369.56	905.235
2368.83	908.544
2368.11	967.115
2367.38	946.238
2366.66	987.52
2365.94	939.028
2365.21	876.745
2364.49	945.627
2363.76	935.123
2363.04	914.271
2362.31	941.72
2361.59	844.997
2360.86	972.451
2360.14	982.638
2359.41	892.849
2358.69	954.746
2357.96	923.576
2357.24	982.003
2356.51	974.954
2355.79	881.795
2355.06	905.76
2354.33	1002.03
2353.61	1050.07
2352.88	963.84
2352.15	960.242
2351.43	935.999
2350.7	1011.54
2349.98	942.576
2349.25	856.436
2348.52	931.955
2347.79	921.489
2347.07	935.091
2346.34	969.313
2345.61	1017.27
2344.88	934.637
2344.16	1013.51
2343.43	999.601
2342.7	958.226
2341.97	934.033
2341.25	971.649
2340.52	971.492
2339.79	985.064
2339.06	991.768
2338.33	977.883
2337.6	998.308
2336.87	987.856
2336.14	963.69
2335.42	1028.68
2334.69	983.948
2333.96	976.934
2333.23	1031.61
2332.5	990.324
2331.77	911.362
2331.04	996.855
2330.31	1003.54
2329.58	986.258
2328.85	1006.64
2328.12	982.516
2327.39	1023.43
2326.66	989.042
2325.93	1016.26
2325.2	1033.2
2324.47	1067.24
2323.73	950.781
2323	1029.28
2322.27	1066.72
2321.54	970.829
2320.81	1066.37
2320.08	991.018
2319.35	973.774
2318.61	1052.19
2317.88	1031.52
2317.15	990.376
2316.42	1048.26
2315.69	1054.92
2314.95	989.894
2314.22	1013.62
2313.49	1091.94
2312.76	1016.71
2312.02	1016.54
2311.29	1016.38
2310.56	1016.21
2309.82	1019.46
2309.09	1063.61
2308.36	1094.11
2307.62	1046.22
2306.89	1097.16
2306.16	1069.73
2305.42	1069.56
2304.69	1035.33
2303.95	1072.62
2303.22	1014.57
2302.48	1102.91
2301.75	1095.92
2301.02	1017.47
2300.28	1078.55
2299.55	1020.55
2298.81	1078.2
2298.08	1084.83
2297.34	1074.45
2296.6	1149.07
2295.87	1087.7
2295.13	1087.52
2294.4	1026.18
2293.66	1131.34
2292.93	1114.17
2292.19	1039.27
2291.45	1035.7
2290.72	1072.88
2289.98	1042.16
2289.24	1113.26
2288.51	1106.3
2287.77	1072.19
2287.03	1065.23
2286.3	1065.05
2285.56	1136.1
2284.82	1125.74
2284.08	1132.34
2283.35	1101.65
2282.61	1152.31
2281.87	1169.06
2281.13	1104.5
2280.4	1124.64
2279.66	1117.69
2278.92	1151.37
2278.18	1093.62
2277.44	1205.16
2276.7	1116.96
2275.97	1164.16
2275.23	1143.67
2274.49	1072.44
2273.75	1112.85
2273.01	1105.91
2272.27	1126.02
2271.53	1149.5
2270.79	1105.37
2270.05	1128.85
2269.31	1094.87
2268.57	1135.24
2267.83	1135.05
2267.09	1145
2266.35	1181.96
2265.61	1093.98
2264.87	1141.06
2264.13	1181.38
2263.39	1221.69
2262.65	1123.64
2261.91	1184.18
2261.17	1254.82
2260.42	1150.07
2259.68	1166.74
2258.94	1190.15
2258.2	1203.44
2257.46	1186.39
2256.72	1196.31
2255.97	1246.66
2255.23	1145.39
2254.49	1158.68
2253.75	1168.59
2253	1151.56
2252.26	1144.64
2251.52	1144.46
2250.78	1174.56
2250.03	1133.99
2249.29	1191
2248.55	1227.81
2247.8	1210.79
2247.06	1176.97
2246.32	1176.77
2245.57	1183.3
2244.83	1193.2
2244.09	1273.65
2243.34	1243.21
2242.6	1249.72
2241.85	1165.55
2241.11	1195.58
2240.36	1185.31
2239.62	1188.48
2238.88	1215.14
2238.13	1258.57
2237.39	1372.46
2236.64	1211.19
2235.89	1261.31
2235.15	1287.93
2234.4	1200.53
2233.66	1220.46
2232.91	1190.09
2232.17	1246.87
2231.42	1260.07
2230.67	1246.47
2229.93	1273.06
2229.18	1205.86
2228.44	1235.81
2227.69	1262.39
2226.94	1198.58
2226.2	1228.51
2225.45	1248.39
2224.7	1308.42
2223.95	1308.21
2223.21	1251.12
2222.46	1281.02
2221.71	1297.53
2220.96	1290.63
2220.22	1200.16
2219.47	1203.31
2218.72	1290
2217.97	1263.06
2217.22	1222.76
2216.48	1312.75
2215.73	1275.8
2214.98	1352.39
2214.23	1241.99
2213.48	1241.79
2212.73	1271.63
2211.98	1288.1
2211.23	1334.61
2210.48	1237.64
2209.73	1360.85
2208.98	1280.59
2208.23	1257.04
2207.48	1260.17
2206.73	1263.3
2205.98	1389.73
2205.23	1299.54
2204.48	1269.34
2203.73	1339.09
2202.98	1325.55
2202.23	1305.35
2201.48	1285.16
2200.73	1281.62
2199.98	1278.08
2199.23	1304.5
2198.48	1264.35
2197.72	1334.01
2196.97	1303.86
2196.22	1350.2
2195.47	1346.65
2194.72	1422.9
2193.97	1312.97
2193.21	1286.17
2192.46	1322.51
2191.71	1368.81
2190.96	1295.51
2190.2	1295.29
2189.45	1354.85
2188.7	1357.95
2187.94	1344.45
2187.19	1321
2186.44	1300.87
2185.68	1303.97
2184.93	1343.57
2184.18	1253.79
2183.42	1349.76
2182.67	1336.28
2181.91	1392.42
2181.16	1352.41
2180.41	1378.71
2179.65	1345.34
2178.9	1427.95
2178.14	1341.59
2177.39	1397.68
2176.63	1490.17
2175.88	1340.93
2175.12	1453.27
2174.37	1360.35
2173.61	1343.58
2172.86	1293.73
2172.1	1482.09
2171.34	1425.61
2170.59	1352.62
2169.83	1335.87
2169.08	1342.26
2168.32	1444.51
2167.56	1368.26
2166.81	1457.26
2166.05	1480.14
2165.29	1456.78
2164.54	1459.84
2163.78	1350.63
2163.02	1442.85
2162.27	1386.5
2161.51	1488.59
2160.75	1382.74
2159.99	1375.92
2159.23	1444.97
2158.48	1451.33
2157.72	1457.69
2156.96	1414.58
2156.2	1411.05
2155.44	1420.71
2154.69	1417.18
2153.93	1400.47
2153.17	1446.37
2152.41	1423.07
2151.65	1403.08
2150.89	1511.52
2150.13	1376.27
2149.37	1428.72
2148.61	1441.65
2147.85	1467.74
2147.09	1483.95
2146.33	1447.52
2145.57	1506.49
2144.81	1463.49
2144.05	1515.86
2143.29	1443.28
2142.53	1446.33
2141.77	1452.67
2141.01	1478.72
2140.25	1537.61
2139.49	1491.37
2138.73	1569.95
2137.97	1517.15
2137.2	1500.48
2136.44	1437.86
2135.68	1437.63
2134.92	1499.74
2134.16	1489.65
2133.4	1522.22
2132.63	1420.28
2131.87	1429.89
2131.11	1521.46
2130.35	1472.04
2129.58	1507.85
2128.82	1579.71
2128.06	1589.28
2127.29	1507.11
2126.53	1536.34
2125.77	1552.47
2125	1512.91
2124.24	1581.42
2123.48	1545.15
2122.71	1485.98
2121.95	1469.38
2121.19	1547.66
2120.42	1570.31
2119.66	1586.4
2118.89	1501.11
2118.13	1598.96
2117.36	1523.5
2116.6	1506.91
2115.83	1523
2115.07	1659.99
2114.3	1610.71
2113.54	1567.98
2112.77	1606.92
2112.01	1606.65
2111.24	1550.88
2110.48	1632.24
2109.71	1579.75
2108.94	1634.96
2108.18	1585.75
2107.41	1663.79
2106.64	1608.06
2105.88	1673.02
2105.11	1539.06
2104.34	1620.31
2103.58	1610.26
2102.81	1600.22
2102.04	1700.97
2101.28	1560.59
2100.51	1654.8
2099.74	1602.42
2098.97	1569.59
2098.21	1579.1
2097.44	1669.99
2096.67	1666.46
2095.9	1607.61
2095.13	1594.33
2094.36	1678.65
2093.6	1665.36
2092.83	1580.53
2092.06	1651.8
2091.29	1567
2090.52	1592.75
2089.75	1595.74
2088.98	1611.72
2088.21	1669.94
2087.44	1585.2
2086.67	1614.17
2085.9	1532.72
2085.13	1633.12
2084.36	1662.06
2083.59	1726.7
2082.82	1664.76
2082.05	1700.18
2081.28	1660.97
2080.51	1699.62
2079.74	1747.98
2078.97	1640.69
2078.2	1682.56
2077.43	1640.15
2076.65	1659.32
2075.88	1649.33
2075.11	1619.9
2074.34	1690.89
2073.57	1642.03
2072.8	1687.1
2072.02	1751.57
2071.25	1709.2
2070.48	1731.57
2069.71	1689.22
2068.93	1737.47
2068.16	1666.01
2067.39	1736.9
2066.61	1642.83
2065.84	1758.96
2065.07	1648.75
2064.29	1709.89
2063.52	1719.3
2062.75	1693.17
2061.97	1689.66
2061.2	1657.08
2060.43	1731.08
2059.65	1759.86
2058.88	1678.85
2058.1	1691.49
2057.33	1671.84
2056.55	1758.69
2055.78	1710.01
2055	1703.27
2054.23	1699.76
2053.45	1776.88
2052.68	1731.45
2051.9	1708.59
2051.13	1743.76
2050.35	1807.93
2049.57	1797.96
2048.8	1662.36
2048.02	1761.94
2047.25	1790.63
2046.47	1835.41
2045.69	1754.62
2044.92	1825.15
2044.14	1741.17
2043.36	1785.93
2042.59	1782.42
2041.81	1833.59
2041.03	1717.5
2040.25	1739.73
2039.48	1819.82
2038.7	1735.94
2037.92	1835.29
2037.14	1773.92
2036.37	1860.38
2035.59	1821.52
2034.81	1740.92
2034.03	1763.11
2033.25	1855.94
2032.47	1817.11
2031.69	1852.11
2030.92	1861.44
2030.14	1941.35
2029.36	1931.4
2028.58	1847.68
2027.8	1869.82
2027.02	1882.34
2026.24	1798.67
2025.46	1852.86
2024.68	1785.25
2023.9	1788.16
2023.12	1826.31
2022.34	1986.18
2021.56	1755.24
2020.78	1931.08
2020	1873.13
2019.21	1876.02
2018.43	1850.1
2017.65	1776.19
2016.87	1839.89
2016.09	1881.17
2015.31	1932.04
2014.53	1918.93
2013.74	1909.01
2012.96	1835.16
2012.18	1956.33
2011.4	1885.69
2010.62	1926.92
2009.83	1907.43
2009.05	1903.92
2008.27	1894.02
2007.49	1794.71
2006.7	1861.46
2005.92	1829.23
2005.14	1854.46
2004.35	1902.02
2003.57	1841.08
2002.79	1885.44
2002	1888.31
2001.22	1894.38
2000.43	1772.9
1999.65	1998.96
1998.87	1922.12
1998.08	1848.5
1997.3	1911.92
1996.51	1937.1
1995.73	1904.92
1994.94	1850.46
1994.16	1926.58
1993.37	1942.18
1992.59	1995.97
1991.8	1935.16
1991.02	1960.3
1990.23	1947.25
1989.44	2016.91
1988.66	1863.9
1987.87	1876.31
1987.09	1987.29
1986.3	2034.64
1985.51	2005.7
1984.73	2033.97
1983.94	1970.08
1983.15	1909.39
1982.37	1902.72
1981.58	1842.06
1980.79	1949.71
1980	2000.19
1979.22	2003.03
1978.43	1983.65
1977.64	1970.63
1976.85	2036.93
1976.06	1973.15
1975.28	2074.31
1974.49	1924.92
1973.7	2054.6
1972.91	1984.51
1972.12	2107.8
1971.33	1980.68
1970.54	2008.87
1969.76	2071.89
1968.97	2058.88
1968.18	2049.04
1967.39	2042.36
1966.6	2007.2
1965.81	2070.17
1965.02	2038.18
1964.23	2025.18
1963.44	2065.97
1962.65	2182.67
1961.86	1986.21
1961.07	2109.21
1960.28	2080.4
1959.48	1953.61
1958.69	2029.14
1957.9	1934
1957.11	2063.22
1956.32	1942.83
1955.53	2046.74
1954.74	2049.55
1953.94	2061.84
1953.15	2156.21
1952.36	2064.31
1951.57	2136.55
1950.78	2069.93
1949.98	2028.57
1949.19	2107.09
1948.4	2018.43
1947.61	2093.78
1946.81	2055.59
1946.02	2093.08
1945.23	2152.61
1944.43	2038.81
1943.64	2066.82
1942.85	2176.73
1942.05	2091.33
1941.26	2094.13
1940.46	2185.09
1939.67	2077.69
1938.88	2134
1938.08	2117.91
1937.29	2117.56
1936.49	2129.79
1935.7	2145.16
1934.9	2188.83
1934.11	2106.71
1933.31	2115.79
1932.52	2150.01
1931.72	2237.65
1930.93	2155.58
1930.13	2133.22
1929.33	2179.99
1928.54	2053.99
1927.74	2172.98
1926.95	2175.75
1926.15	2250.73
1925.35	2181.3
1924.56	2143.28
1923.76	2133.51
1922.96	2195.89
1922.17	2214.35
1921.37	2311.19
1920.57	2144.63
1919.77	2169.35
1918.98	2190.92
1918.18	2221.9
1917.38	2174.52
1916.58	2224.29
1915.78	2129.95
1914.99	2120.19
1914.19	2210.64
1913.39	2135.14
1912.59	2200.51
1911.79	2212.66
1910.99	2209.16
1910.19	2171.25
1909.39	2205.3
1908.59	2183.04
1907.8	2257.72
1907	2254.21
1906.2	2356.99
1905.4	2175.32
1904.6	2253.08
1903.8	2146.47
1903	2246.08
1902.2	2155.13
1901.39	2239.08
1900.59	2288.66
1899.79	2241.45
1898.99	2244.2
1898.19	2265.67
1897.39	2324.57
1896.59	2311.71
1895.79	2255.17
1894.99	2270.39
1894.18	2235.71
1893.38	2344.45
1892.58	2344.06
1891.78	2303.15
1890.98	2318.34
1890.17	2336.65
1889.37	2354.95
1888.57	2451.1
1887.76	2229.6
1886.96	2279.04
1886.16	2309.79
1885.36	2293.84
1884.55	2268.56
1883.75	2330.4
1882.94	2342.46
1882.14	2261.2
1881.34	2313.68
1880.53	2279.09
1879.73	2275.6
1878.92	2309.41
1878.12	2361.85
1877.32	2364.56
1876.51	2314.46
1875.71	2335.82
1874.9	2338.53
1874.1	2356.77
1873.29	2288.07
1872.49	2228.71
1871.68	2333.86
1870.87	2370.7
1870.07	2388.92
1869.26	2221.01
1868.46	2403.62
1867.65	2375.31
1866.84	2399.72
1866.04	2349.71
1865.23	2408.21
1864.42	2348.92
1863.62	2425.99
1862.81	2348.14
1862	2310.57
1861.2	2403.09
1860.39	2396.49
1859.58	2430.14
1858.77	2432.83
1857.96	2386
1857.16	2466.05
1856.35	2434.7
1855.54	2347.68
1854.73	2393.67
1853.92	2411.82
1853.12	2331.04
1852.31	2590.29
1851.5	2429.15
1850.69	2351.49
1849.88	2465.41
1849.07	2517.51
1848.26	2446.05
1847.45	2532.1
1846.64	2386.57
1845.83	2494.2
1845.02	2469.09
1844.21	2388.45
1843.4	2455.92
1842.59	2477.1
1841.78	2476.69
1840.97	2430.01
1840.16	2494.35
1839.35	2444.61
1838.54	2422.62
1837.72	2567.05
1836.91	2421.81
1836.1	2452.21
1835.29	2482.59
1834.48	2491.41
1833.67	2543.34
1832.85	2475.18
1832.04	2542.48
1831.23	2480.5
1830.42	2523.17
1829.6	2568.89
1828.79	2386.97
1827.98	2546.49
1827.17	2576.81
1826.35	2453.4
1825.54	2459.14
1824.73	2544.78
1823.91	2550.5
1823.1	2464.04
1822.29	2478.98
1821.47	2493.92
1820.66	2456.65
1819.84	2536.07
1819.03	2550.99
1818.21	2519.86
1817.4	2550.13
1816.58	2660.15
1815.77	2583.01
1814.95	2551.91
1814.14	2579.07
1813.32	2508.12
1812.51	2516.89
1811.69	2476.62
1810.88	2531.37
1810.06	2549.32
1809.25	2475.37
1808.43	2441.26
1807.61	2587.85
1806.8	2593.53
1805.98	2733.93
1805.16	2534.5
1804.35	2506.53
1803.53	2558.12
1802.71	2621.94
1801.89	2612.32
1801.08	2590.47
1800.26	2599.21
1799.44	2647.69
1798.62	2576.93
1797.81	2677.36
1796.99	2594.4
1796.17	2621.46
1795.35	2599.63
1794.53	2648.06
1793.71	2607.91
1792.9	2573.89
1792.08	2637.56
1791.26	2560.81
1790.44	2719.07
1789.62	2746.07
1788.8	2684.59
1787.98	2595.68
1787.16	2698.93
1786.34	2704.57
1785.52	2585.22
1784.7	2633.55
1783.88	2758.06
1783.06	2660.09
1782.24	2665.73
1781.42	2732.29
1780.6	2673.96
1779.78	2640.02
1778.95	2651.75
1778.13	2611.73
1777.31	2693.46
1776.49	2662.58
1775.67	2653
1774.85	2655.59
1774.02	2722.05
1773.2	2618.2
1772.38	2736.33
1771.56	2699.39
1770.74	2695.9
1769.91	2607.31
1769.09	2743.6
1768.27	2670.23
1767.44	2800.38
1766.62	2684.51
1765.8	2762.99
1764.97	2774.67
1764.15	2792.41
1763.33	2728.21
1762.5	2776.3
1761.68	2721.22
1760.85	2820.85
1760.03	2814.31
1759.21	2810.8
1758.38	2849.74
1757.56	2697.7
1756.73	2836.65
1755.91	2863.44
1755.08	2847.81
1754.26	2850.35
1753.43	2813.53
1752.6	2919.03
1751.78	2894.32
1750.95	2902.91
1750.13	2908.47
1749.3	3025.99
1748.47	3064.81
1747.65	2906.99
1746.82	3036.55
1745.99	3223.52
1745.17	3129.25
1744.34	3149.88
1743.51	3246.06
1742.69	3275.73
1741.86	3323.51
1741.03	3431.7
1740.2	3446.22
1739.38	3515.09
1738.55	3734.91
1737.72	3740.31
1736.89	3884.55
1736.06	3817.5
1735.23	4040.14
1734.4	4114.87
1733.58	4280.06
1732.75	4336.64
1731.92	4360.02
1731.09	4380.39
1730.26	4455
1729.43	4550.68
1728.6	4833.15
1727.77	4922.71
1726.94	4988.14
1726.11	5225.21
1725.28	5203.25
1724.45	5175.27
1723.62	5050.97
1722.79	5125.36
1721.96	4778.44
1721.13	4624.19
1720.3	4445.93
1719.46	4321.86
1718.63	4369.24
1717.8	4176.08
1716.97	4070.16
1716.14	3976.3
1715.31	3849.41
1714.47	3656.47
1713.64	3682.89
1712.81	3559.12
1711.98	3459.41
1711.14	3422.8
1710.31	3326.15
1709.48	3334.59
1708.65	3277.01
1707.81	3156.43
1706.98	3056.9
1706.15	3140.36
1705.31	3046.86
1704.48	3055.34
1703.64	3078.8
1702.81	3087.27
1701.98	3002.84
1701.14	2987.34
1700.31	3025.78
1699.47	2998.31
1698.64	2970.85
1697.8	2979.32
1696.97	2963.85
1696.13	2897.49
1695.3	3010.72
1694.46	2953.36
1693.63	2928.92
1692.79	2985.26
1691.95	2865.12
1691.12	2882.57
1690.28	3082.39
1689.45	3057.95
1688.61	2949.84
1687.77	3104.72
1686.94	2909.99
1686.1	2975.22
1685.26	3037.43
1684.42	3010.04
1683.59	2979.67
1682.75	2982.15
1681.91	3086.1
1681.07	3061.7
1680.24	2938.85
1679.4	3087.51
1678.56	3078.03
1677.72	3011.9
1676.88	2892.12
1676.04	3019.82
1675.21	2867.29
1674.37	3045.61
1673.53	2964.64
1672.69	2934.35
1671.85	2957.67
1671.01	3129.89
1670.17	2968.58
1669.33	2953.18
1668.49	3146.15
1667.65	3011.7
1666.81	3014.16
1665.97	3099.92
1665.13	3010.16
1664.29	3024.51
1663.45	2994.26
1662.61	3076.99
1661.77	2996.21
1660.92	2995.7
1660.08	3007.08
1659.24	3065.98
1658.4	3020.9
1657.56	3026.33
1656.72	3105.98
1655.87	2927.32
1655.03	2986.19
1654.19	3077.68
1653.35	3219.59
1652.5	3043.99
1651.66	3093.9
1650.82	3090.41
1649.98	3143.26
1649.13	3056.74
1648.29	3056.22
1647.45	3067.55
1646.6	3123.33
1645.76	3033.91
1644.91	3095.6
1644.07	3089.15
1643.23	3050.12
1642.38	3046.64
1641.54	3040.2
1640.69	3045.6
1639.85	3045.08
1639	3230.96
1638.16	3194.91
1637.31	3144.08
1636.47	3128.76
1635.62	3075
1634.78	3213.42
1633.93	3082.82
1633.08	3147.31
1632.24	3170.41
1631.39	3282.12
1630.55	3254.98
1629.7	3251.47
1628.85	3304.06
1628.01	3327.11
1627.16	3350.16
1626.31	3314.17
1625.46	3360.81
1624.62	3543.15
1623.77	3474.7
1622.92	3642.21
1622.07	3780.17
1621.23	3867.97
1620.38	4014.69
1619.53	4302.82
1618.68	4794.17
1617.83	5220.54
1616.98	5852.95
1616.13	6281.94
1615.29	7061.19
1614.44	7427.99
1613.59	7697.53
1612.74	7707.99
1611.89	7703.72
1611.04	7019.84
1610.19	6812.72
1609.34	6443.92
1608.49	5851.76
1607.64	5365.64
1606.79	5126.62
1605.94	4928.82
1605.09	4513.64
1604.24	4524.62
1603.38	4271.21
1602.53	4076.63
1601.68	3861.57
1600.83	3896.14
1599.98	3736.95
1599.13	3709.89
1598.27	3641.76
1597.42	3529.65
1596.57	3467.44
1595.72	3396.45
1594.87	3425.19
1594.01	3298.53
1593.16	3368.32
1592.31	3332.57
1591.45	3247.01
1590.6	3269.89
1589.75	3172.66
1588.89	3312.71
1588.04	3215.5
1587.19	3238.37
1586.33	3311
1585.48	3234.33
1584.62	3374.25
1583.77	3244.93
1582.92	3197.56
1582.06	3337.41
1581.21	3243.25
1580.35	3309.95
1579.5	3353.23
1578.64	3291.27
1577.78	3355
1576.93	3278.46
1576.07	3385.99
1575.22	3259.8
1574.36	3262.16
1573.51	3337.52
1572.65	3339.87
1571.79	3371.4
1570.94	3216.15
1570.08	3314.8
1569.22	3270.47
1568.37	3386.59
1567.51	3283.93
1566.65	3344.6
1565.79	3311.96
1564.94	3232.68
1564.08	3313.73
1563.22	3310.25
1562.36	3286.37
1561.5	3402.32
1560.65	3212.43
1559.79	3307.97
1558.93	3252.09
1558.07	3286.46
1557.21	3201.49
1556.35	3244.59
1555.49	3276.03
1554.63	3263.83
1553.77	3237.1
1552.91	3326.69
1552.05	3285.41
1551.19	3238.33
1550.33	3400.54
1549.47	3301.15
1548.61	3222.13
1547.75	3276.77
1546.89	3232.64
1546.03	3269.84
1545.17	3315.73
1544.31	3280.32
1543.45	3317.49
1542.58	3334.33
1541.72	3374.38
1540.86	3298.37
1540	3251.39
1539.14	3366.83
1538.28	3401.05
1537.41	3339.58
1536.55	3339.01
1535.69	3228.31
1534.82	3291.5
1533.96	3427.09
1533.1	3232.43
1532.24	3255.04
1531.37	3254.48
1530.51	3311.82
1529.64	3308.36
1528.78	3244.12
1527.92	3263.81
1527.05	3361.61
1526.19	3427.56
1525.32	3250.56
1524.46	3284.69
1523.59	3341.95
1522.73	3358.71
1521.86	3326.34
1521	3435.57
1520.13	3354.09
1519.27	3396.84
1518.4	3396.25
1517.54	3398.55
1516.67	3371.98
1515.8	3394.49
1514.94	3315.98
1514.07	3338.5
1513.21	3283.1
1512.34	3426.76
1511.47	3310.81
1510.6	3385.21
1509.74	3378.86
1508.87	3441.69
1508	3357.52
1507.14	3443.38
1506.27	3405.34
1505.4	3396.11
1504.53	3473.28
1503.66	3294.15
1502.8	3302.22
1501.93	3396.64
1501.06	3427.71
1500.19	3360.94
1499.32	3383.37
1498.45	3339.64
1497.58	3445.47
1496.71	3370.12
1495.84	3395.41
1494.97	3394.82
1494.1	3244.78
1493.23	3419.51
1492.36	3433.28
1491.49	3424.07
1490.62	3478.05
1489.75	3442.99
1488.88	3448.14
1488.01	3450.41
1487.14	3326.4
1486.27	3480.78
1485.4	3428.54
1484.52	3433.68
1483.65	3473.24
1482.78	3378.01
1481.91	3526.51
1481.04	3419.84
1480.17	3442.18
1479.29	3447.31
1478.42	3423.79
1477.55	3486.22
1476.67	3548.63
1475.8	3301.74
1474.93	3455.78
1474.06	3360.72
1473.18	3443.14
1472.31	3496.91
1471.43	3413.33
1470.56	3641.59
1469.69	3569.46
1468.81	3525.95
1467.94	3459.57
1467.06	3499
1466.19	3589.85
1465.31	3537.79
1464.44	3614.32
1463.56	3639.41
1462.69	3641.63
1461.81	3601.02
1460.94	3600.4
1460.06	3656.87
1459.19	3661.94
1458.31	3704.11
1457.43	3683.5
1456.56	3617.25
1455.68	3531.05
1454.8	3581.77
1453.93	3598.26
1453.05	3583.38
1452.17	3679.67
1451.3	3550.79
1450.42	3647.05
1449.54	3660.66
1448.66	3688.51
1447.78	3531.24
1446.91	3496.46
1446.03	3626.81
1445.15	3779.88
1444.27	3540.17
1443.39	3633.46
1442.51	3658.43
1441.64	3612.28
1440.76	3634.41
1439.88	3636.62
1439	3496.69
1438.12	3609.78
1437.24	3546.63
1436.36	3591.48
1435.48	3590.85
1434.6	3485.13
1433.72	3535.65
1432.84	3549.23
1431.96	3659.33
1431.08	3505.42
1430.2	3519
1429.31	3526.9
1428.43	3526.29
1427.55	3576.73
1426.67	3564.77
1425.79	3586.83
1424.91	3577.7
1424.02	3562.91
1423.14	3553.79
1422.26	3669.34
1421.38	3583.72
1420.49	3676.56
1419.61	3602.29
1418.73	3700.77
1417.85	3717.11
1416.96	3795.72
1416.08	3860.15
1415.2	3845.33
1414.31	3765.45
1413.43	3829.85
1412.54	3755.66
1411.66	3845.49
1410.78	3683.67
1409.89	3892.2
1409.01	3733.26
1408.12	3653.5
1407.24	3661.33
1406.35	3708.72
1405.47	3558.39
1404.58	3504.12
1403.7	3576.92
1402.81	3646.86
1401.92	3598.25
1401.04	3566.58
1400.15	3613.92
1399.27	3638.68
1398.38	3553.44
1397.49	3609.21
1396.61	3569.12
1395.72	3455.75
1394.83	3612.97
1393.94	3617.97
1393.06	3656.78
1392.17	3501.22
1391.28	3492.17
1390.39	3590.11
1389.51	3566.96
1388.62	3473.45
1387.73	3585.42
1386.84	3615.75
1385.95	3651.69
1385.06	3516.04
1384.17	3653.23
1383.29	3604.79
1382.4	3691.31
1381.51	3581.05
1380.62	3667.54
1379.73	3529.22
1378.84	3598.84
1377.95	3556.08
1377.06	3659.37
1376.17	3577.3
1375.28	3711.43
1374.39	3635
1373.5	3651.2
1372.6	3630.92
1371.71	3624.68
1370.82	3579.17
1369.93	3584.15
1369.04	3619.98
1368.15	3577.29
1367.26	3700
1366.36	3514.39
1365.47	3575.42
1364.58	3555.19
1363.69	3599.38
1362.79	3548.34
1361.9	3642.93
1361.01	3597.5
1360.11	3619.26
1359.22	3657.81
1358.33	3618
1357.43	3639.75
1356.54	3557.99
1355.65	3512.62
1354.75	3537.18
1353.86	3704.3
1352.96	3731.61
1352.07	3619.16
1351.17	3562.65
1350.28	3606.72
1349.39	3608.89
1348.49	3647.36
1347.59	3669.06
1346.7	3514.87
1345.8	3567.29
1344.91	3516.43
1344.01	3652.54
1343.12	3570.99
1342.22	3684.73
1341.32	3592.06
1340.43	3549.6
1339.53	3590.8
1338.63	3737.9
1337.74	3531.02
1336.84	3574.98
1335.94	3644.01
1335.04	3545.88
1334.15	3665.01
1333.25	3681.08
1332.35	3755.6
1331.45	3663.09
1330.55	3695.84
1329.66	3656.24
1328.76	3677.86
1327.86	3813.51
1326.96	3601.48
1326.06	3712.07
1325.16	3711.42
1324.26	3707.99
1323.36	3762.93
1322.46	3576.1
1321.56	3669.93
1320.66	3738.73
1319.76	3649.2
1318.86	3829.05
1317.96	3797.84
1317.06	3702.8
1316.16	3821.49
1315.26	3917.93
1314.36	3883.95
1313.46	3952.62
1312.55	3924.19
1311.65	3904.09
1310.75	4033.71
1309.85	3872.24
1308.95	4048.92
1308.04	3987.25
1307.14	4022.57
1306.24	4032.94
1305.34	4115.32
1304.43	4095.21
1303.53	4022.52
1302.63	4102.08
1301.72	4076.45
1300.82	4028.7
1299.92	4163.55
1299.01	4345.38
1298.11	4316.96
1297.21	4310.67
1296.3	4434.32
1295.4	4563.45
1294.49	4769.92
1293.59	4666.85
1292.68	4812.45
1291.78	4916.56
1290.87	4896.37
1289.97	4818.2
1289.06	4833.91
1288.16	4935.19
1287.25	4754.94
1286.34	4721
1285.44	4819.48
1284.53	4813.12
1283.62	4870.19
1282.72	4665.29
1281.81	4579.01
1280.9	4666.41
1280	4549.85
1279.09	4656.51
1278.18	4545.49
1277.27	4552.96
1276.37	4455.77
1275.46	4251.24
1274.55	4377.12
1273.64	4183.68
1272.73	4026.09
1271.82	4025.38
1270.92	4027.42
1270.01	4032.22
1269.1	3982.01
1268.19	3948.31
1267.28	3851.4
1266.37	3858.97
1265.46	3954.47
1264.55	3984
1263.64	3887.15
1262.73	3817.8
1261.82	3732
1260.91	3772.53
1260	3835
1259.09	3823.35
1258.18	3627.84
1257.27	3780.85
1256.35	3653.99
1255.44	3782.26
1254.53	3693.84
1253.62	3682.22
1252.71	3613.04
1251.79	3639.82
1250.88	3633.69
1249.97	3630.31
1249.06	3741.99
1248.14	3620.82
1247.23	3688.64
1246.32	3649.66
1245.41	3577.84
1244.49	3725.01
1243.58	3716.14
1242.66	3622.47
1241.75	3569.85
1240.84	3664.95
1239.92	3735.4
1239.01	3680.06
1238.09	3581
1237.18	3637.77
1236.26	3779.22
1235.35	3573.65
1234.43	3624.92
1233.52	3534.15
1232.6	3522.6
1231.69	3631.19
1230.77	3682.42
1229.86	3711.79
1228.94	3591.07
1228.02	3601.35
1227.11	3614.35
1226.19	3469.16
1225.27	3653.98
1224.36	3557.91
1223.44	3576.36
1222.52	3791.04
1221.6	3656.85
1220.69	3588.09
1219.77	3628.32
1218.85	3619.51
1217.93	3632.48
1217.01	3484.83
1216.1	3652.98
1215.18	3627.84
1214.26	3613.59
1213.34	3523.17
1212.42	3617.76
1211.5	3608.96
1210.58	3597.44
1209.66	3724.59
1208.74	3558.12
1207.82	3546.62
1206.9	3573.16
1205.98	3645.89
1205.06	3745.74
1204.14	3734.22
1203.22	3671.11
1202.3	3662.31
1201.38	3577.52
1200.46	3693.58
1199.54	3551.83
1198.61	3686.85
1197.69	3732.31
1196.77	3734.36
1195.85	3633.38
1194.93	3765.58
1194	3754.07
1193.08	3558.28
1192.16	3674.16
1191.24	3641
1190.31	3778.5
1189.39	3685.75
1188.47	3698.64
1187.54	3762.96
1186.62	3716.28
1185.7	3783.27
1184.77	3825.9
1183.85	3649.38
1182.92	3811.02
1182	3883.36
1181.07	3901.6
1180.15	3757.63
1179.23	3783.99
1178.3	3740.09
1177.37	3874.52
1176.45	3819.8
1175.52	3805.62
1174.6	3856.26
1173.67	3750.28
1172.75	3881.89
1171.82	3794.83
1170.89	3869.72
1169.97	3771.9
1169.04	3800.91
1168.11	3638.41
1167.19	3845.4
1166.26	3731.48
1165.33	3693.08
1164.4	3638.52
1163.48	3605.54
1162.55	3688.42
1161.62	3577.32
1160.69	3654.8
1159.76	3613.76
1158.83	3820.42
1157.91	3712.07
1156.98	3555.31
1156.05	3654.25
1155.12	3739.69
1154.19	3580.32
1153.26	3630.79
1152.33	3726.95
1151.4	3602.61
1150.47	3717.56
1149.54	3676.59
1148.61	3606.07
1147.68	3755.88
1146.75	3779.39
1145.82	3655.18
1144.89	3708.23
1143.96	3745.16
1143.02	3693.49
1142.09	3666
1141.16	3694.87
1140.23	3849.81
1139.3	3731.11
1138.36	3617.81
1137.43	3700.29
1136.5	3745.2
1135.57	3661.45
1134.63	3781.39
1133.7	3893.26
1132.77	3683.61
1131.83	3744.56
1130.9	3893.86
1129.97	3895.85
1129.03	3822.87
1128.1	3830.22
1127.17	3955.32
1126.23	3901.1
1125.3	4076.97
1124.36	3929.14
1123.43	3800.08
1122.49	4085.49
1121.56	4023.28
1120.62	4041.28
1119.69	4158.14
1118.75	4119.99
1117.81	4084.53
1116.88	4209.34
1115.94	4179.21
1115.01	4143.76
1114.07	3924.13
1113.13	4022.18
1112.2	4008.12
1111.26	4058.1
1110.32	3873.32
1109.38	4048.66
1108.45	4077.27
1107.51	4052.55
1106.57	3993.18
1105.63	3968.48
1104.69	4159.64
1103.76	3964.41
1102.82	4096.89
1101.88	3901.74
1100.94	4044.84
1100	4084.05
1099.06	4237.71
1098.12	4346.08
1097.18	4244.19
1096.24	4437.64
1095.3	4410.25
1094.36	4316.38
1093.42	4392.73
1092.48	4487.65
1091.54	4295.47
1090.6	4361.14
1089.66	4288.62
1088.72	4101.89
1087.78	4079.91
1086.84	3978.27
1085.9	3996.14
1084.95	3873.31
1084.01	3923.05
1083.07	3946.24
1082.13	3926.96
1081.19	3809.53
1080.24	3973.3
1079.3	3882.43
1078.36	3831.36
1077.41	3820.07
1076.47	3898.9
1075.53	3797.51
1074.58	3844.52
1073.64	3674.29
1072.7	3779.58
1071.75	3723.3
1070.81	3833.83
1069.86	3732.56
1068.92	3806
1067.98	3662.42
1067.03	3653.83
1066.09	3817.19
1065.14	3570.53
1064.19	3813.18
1063.25	3796.63
1062.3	3780.1
1061.36	3750.35
1060.41	3736.47
1059.46	3741.08
1058.52	3809.09
1057.57	3697.49
1056.63	3754.92
1055.68	3804.41
1054.73	3703.42
1053.78	3755.55
1052.84	3622.94
1051.89	3672.42
1050.94	3793.1
1049.99	3686.93
1049.05	3733.73
1048.1	3651.34
1047.15	3648.05
1046.2	3781.8
1045.25	3746.87
1044.3	3772.55
1043.35	3829.82
1042.4	3721.16
1041.45	3717.86
1040.5	3675.07
1039.55	3756.01
1038.6	3747.45
1037.65	3786.24
1036.7	3759.26
1035.75	3808.56
1034.8	3755.28
1033.85	3891.33
1032.9	3838.06
1031.95	3748.01
1031	3773.62
1030.05	3762.43
1029.1	3806.41
1028.14	3674.41
1027.19	3862.82
1026.24	3856.88
1025.29	3756.44
1024.33	3771.51
1023.38	3765.59
1022.43	3715.06
1021.48	3782.6
1020.52	3878.96
1019.57	3938.58
1018.62	3861.84
1017.66	3848.04
1016.71	3847.35
1015.75	3713.03
1014.8	3830.26
1013.85	3832.19
1012.89	3794.84
1011.94	3982.69
1010.98	3864.16
1010.03	3887.03
1009.07	3784.26
1008.12	3924.88
1007.16	3811.68
1006.2	4117.03
1005.25	4027.38
1004.29	4191.38
1003.34	4159.26
1002.38	4017.37
1001.42	4019.26
1000.47	4170.08
999.508	4043.94
998.551	4048.44
997.594	4105.16
996.636	4122.7
995.679	4064.53
994.721	4045.53
993.763	3992.61
992.805	4031.03
991.846	4072.05
990.888	3920.04
989.929	3940.2
988.97	3843.03
988.011	3915.33
987.052	4052.75
986.093	3835.74
985.133	3894.98
984.173	3873.44
983.213	3906.6
982.253	3885.07
981.293	3855.73
980.333	3782.15
979.372	3804.9
978.411	3817.22
977.45	3826.94
976.489	3828.86
975.528	3859.38
974.566	3863.88
973.605	3733.2
972.643	3859.89
971.681	3937.16
970.719	3819.53
969.756	3761.69
968.794	3753.22
967.831	3757.74
966.868	3819.38
965.905	3831.67
964.942	3828.39
963.979	3967.83
963.015	3772.52
962.052	3883.39
961.088	3784.13
960.124	3744.55
959.159	3852.77
958.195	3701.73
957.23	3685.51
956.266	3791.09
955.301	3774.86
954.336	3901.11
953.37	3892.64
952.405	3837.56
951.439	3883.47
950.473	3755.94
949.507	3713.85
948.541	3964.18
947.575	3784.95
946.608	3869.63
945.642	3889.62
944.675	3860.48
943.708	3836.51
942.741	3802.22
941.773	3752.43
940.806	3979.14
939.838	3683.91
938.87	3807.23
937.902	3801.38
936.934	3865.24
935.965	3792.26
934.997	3876.75
934.028	3803.8
933.059	3932.12
932.09	3786.95
931.121	3819.79
930.151	3736.58
929.182	3841.62
928.212	3807.41
927.242	3914.98
926.272	3898.81
925.301	3957.36
924.331	3794.36
923.36	3986.84
922.389	3862.52
921.418	3903.01
920.447	3910.03
919.475	3994.25
918.504	3929.2
917.532	3951.65
916.56	3778.6
915.588	3783.06
914.616	3874.94
913.643	4046.49
912.671	3953.22
911.698	3895.97
910.725	3920.96
909.752	3915.11
908.779	3847.63
907.805	3803.27
906.831	3823.13
905.858	3997
904.883	3888.48
903.909	3910.87
902.935	3922.99
901.96	3971.02
900.986	3931.83
900.011	3951.64
899.036	4038.09
898.06	3945.08
897.085	3903.36
896.109	4064.09
895.133	3912.2
894.157	3906.37
893.181	4113.11
892.205	3981.77
891.229	3947.77
890.252	4139.03
889.275	3895.16
888.298	4109.39
887.321	4085.62
886.343	4031.16
885.366	4155.75
884.388	4034.82
883.41	4136.35
882.432	4074.25
881.454	4170.63
880.475	4088.11
879.497	4153.79
878.518	4043.21
877.539	4034.81
876.56	4118.34
875.58	4120.15
874.601	4190.86
873.621	4136.52
872.641	4171.49
871.661	4229.4
870.681	4256.69
869.701	4171.77
868.72	4229.65
867.739	4239.08
866.758	4296.93
865.777	4375.14
864.796	4359.06
863.815	4569.69
862.833	4599.42
861.851	4776.83
860.869	5094.19
859.887	5202.72
858.905	5397.73
857.922	5409.48
856.939	5240.59
855.956	5267.62
854.973	5075.93
853.99	4993.65
853.007	4952.07
852.023	4763.09
851.039	4647.87
850.055	4527.61
849.071	4488.68
848.087	4376.12
847.102	4413.41
846.118	4300.9
845.133	4399.12
844.148	4248.58
843.163	4275.72
842.177	4203.91
841.192	4213.29
840.206	4255.64
839.22	4285.29
838.234	4160.29
837.248	4106.3
836.261	4173.98
835.274	4036.4
834.288	4147.13
833.301	4176.77
832.313	4206.41
831.326	4284.13
830.339	4202.34
829.351	4140.84
828.363	4157.8
827.375	4055.83
826.387	4146.17
825.398	4312.34
824.409	4078.91
823.421	4300.66
822.432	4226.57
821.443	4043.83
820.453	4111.32
819.464	4186.37
818.474	4097.2
817.484	4235.36
816.494	4269.94
815.504	4304.5
814.513	4228
813.523	4106.09
812.532	4155.81
811.541	4195.41
810.55	4240.05
809.559	4156.06
808.567	4238.51
807.575	4139.42
806.583	4249.57
805.591	4072.39
804.599	4187.55
803.607	4123.81
802.614	4261.58
801.621	4195.33
800.628	4149.25
799.635	4201.36
798.642	4137.67
797.649	4255.19
796.655	4206.61
795.661	4356.77
794.667	4406.28
793.673	4201.8
792.678	4351.88
791.684	4283.21
790.689	4176.88
789.694	4186.17
788.699	4255.75
787.704	4126.87
786.708	4133.65
785.713	4158.01
784.717	4074.41
783.721	4153.98
782.724	4233.53
781.728	4165.01
780.731	4031.3
779.735	4050.63
778.738	4162.73
777.741	4252.23
776.743	4065.96
775.746	4303.31
774.748	4149.67
773.75	4091.29
772.752	4213.28
771.754	4167.43
770.756	4281.86
769.757	4095.81
768.758	4130.11
767.759	4019.24
766.76	4126.1
765.761	4202.9
764.761	4139.6
763.762	4118.84
762.762	4055.58
761.762	4039.83
760.762	4209.06
759.761	4165.81
758.761	4132.56
757.76	4244.22
756.759	4220.97
755.758	4135.29
754.756	4129.54
753.755	4218.65
752.753	4282.77
751.751	4097.34
750.749	4143.99
749.747	4188.13
748.745	4159.93
747.742	4236.47
746.739	4153.42
745.736	4107.8
744.733	4141.94
743.73	4223.4
742.726	4065.68
741.723	4137.17
740.719	4116.49
739.715	4182.97
738.71	4197.14
737.706	4126.68
736.701	4130.9
735.697	4197.32
734.692	4248.79
733.686	4173.4
732.681	4232.32
731.675	4248.95
730.67	4337.65
729.664	4229.99
728.658	4259.04
727.651	4258.26
726.645	4322.06
725.638	4144.94
724.631	4355.24
723.624	4150.87
722.617	4234.5
721.61	4151.83
720.602	4103.92
719.595	4170.15
718.587	4261.16
717.578	4280.22
716.57	4252.16
715.562	4243.94
714.553	4250.6
713.544	4289.47
712.535	4211.88
711.526	4379.55
710.516	4289.59
709.507	4318.52
708.497	4347.43
707.487	4373.86
706.477	4338.41
705.467	4394.53
704.456	4651.01
703.445	4481.96
702.434	4721.02
701.423	4571.8
700.412	4551.19
699.401	4533.05
698.389	4322.16
697.377	4439.97
696.365	4283.52
695.353	4228.4
694.34	4296.77
693.328	4209.56
692.315	4324.81
691.302	4353.63
690.289	4251.66
689.276	4250.88
688.262	4240.23
687.249	4340.57
686.235	4258.4
685.221	4240.36
684.206	4276.56
683.192	4248.66
682.177	4459.78
681.162	4286.52
680.147	4263.56
679.132	4509.04
678.117	4284.15
677.101	4362.14
676.086	4422.87
675.07	4301.48
674.054	4298.23
673.037	4267.92
672.021	4353.21
671.004	4406.51
669.987	4341.78
668.97	4483.55
667.953	4374.59
666.936	4427.84
665.918	4355.78
664.9	4337.78
663.882	4329.62
662.864	4240.43
661.846	4330.48
660.827	4314.96
659.808	4346.06
658.789	4315.82
657.77	4361.64
656.751	4265.18
655.731	4350.22
654.712	4415.62
653.692	4387.84
652.672	4391.93
651.652	4361.72
650.631	4444.21
649.611	4311.12
648.59	4322.57
647.569	4250.77
646.548	4289.15
645.526	4440.12
644.505	4343.86
643.483	4494.76
642.461	4378.95
641.439	4407.5
640.417	4423.8
639.394	4361.86
638.371	4351.28
637.348	4445.8
636.325	4584.27
635.302	4717.8
634.279	5032.04
633.255	5209.4
632.231	5406.23
631.207	5339.31
630.183	5186.99
629.159	4780.91
628.134	4699.51
627.109	4659.61
626.084	4495.33
625.059	4496.93
624.034	4444.9
623.008	4458.71
621.983	4421.32
620.957	4449.75
619.931	4507.4
618.904	4333.62
617.878	4430.24
616.851	4448.9
615.824	4572.25
614.797	4366.93
613.77	4434.27
612.743	4467.51
611.715	4471.55
610.687	4461
609.659	4491.79
608.631	4313.46
607.603	4327.25
606.574	4370.2
605.546	4335.37
604.517	4412.32
603.487	4333.77
602.458	4374.26
601.429	4448.73
600.399	4520.74
599.369	4517.48
598.339	4511.79
597.309	4508.53
596.278	4335.44
595.248	4421.96
594.217	4316.86
593.186	4447
592.155	4446.18
591.123	4406.57
590.091	4500.27
589.06	4295.91
588.028	4462.27
586.996	4459.02
585.963	4404.92
584.931	4367.79
583.898	4442.02
582.865	4414.58
581.832	4534.75
580.798	4439.55
579.765	4491.95
578.731	4585.44
577.697	4642.62
576.663	4421.76
575.629	4536.96
574.594	4548.21
573.56	4375.81
572.525	4382.25
571.49	4429.74
570.455	4431.34
569.419	4582.63
568.384	4364.52
567.348	4303.37
566.312	4510.1
565.276	4499.61
564.239	4424
563.203	4519.65
562.166	4559.8
561.129	4464.94
560.092	4526.78
559.054	4537.99
558.017	4594.98
556.979	4545.94
555.941	4492.11
554.903	4464.79
553.865	4512.11
552.826	4431.83
551.787	4322.7
550.749	4333.93
549.709	4410.12
548.67	4329.92
547.631	4370
546.591	4520.68
545.551	4481.38
544.511	4394.01
543.471	4405.21
542.43	4594.22
541.39	4485.26
540.349	4525.26
539.308	4536.42
538.267	4465.95
537.225	4565.95
536.184	4382.69
535.142	4533.05
534.1	4462.63
533.058	4411.43
532.015	4314.67
530.973	4251.53
529.93	4253.13
528.887	4278.71
527.844	4253.95
526.801	4219.61
525.757	4312.26
524.713	4359.36
523.669	4339.39
522.625	4467.88
521.581	4452.69
520.537	4427.93
519.492	4501.29
518.447	4507.63
517.402	4509.18
516.357	4410.28
515.311	4540.98
514.265	4379.95
513.22	4362.4
512.174	4234.93
511.127	4212.63
510.081	4219.02
509.034	4096.41
507.987	4093.26
506.94	4063.85
505.893	4184.84
504.846	4265.21
503.798	4242.94
502.75	4301.8
501.702	4150.72
500.654	4424.22
499.606	4418.63
