3200.66	21.0496
3200.06	50.5189
3199.47	29.4649
3198.87	50.5037
3198.28	33.664
3197.69	25.2442
3197.09	16.8269
3196.5	42.061
3195.9	21.0273
3195.31	33.6386
3194.71	42.0419
3194.12	42.0355
3193.52	25.2175
3192.93	0
3192.33	33.6132
3191.74	50.4121
3191.14	8.40075
3190.55	20.9987
3189.95	37.7919
3189.36	33.5878
3188.76	67.1653
3188.17	41.972
3187.57	37.7691
3186.97	33.5674
3186.38	20.9765
3185.78	29.3626
3185.19	29.3582
3184.59	33.5471
3183.99	41.9276
3183.4	37.7291
3182.8	58.6808
3182.2	29.336
3181.61	33.5217
3181.01	8.37917
3180.41	62.8343
3179.82	54.4481
3179.22	54.4399
3178.62	20.9352
3178.03	71.169
3177.43	25.1147
3176.83	62.7772
3176.23	16.7381
3175.64	46.0227
3175.04	16.733
3174.44	46.0087
3173.84	25.0919
3173.25	54.3575
3172.65	37.6264
3172.05	33.4406
3171.45	37.615
3170.85	25.0729
3170.26	37.6036
3169.66	58.4857
3169.06	66.8306
3168.46	25.0577
3167.86	0
3167.26	4.17502
3166.66	45.9182
3166.06	45.9113
3165.47	54.2505
3164.87	20.8624
3164.27	50.0622
3163.67	29.1986
3163.07	20.8529
3162.47	70.8893
3161.87	37.5239
3161.27	25.0122
3160.67	41.6806
3160.07	29.172
3159.47	25.0008
3158.87	-4.16617
3158.27	33.3243
3157.67	33.3192
3157.07	29.1499
3156.47	16.6546
3155.87	16.652
3155.27	41.6238
3154.67	33.294
3154.07	33.2889
3153.46	0
3152.86	29.119
3152.26	49.9106
3151.66	58.2203
3151.06	33.2637
3150.46	12.472
3149.86	29.0969
3149.26	45.7167
3148.65	49.8652
3148.05	12.4644
3147.45	41.5417
3146.85	45.689
3146.25	12.4587
3145.64	49.8274
3145.04	29.0616
3144.44	29.0572
3143.84	8.30079
3143.24	70.546
3142.63	45.6405
3142.03	29.0395
3141.43	33.183
3140.82	24.8835
3140.22	49.7594
3139.62	24.8759
3139.02	78.7617
3138.41	24.8684
3137.81	29.0087
3137.21	41.4347
3136.6	45.5712
3136	33.1377
3135.4	66.2653
3134.79	41.4095
3134.19	62.1048
3133.58	41.3969
3132.98	49.6688
3132.38	37.2459
3131.77	49.6537
3131.17	28.9602
3130.56	49.6386
3129.96	16.5437
3129.35	33.0823
3128.75	12.404
3128.14	53.7424
3127.54	45.4675
3126.93	61.9917
3126.33	28.925
3125.72	28.9206
3125.12	37.178
3124.51	66.0842
3123.91	49.5556
3123.3	49.5481
3122.7	33.027
3122.09	41.2775
3121.49	57.7798
3120.88	53.6445
3120.27	49.5104
3119.67	33.0019
3119.06	45.3708
3118.46	24.7439
3117.85	82.4672
3117.24	24.7364
3116.64	65.9537
3116.03	37.0933
3115.42	32.9668
3114.82	28.8416
3114.21	41.196
3113.6	32.9518
3113	37.0651
3112.39	45.2949
3111.78	53.5222
3111.17	28.8153
3110.57	41.1584
3109.96	61.7282
3109.35	82.2917
3108.74	41.1396
3108.14	53.4733
3107.53	49.3525
3106.92	53.4571
3106.31	32.8916
3105.7	57.5516
3105.1	32.8816
3104.49	28.767
3103.88	32.8716
3103.27	49.2999
3102.66	28.7539
3102.05	24.6424
3101.44	65.7032
3100.84	49.2699
3100.23	4.1052
3099.62	45.1503
3099.01	41.0395
3098.4	53.3432
3097.79	49.2324
3097.18	12.3062
3096.57	41.0145
3095.96	57.4115
3095.35	45.1022
3094.74	28.697
3094.13	40.9895
3093.52	24.5899
3092.91	69.6609
3092.3	65.5532
3091.69	57.3503
3091.08	16.3833
3090.47	57.3328
3089.86	28.662
3089.25	57.3153
3088.64	73.6799
3088.03	85.9468
3087.42	57.2891
3086.81	49.0975
3086.19	53.1808
3085.58	77.714
3084.97	65.4334
3084.36	69.5123
3083.75	65.4134
3083.14	69.4911
3082.53	69.4805
3081.91	73.5564
3081.3	57.2018
3080.69	106.216
3080.08	24.5076
3079.47	77.5955
3078.85	69.417
3078.24	89.82
3077.63	77.56
3077.02	57.1407
3076.4	65.2937
3075.79	73.4442
3075.18	57.1146
3074.57	48.9479
3073.95	81.5674
3073.34	65.2439
3072.73	57.0797
3072.11	52.9945
3071.5	40.7588
3070.89	69.2794
3070.27	28.5224
3069.66	52.9622
3069.05	61.1008
3068.43	32.5821
3067.82	52.9379
3067.2	81.4305
3066.59	40.709
3065.98	36.6325
3065.36	52.9056
3064.75	48.8284
3064.13	56.9578
3063.52	44.7457
3062.9	85.4106
3062.29	52.8652
3061.67	24.3956
3061.06	40.6531
3060.44	48.7762
3059.83	65.0251
3059.21	73.142
3058.6	60.9424
3057.98	40.622
3057.37	60.9237
3056.75	69.0363
3056.14	32.4827
3055.52	64.9555
3054.9	40.591
3054.29	56.8187
3053.67	56.81
3053.06	73.0303
3052.44	60.8493
3051.82	52.728
3051.21	68.9414
3050.59	48.6571
3049.97	8.10827
3049.36	36.4817
3048.74	24.3174
3048.12	60.7842
3047.51	48.6199
3046.89	52.6635
3046.27	85.0588
3045.65	36.4482
3045.04	60.7377
3044.42	64.777
3043.8	56.6712
3043.18	44.5205
3042.57	32.3736
3041.95	40.4608
3041.33	40.4546
3040.71	48.5381
3040.09	76.8403
3039.48	72.7849
3038.86	60.6448
3038.24	44.4661
3037.62	72.7515
3037	52.5347
3036.38	44.4456
3035.76	56.5585
3035.14	68.6677
3034.53	60.5798
3033.91	28.2663
3033.29	52.4865
3032.67	68.6256
3032.05	84.7599
3031.43	44.3912
3030.81	72.629
3030.19	60.5149
3029.57	48.4045
3028.95	80.6619
3028.33	36.2923
3027.71	56.446
3027.09	72.5623
3026.47	44.3368
3025.85	84.6301
3025.23	76.5584
3024.61	56.4028
3023.99	80.5631
3023.37	52.358
3022.75	76.5114
3022.13	80.526
3021.5	56.3596
3020.88	88.5515
3020.26	56.3423
3019.64	72.429
3019.02	88.5108
3018.4	52.2938
3017.78	72.3957
3017.15	84.4487
3016.53	64.332
3015.91	60.302
3015.29	84.4098
3014.67	60.2835
3014.04	60.2743
3013.42	76.3357
3012.8	60.2558
3012.18	48.1972
3011.56	28.1107
3010.93	88.3345
3010.31	44.1605
3009.69	52.1816
3009.06	56.187
3008.44	56.1784
3007.82	40.1212
3007.19	52.1496
3006.57	84.2287
3005.95	76.1953
3005.32	92.2222
3004.7	72.1628
3004.08	68.1433
3003.45	76.1485
3002.83	80.144
3002.21	64.1054
3001.58	60.0896
3000.96	88.1178
3000.33	48.0569
2999.71	52.0536
2999.08	100.088
2998.46	36.0261
2997.84	68.0388
2997.21	72.03
2996.59	88.0231
2995.96	40.0044
2995.34	75.9966
2994.71	63.9873
2994.09	59.9789
2993.46	67.9657
2992.83	83.9447
2992.21	43.9643
2991.58	87.915
2990.96	71.9194
2990.33	63.9186
2989.71	35.9487
2989.08	35.9431
2988.45	39.9307
2987.83	67.8717
2987.2	71.8532
2986.58	75.8333
2985.95	59.8592
2985.32	83.79
2984.7	71.809
2984.07	39.8877
2983.44	87.7396
2982.82	115.639
2982.19	71.7648
2981.56	95.6717
2980.93	99.6427
2980.31	79.7019
2979.68	91.6431
2979.05	99.5968
2978.42	75.6819
2977.8	63.7223
2977.17	83.6227
2976.54	95.5541
2975.91	59.7121
2975.28	87.5643
2974.66	83.5713
2974.03	123.348
2973.4	107.416
2972.77	99.4437
2972.14	59.657
2971.51	63.6244
2970.88	83.4941
2970.26	119.259
2969.63	119.241
2969	103.326
2968.37	99.3366
2967.74	95.3485
2967.11	75.4726
2966.48	55.6028
2965.85	99.2754
2965.22	111.171
2964.59	119.094
2963.96	103.199
2963.33	107.151
2962.7	126.975
2962.07	75.3797
2961.44	87.2683
2960.81	134.848
2960.18	126.897
2959.55	99.1227
2958.92	114.965
2958.29	95.1285
2957.66	122.855
2957.03	103.024
2956.4	71.3134
2955.76	122.799
2955.13	102.976
2954.5	110.881
2953.87	142.539
2953.24	122.723
2952.61	110.829
2951.98	126.643
2951.34	150.365
2950.71	98.9091
2950.08	134.496
2949.45	126.565
2948.82	130.5
2948.18	134.433
2947.55	126.506
2946.92	134.392
2946.29	138.323
2945.65	162.011
2945.02	158.035
2944.39	138.259
2943.76	118.49
2943.12	157.962
2942.49	153.989
2941.86	161.861
2941.22	153.942
2940.59	161.811
2939.96	232.814
2939.32	181.488
2938.69	189.35
2938.05	193.265
2937.42	240.558
2936.79	205.034
2936.15	212.887
2935.52	204.971
2934.88	244.35
2934.25	248.253
2933.61	248.215
2932.98	244.237
2932.34	244.2
2931.71	279.605
2931.08	236.249
2930.44	287.392
2929.81	275.539
2929.17	251.883
2928.53	291.194
2927.9	287.215
2927.26	302.906
2926.63	251.727
2925.99	251.688
2925.36	263.445
2924.72	259.473
2924.08	310.534
2923.45	286.904
2922.81	286.86
2922.18	263.242
2921.54	259.273
2920.9	259.233
2920.27	298.464
2919.63	337.684
2918.99	302.298
2918.36	286.55
2917.72	310.054
2917.08	294.31
2916.44	321.729
2915.81	290.296
2915.17	349.086
2914.53	286.284
2913.9	309.767
2913.26	286.196
2912.62	246.953
2911.98	325.3
2911.34	317.413
2910.71	289.937
2910.07	360.406
2909.43	336.85
2908.79	289.803
2908.15	344.577
2907.51	328.863
2906.88	364.042
2906.24	387.469
2905.6	367.843
2904.96	387.349
2904.32	375.553
2903.68	398.963
2903.04	355.883
2902.4	355.828
2901.76	398.778
2901.12	441.715
2900.48	383.021
2899.84	394.685
2899.2	398.532
2898.56	406.283
2897.92	421.844
2897.28	437.4
2896.64	460.761
2896	429.456
2895.36	445.004
2894.72	421.518
2894.08	394.136
2893.44	409.682
2892.8	417.421
2892.16	425.157
2891.52	479.69
2890.88	487.414
2890.24	440.554
2889.59	537.939
2888.95	483.291
2888.31	487.113
2887.67	475.348
2887.03	525.919
2886.39	482.991
2885.74	525.756
2885.1	572.401
2884.46	533.379
2883.82	568.331
2883.18	579.919
2882.53	665.441
2881.89	688.683
2881.25	735.26
2880.6	824.608
2879.96	735.032
2879.32	859.349
2878.68	894.206
2878.03	862.969
2877.39	761.783
2876.75	761.665
2876.1	625.556
2875.46	602.15
2874.82	520.488
2874.17	508.756
2873.53	524.209
2872.88	500.834
2872.24	446.41
2871.6	461.866
2870.95	419.107
2870.31	430.682
2869.66	418.977
2869.02	438.307
2868.37	395.578
2867.73	399.394
2867.08	434.226
2866.44	426.405
2865.79	399.208
2865.15	437.899
2864.5	445.58
2863.86	468.755
2863.21	429.948
2862.57	429.881
2861.92	437.559
2861.28	414.261
2860.63	487.746
2859.98	402.522
2859.34	472.115
2858.69	452.696
2858.05	557.078
2857.4	514.444
2856.75	529.833
2856.11	498.817
2855.46	537.401
2854.81	572.108
2854.17	560.424
2853.52	564.201
2852.87	552.522
2852.23	587.205
2851.58	594.839
2850.93	637.229
2850.28	629.407
2849.64	679.5
2848.99	656.233
2848.34	629.114
2847.69	791.094
2847.05	767.82
2846.4	725.265
2845.75	786.868
2845.1	802.172
2844.45	740.351
2843.8	817.344
2843.16	782.524
2842.51	751.569
2841.86	685.941
2841.21	681.981
2840.56	662.613
2839.91	570.067
2839.26	589.234
2838.61	481.325
2837.96	423.5
2837.31	423.435
2836.66	388.73
2836.01	407.91
2835.36	323.199
2834.72	292.373
2834.07	300.02
2833.42	311.511
2832.76	253.784
2832.11	246.056
2831.46	215.265
2830.81	207.545
2830.16	226.727
2829.51	184.427
2828.86	161.348
2828.21	199.734
2827.56	111.373
2826.91	180.472
2826.26	191.962
2825.61	142.03
2824.96	168.874
2824.3	149.66
2823.65	118.942
2823	164.959
2822.35	153.426
2821.7	141.897
2821.04	126.537
2820.39	118.85
2819.74	118.831
2819.09	130.311
2818.44	126.458
2817.78	122.607
2817.13	130.25
2816.48	114.908
2815.83	172.336
2815.17	88.0689
2814.52	118.683
2813.87	118.665
2813.21	118.646
2812.56	91.8408
2811.91	88.0004
2811.25	114.765
2810.6	149.171
2809.95	141.5
2809.29	141.478
2808.64	152.925
2807.98	114.676
2807.33	76.4386
2806.68	114.64
2806.02	118.443
2805.37	110.784
2804.71	118.406
2804.06	99.2927
2803.4	99.2772
2802.75	148.893
2802.09	110.698
2801.44	110.681
2800.78	103.031
2800.13	141.169
2799.47	106.814
2798.82	122.054
2798.16	114.408
2797.51	129.642
2796.85	102.935
2796.19	114.354
2795.54	121.959
2794.88	87.6442
2794.23	125.731
2793.57	125.711
2792.91	118.074
2792.26	114.247
2791.6	102.806
2790.94	114.212
2790.29	137.032
2789.63	72.3114
2788.97	98.937
2788.32	140.773
2787.66	136.947
2787	98.8907
2786.34	98.8752
2785.69	136.883
2785.03	121.655
2784.37	91.2267
2783.71	98.8135
2783.06	129.197
2782.4	117.779
2781.74	113.962
2781.08	94.9536
2780.42	148.104
2779.76	117.706
2779.11	106.298
2778.45	94.8943
2777.79	113.855
2777.13	102.454
2776.47	106.232
2775.81	98.6284
2775.15	125.163
2774.49	166.857
2773.83	113.749
2773.17	117.522
2772.51	132.665
2771.86	117.485
2771.2	136.413
2770.54	117.448
2769.88	125.006
2769.22	109.837
2768.56	132.541
2767.9	143.879
2767.23	121.142
2766.57	109.768
2765.91	136.242
2765.25	136.221
2764.59	102.15
2763.93	109.699
2763.27	136.157
2762.61	86.9757
2761.95	128.553
2761.29	120.972
2760.63	124.733
2759.96	132.272
2759.3	158.701
2758.64	109.562
2757.98	120.877
2757.32	132.189
2756.65	101.958
2755.99	158.577
2755.33	132.127
2754.67	120.783
2754.01	128.311
2753.34	101.878
2752.68	120.726
2752.02	147.112
2751.35	128.231
2750.69	116.898
2750.03	116.88
2749.37	124.401
2748.7	90.4594
2748.04	113.057
2747.38	113.039
2746.71	105.486
2746.05	128.071
2745.38	105.453
2744.72	128.03
2744.06	97.8902
2743.39	120.461
2742.73	135.498
2742.06	124.187
2741.4	142.981
2740.73	142.958
2740.07	135.413
2739.41	150.435
2738.74	154.172
2738.08	105.272
2737.41	157.883
2736.75	112.756
2736.08	131.528
2735.41	135.264
2734.75	127.73
2734.08	123.954
2733.42	135.201
2732.75	131.425
2732.09	150.176
2731.42	180.183
2730.75	172.648
2730.09	150.105
2729.42	183.85
2728.76	176.318
2728.09	165.038
2727.42	183.764
2726.76	142.488
2726.09	217.448
2725.42	157.438
2724.75	176.153
2724.09	206.104
2723.42	176.097
2722.75	187.308
2722.09	168.551
2721.42	190.994
2720.75	179.731
2720.08	202.166
2719.41	209.62
2718.75	202.102
2718.08	209.555
2717.41	194.556
2716.74	145.894
2716.07	172.053
2715.41	209.423
2714.74	149.564
2714.07	157.018
2713.4	198.111
2712.73	164.443
2712.06	227.942
2711.39	175.6
2710.72	153.159
2710.05	183.015
2709.38	134.439
2708.71	168.022
2708.04	141.863
2707.37	153.039
2706.7	145.551
2706.03	164.185
2705.36	167.89
2704.69	152.943
2704.02	145.459
2703.35	160.353
2702.68	167.785
2702.01	145.391
2701.34	160.277
2700.67	182.613
2700	171.405
2699.33	145.299
2698.66	156.451
2697.99	130.356
2697.32	152.678
2696.64	171.271
2695.97	104.235
2695.3	160.051
2694.63	133.975
2693.96	122.791
2693.29	159.975
2692.61	148.791
2691.94	119.014
2691.27	174.774
2690.6	111.54
2689.92	193.306
2689.25	167.258
2688.58	115.204
2687.91	144.911
2687.23	152.318
2686.56	174.581
2685.89	167.126
2685.21	144.82
2684.54	178.212
2683.87	133.638
2683.19	170.732
2682.52	144.729
2681.85	126.154
2681.17	148.393
2680.5	163.206
2679.82	122.386
2679.15	140.907
2678.48	118.64
2677.8	122.328
2677.13	174.197
2676.45	155.641
2675.78	159.321
2675.1	148.183
2674.43	148.159
2673.75	162.95
2673.08	155.518
2672.4	140.685
2671.73	136.961
2671.05	144.342
2670.37	196.126
2669.7	144.296
2669.02	125.777
2668.35	162.744
2667.67	140.53
2667	151.6
2666.32	181.152
2665.64	125.678
2664.97	133.049
2664.29	158.895
2663.61	133.008
2662.94	158.845
2662.26	147.74
2661.58	158.795
2660.91	162.462
2660.23	155.053
2659.55	125.499
2658.87	121.789
2658.2	147.6
2657.52	125.44
2656.84	165.997
2656.16	154.906
2655.49	177.008
2654.81	132.735
2654.13	129.028
2653.45	162.18
2652.77	176.896
2652.09	143.706
2651.42	128.946
2650.74	191.547
2650.06	154.687
2649.38	139.932
2648.7	114.137
2648.02	150.932
2647.34	150.908
2646.66	161.925
2645.98	161.899
2645.3	139.8
2644.62	150.813
2643.94	169.178
2643.26	154.442
2642.58	176.478
2641.9	158.07
2641.22	165.396
2640.54	143.32
2639.86	143.298
2639.18	150.622
2638.5	150.599
2637.82	146.902
2637.14	172.583
2636.46	135.842
2635.78	146.833
2635.1	179.842
2634.42	128.438
2633.73	128.418
2633.05	172.419
2632.37	179.728
2631.69	143.026
2631.01	161.337
2630.33	139.315
2629.64	142.958
2628.96	131.941
2628.28	164.9
2627.6	135.563
2626.91	109.898
2626.23	179.472
2625.55	168.457
2624.87	157.446
2624.18	131.795
2623.5	153.736
2622.82	182.99
2622.13	153.687
2621.45	171.956
2620.77	171.929
2620.08	149.957
2619.4	164.561
2618.72	171.847
2618.03	168.165
2617.35	160.828
2616.67	135.22
2615.98	168.085
2615.3	127.87
2614.61	171.684
2613.93	178.962
2613.24	178.933
2612.56	135.092
2611.87	200.78
2611.19	135.049
2610.5	113.131
2609.82	156.899
2609.13	153.226
2608.45	160.497
2607.76	153.177
2607.08	116.688
2606.39	153.129
2605.71	164.041
2605.02	105.698
2604.33	174.921
2603.65	123.883
2602.96	138.435
2602.27	149.341
2601.59	138.391
2600.9	185.707
2600.21	160.192
2599.53	152.886
2598.84	167.42
2598.15	163.755
2597.47	196.475
2596.78	181.892
2596.09	200.05
2595.41	156.378
2594.72	134.536
2594.03	159.964
2593.34	170.843
2592.65	145.375
2591.97	188.958
2591.28	156.229
2590.59	152.571
2589.9	170.708
2589.21	185.207
2588.52	156.13
2587.84	137.953
2587.15	156.08
2586.46	181.46
2585.77	188.688
2585.08	170.518
2584.39	174.119
2583.7	181.345
2583.01	141.426
2582.32	170.41
2581.63	221.135
2580.94	202.977
2580.25	173.953
2579.56	141.314
2578.87	134.046
2578.18	159.381
2577.49	184.708
2576.8	191.921
2576.11	162.926
2575.42	159.28
2574.73	173.732
2574.04	173.704
2573.35	173.677
2572.66	162.796
2571.97	159.153
2571.28	173.594
2570.58	166.335
2569.89	198.847
2569.2	195.2
2568.51	151.798
2567.82	162.615
2567.13	173.429
2566.43	148.113
2565.74	155.314
2565.05	191.403
2564.36	129.989
2563.66	173.291
2562.97	166.044
2562.28	108.272
2561.59	180.425
2560.89	173.181
2560.2	158.724
2559.51	147.878
2558.81	126.217
2558.12	144.226
2557.43	194.674
2556.73	147.784
2556.04	126.137
2555.35	165.754
2554.65	172.933
2553.96	118.873
2553.26	133.26
2552.57	165.648
2551.88	165.622
2551.18	165.596
2550.49	169.169
2549.79	143.95
2549.1	154.722
2548.4	154.698
2547.71	190.643
2547.01	136.666
2546.32	161.815
2545.62	183.362
2544.93	147.385
2544.23	168.927
2543.53	204.836
2542.84	190.431
2542.14	179.623
2541.45	165.227
2540.75	158.018
2540.05	157.993
2539.36	179.509
2538.66	161.532
2537.97	154.328
2537.27	154.304
2536.57	161.455
2535.88	143.493
2535.18	193.684
2534.48	175.723
2533.78	186.451
2533.09	168.497
2532.39	172.054
2531.69	189.946
2530.99	132.583
2530.3	168.389
2529.6	164.78
2528.9	175.499
2528.2	175.471
2527.5	182.604
2526.81	178.995
2526.11	204.022
2525.41	193.253
2524.71	203.956
2524.01	178.881
2523.31	132.351
2522.61	221.741
2521.91	164.491
2521.21	182.342
2520.52	168.014
2519.82	175.135
2519.12	146.518
2518.42	171.506
2517.72	182.197
2517.02	150.02
2516.32	182.138
2515.62	182.109
2514.92	171.37
2514.22	174.912
2513.52	171.315
2512.82	157.014
2512.11	171.26
2511.41	189.07
2510.71	189.04
2510.01	174.745
2509.31	171.151
2508.61	160.428
2507.91	199.612
2507.21	178.197
2506.5	174.605
2505.8	203.08
2505.1	163.863
2504.4	149.59
2503.7	178.055
2503	181.587
2502.29	167.318
2501.59	156.613
2500.89	170.823
2500.19	188.587
2499.48	163.653
2498.78	177.856
2498.08	213.393
2497.37	195.579
2496.67	220.435
2495.97	195.516
2495.26	188.376
2494.56	184.793
2493.86	145.679
2493.15	174.076
2492.45	195.36
2491.75	184.675
2491.04	177.543
2490.34	209.468
2489.63	191.685
2488.93	188.106
2488.22	209.367
2487.52	170.305
2486.81	202.205
2486.11	219.907
2485.41	173.77
2484.7	163.105
2483.99	177.26
2483.29	180.776
2482.58	177.203
2481.88	187.805
2481.17	155.889
2480.47	177.118
2479.76	194.798
2479.06	184.144
2478.35	201.817
2477.64	173.464
2476.94	162.818
2476.23	194.643
2475.52	198.15
2474.82	198.118
2474.11	180.4
2473.4	198.055
2472.7	183.878
2471.99	173.242
2471.28	219.17
2470.57	194.393
2469.87	180.227
2469.16	166.065
2468.45	208.431
2467.74	148.351
2467.04	173.048
2466.33	190.676
2465.62	236.541
2464.91	183.555
2464.2	218.819
2463.5	169.381
2462.79	186.995
2462.08	239.879
2461.37	162.245
2460.66	197.484
2459.95	162.193
2459.24	204.472
2458.53	211.489
2457.82	207.931
2457.11	207.897
2456.4	172.633
2455.69	197.263
2454.99	204.275
2454.28	225.371
2453.57	197.168
2452.85	165.454
2452.14	165.427
2451.43	190.035
2450.72	207.597
2450.01	161.83
2449.3	193.461
2448.59	186.396
2447.88	189.883
2447.17	214.463
2446.46	172.246
2445.75	175.733
2445.04	214.359
2444.32	200.271
2443.61	196.726
2442.9	196.694
2442.19	186.127
2441.48	207.165
2440.76	224.685
2440.05	200.078
2439.34	175.479
2438.63	182.469
2437.92	221.032
2437.2	206.965
2436.49	171.859
2435.78	210.406
2435.06	182.322
2434.35	203.327
2433.64	234.84
2432.92	213.775
2432.21	206.733
2431.5	227.72
2430.78	178.644
2430.07	203.131
2429.36	241.617
2428.64	217.07
2427.93	206.534
2427.21	206.501
2426.5	209.967
2425.78	178.443
2425.07	199.404
2424.35	178.386
2423.64	195.843
2422.92	195.812
2422.21	209.764
2421.49	202.74
2420.78	192.222
2420.06	199.18
2419.35	230.593
2418.63	216.582
2417.92	178.128
2417.2	206.036
2416.48	226.953
2415.77	205.97
2415.05	219.899
2414.34	219.863
2413.62	212.849
2412.9	202.349
2412.19	226.734
2411.47	205.771
2410.75	177.842
2410.04	219.651
2409.32	219.616
2408.6	230.037
2407.88	184.697
2407.17	195.12
2406.45	236.893
2405.73	212.473
2405.01	201.991
2404.29	250.707
2403.58	222.815
2402.86	215.817
2402.14	198.381
2401.42	222.707
2400.7	233.109
2399.98	226.114
2399.27	229.556
2398.55	232.996
2397.83	191.235
2397.11	194.681
2396.39	173.794
2395.67	253.698
2394.95	239.758
2394.23	215.4
2393.51	229.26
2392.79	215.331
2392.07	180.571
2391.35	218.734
2390.63	253.412
2389.91	222.134
2389.19	197.806
2388.47	208.183
2387.75	194.273
2387.03	194.242
2386.31	246.231
2385.59	197.647
2384.87	194.148
2384.14	207.982
2383.42	235.675
2382.7	197.519
2381.98	256.387
2381.26	197.456
2380.54	211.278
2379.82	238.948
2379.09	197.36
2378.37	218.1
2377.65	183.451
2376.93	214.569
2376.2	224.915
2375.48	211.04
2374.76	224.842
2374.04	197.137
2373.31	231.685
2372.59	262.765
2371.87	224.697
2371.14	224.661
2370.42	200.434
2369.7	269.506
2368.97	183.096
2368.25	224.516
2367.52	217.572
2366.8	255.52
2366.08	203.692
2365.35	238.178
2364.63	213.981
2363.9	276.059
2363.18	241.513
2362.45	179.381
2361.73	234.537
2361	213.808
2360.28	237.909
2359.55	206.844
2358.83	172.342
2358.1	244.686
2357.38	206.744
2356.65	196.375
2355.93	210.122
2355.2	237.64
2354.47	247.932
2353.75	213.463
2353.02	230.64
2352.3	240.928
2351.57	251.213
2350.84	251.173
2350.12	264.893
2349.39	237.333
2348.66	189.148
2347.94	230.379
2347.21	240.656
2346.48	192.493
2345.75	206.21
2345.03	250.848
2344.3	209.579
2343.57	233.591
2342.84	230.119
2342.11	188.873
2341.39	223.177
2340.66	209.409
2339.93	216.24
2339.2	209.341
2338.47	209.308
2337.74	243.581
2337.02	222.961
2336.29	240.072
2335.56	284.611
2334.83	257.137
2334.1	212.532
2333.37	202.216
2332.64	205.61
2331.91	232.987
2331.18	250.078
2330.45	246.612
2329.72	222.6
2328.99	256.804
2328.26	232.798
2327.53	225.915
2326.8	236.145
2326.07	232.685
2325.34	242.911
2324.61	229.189
2323.88	205.211
2323.14	249.633
2322.41	225.659
2321.68	239.296
2320.95	211.914
2320.22	252.888
2319.49	249.43
2318.76	249.39
2318.02	232.271
2317.29	235.648
2316.56	259.513
2315.83	256.056
2315.1	211.639
2314.36	262.799
2313.63	221.808
2312.9	225.184
2312.16	300.196
2311.43	245.575
2310.7	269.407
2309.97	248.905
2309.23	286.365
2308.5	286.319
2307.76	241.968
2307.03	258.966
2306.3	258.924
2305.56	269.101
2304.83	241.811
2304.1	248.582
2303.36	272.375
2302.63	255.31
2301.89	262.076
2301.16	268.839
2300.42	258.588
2299.69	251.742
2298.95	268.708
2298.22	224.454
2297.48	248.22
2296.75	231.181
2296.01	248.139
2295.28	258.294
2294.54	288.835
2293.8	258.211
2293.07	237.787
2292.33	278.505
2291.6	224.126
2290.86	207.113
2290.12	247.817
2289.39	234.2
2288.65	244.343
2287.91	278.234
2287.18	257.833
2286.44	281.535
2285.7	257.75
2284.97	284.835
2284.23	261.056
2283.49	247.455
2282.75	260.971
2282.01	294.816
2281.28	257.498
2280.54	267.619
2279.8	267.576
2279.06	284.465
2278.32	247.173
2277.59	264.06
2276.85	291.096
2276.11	284.28
2275.37	277.466
2274.63	287.57
2273.89	314.585
2273.15	246.892
2272.41	233.326
2271.67	236.669
2270.93	192.685
2270.19	233.212
2269.45	243.312
2268.71	310.848
2267.97	270.259
2267.23	263.459
2266.49	270.171
2265.75	270.127
2265.01	263.331
2264.27	253.161
2263.53	293.619
2262.79	263.202
2262.05	296.898
2261.31	283.356
2260.57	286.683
2259.83	306.869
2259.09	273.103
2258.34	256.203
2257.6	279.755
2256.86	269.599
2256.12	266.186
2255.38	259.405
2254.63	293.046
2253.89	282.895
2253.15	289.583
2252.41	316.47
2251.66	252.461
2250.92	286.076
2250.18	252.379
2249.43	262.431
2248.69	245.569
2247.95	269.073
2247.21	242.126
2246.46	242.087
2245.72	268.941
2244.97	268.897
2244.23	309.182
2243.49	315.851
2242.74	262.047
2242	282.158
2241.25	339.206
2240.51	275.35
2239.76	345.81
2239.02	305.472
2238.27	258.434
2237.53	271.815
2236.78	291.902
2236.04	311.982
2235.29	298.515
2234.55	274.991
2233.8	268.24
2233.06	261.492
2232.31	278.208
2231.57	281.514
2230.82	301.573
2230.07	301.524
2229.33	267.978
2228.58	301.426
2227.83	264.542
2227.09	271.195
2226.34	321.363
2225.59	297.882
2224.85	331.298
2224.1	274.363
2223.35	267.628
2222.6	250.86
2221.86	284.262
2221.11	277.528
2220.36	277.483
2219.61	307.521
2218.87	280.734
2218.12	280.688
2217.37	314.052
2216.62	324.022
2215.87	290.57
2215.12	267.147
2214.37	293.814
2213.63	320.472
2212.88	263.679
2212.13	283.659
2211.38	333.662
2210.63	293.574
2209.88	340.224
2209.13	296.813
2208.38	283.427
2207.63	260.043
2206.88	276.668
2206.13	266.624
2205.38	289.906
2204.63	293.19
2203.88	259.831
2203.13	273.111
2202.38	329.677
2201.63	259.703
2200.88	229.7
2200.12	266.275
2199.37	306.166
2198.62	312.771
2197.87	282.779
2197.12	296.037
2196.37	325.92
2195.62	309.241
2194.86	279.269
2194.11	305.816
2193.36	299.119
2192.61	325.654
2191.85	305.666
2191.1	275.719
2190.35	332.137
2189.6	292.232
2188.84	325.387
2188.09	278.858
2187.34	262.216
2186.58	262.173
2185.83	301.948
2185.08	288.628
2184.32	308.483
2183.57	334.964
2182.82	351.489
2182.06	351.431
2181.31	324.855
2180.55	304.916
2179.8	341.317
2179.04	301.503
2178.29	351.143
2177.53	308.028
2176.78	317.912
2176.02	317.86
2175.27	294.635
2174.51	344.236
2173.76	321.013
2173	277.945
2172.25	327.525
2171.49	367.165
2170.74	353.875
2169.98	300.91
2169.22	300.861
2168.47	323.951
2167.71	360.253
2166.95	323.844
2166.2	310.575
2165.44	300.614
2164.68	330.291
2163.93	333.539
2163.17	313.673
2162.41	297.116
2161.65	283.864
2160.9	300.318
2160.14	339.865
2159.38	379.399
2158.62	303.469
2157.87	263.843
2157.11	329.749
2156.35	362.665
2155.59	299.973
2154.83	332.883
2154.07	342.714
2153.31	362.427
2152.56	339.307
2151.8	309.608
2151.04	309.557
2150.28	319.385
2149.52	348.961
2148.76	289.656
2148	319.227
2147.24	381.693
2146.48	328.992
2145.72	315.78
2144.96	345.328
2144.2	286.082
2143.44	368.229
2142.68	305.711
2141.92	299.088
2141.16	305.611
2140.4	308.846
2139.64	328.506
2138.87	321.883
2138.11	302.126
2137.35	305.36
2136.59	341.421
2135.83	298.695
2135.07	328.182
2134.31	315.003
2133.54	351.039
2132.78	288.658
2132.02	318.127
2131.26	314.796
2130.49	360.644
2129.73	321.248
2128.97	380.19
2128.21	363.743
2127.44	330.919
2126.68	314.485
2125.92	307.883
2125.15	343.855
2124.39	317.604
2123.63	337.194
2122.86	340.412
2122.1	353.446
2121.33	327.211
2120.57	369.688
2119.81	287.851
2119.04	333.591
2118.28	330.266
2117.51	307.326
2116.75	333.426
2115.98	333.371
2115.22	349.655
2114.45	310.39
2113.69	333.206
2112.92	310.288
2112.16	362.488
2111.39	401.609
2110.62	349.31
2109.86	316.612
2109.09	358.985
2108.33	362.189
2107.56	368.654
2106.79	329.451
2106.03	362.01
2105.26	342.385
2104.49	316.247
2103.73	384.649
2102.96	351.994
2102.19	316.09
2101.42	387.717
2100.66	338.789
2099.89	351.762
2099.12	351.704
2098.35	367.926
2097.59	371.12
2096.82	354.785
2096.05	331.945
2095.28	370.937
2094.51	364.369
2093.74	357.803
2092.98	367.501
2092.21	347.93
2091.44	370.631
2090.67	331.562
2089.9	380.259
2089.13	376.946
2088.36	360.639
2087.59	350.834
2086.82	318.297
2086.05	360.461
2085.28	347.414
2084.51	370.081
2083.74	383.003
2082.97	373.204
2082.2	395.855
2081.43	382.813
2080.66	343.826
2079.89	379.443
2079.12	385.866
2078.35	363.108
2077.57	376.014
2076.8	405.121
2076.03	379.13
2075.26	388.787
2074.49	330.415
2073.72	349.793
2072.94	356.212
2072.17	362.628
2071.4	343.145
2070.63	346.325
2069.86	368.921
2069.08	342.975
2068.31	365.564
2067.54	342.862
2066.76	397.783
2065.99	365.383
2065.22	358.856
2064.44	358.797
2063.67	371.665
2062.9	403.917
2062.12	336.003
2061.35	407.014
2060.58	358.5
2059.8	368.129
2059.03	371.296
2058.25	368.007
2057.48	380.856
2056.7	429.199
2055.93	403.316
2055.15	387.119
2054.38	409.633
2053.6	399.891
2052.83	361.132
2052.05	390.087
2051.28	390.022
2050.5	354.507
2049.72	386.671
2048.95	399.494
2048.17	370.437
2047.4	428.348
2046.62	402.516
2045.84	360.594
2045.07	363.754
2044.29	354.038
2043.51	408.685
2042.74	415.052
2041.96	392.465
2041.18	414.915
2040.4	360.176
2039.63	421.208
2038.85	408.279
2038.07	356.783
2037.29	420.999
2036.52	379.157
2035.74	395.158
2034.96	424.002
2034.18	382.18
2033.4	362.851
2032.62	362.791
2031.84	430.14
2031.07	401.184
2030.29	407.535
2029.51	404.259
2028.73	439.479
2027.95	397.711
2027.17	416.885
2026.39	455.292
2025.61	445.599
2024.83	410.268
2024.05	416.609
2023.27	416.54
2022.49	422.878
2021.71	419.605
2020.93	413.13
2020.15	393.849
2019.37	461.015
2018.59	422.527
2017.8	467.263
2017.02	406.388
2016.24	422.317
2015.46	431.843
2014.68	415.78
2013.9	450.887
2013.11	418.839
2012.33	431.557
2011.55	425.093
2010.77	441
2009.99	418.561
2009.2	431.27
2008.42	463.139
2007.64	443.901
2006.85	424.669
2006.07	462.908
2005.29	408.568
2004.5	379.778
2003.72	475.441
2002.94	395.603
2002.15	440.195
2001.37	436.933
2000.59	449.615
1999.8	478.235
1999.02	433.527
1998.23	449.391
1997.45	468.436
1996.66	411.008
1995.88	439.61
1995.09	496.868
1994.31	401.25
1993.52	439.391
1992.74	461.602
1991.95	445.611
1991.17	442.354
1990.38	435.917
1989.6	439.026
1988.81	438.953
1988.02	467.502
1987.24	413.369
1986.45	457.809
1985.67	502.235
1984.88	470.37
1984.09	467.114
1983.3	524.224
1982.52	486.018
1981.73	435.12
1980.94	479.505
1980.16	447.675
1979.37	466.647
1978.58	460.222
1977.79	514.093
1977.01	498.143
1976.22	447.303
1975.43	491.634
1974.64	418.612
1973.85	500.982
1973.06	424.813
1972.27	481.797
1971.49	456.363
1970.7	475.299
1969.91	506.901
1969.12	516.32
1968.33	446.558
1967.54	500.315
1966.75	478.07
1965.96	452.666
1965.17	490.57
1964.38	487.324
1963.59	477.751
1962.8	531.449
1962.01	550.337
1961.22	461.7
1960.43	512.212
1959.64	496.321
1958.85	480.434
1958.06	530.917
1957.26	549.787
1956.47	483.353
1955.68	495.907
1954.89	530.563
1954.1	438.905
1953.31	476.716
1952.51	520.828
1951.72	473.401
1950.93	530.121
1950.14	479.553
1949.34	501.554
1948.55	517.24
1947.76	542.381
1946.97	513.915
1946.17	507.524
1945.38	564.172
1944.59	488.447
1943.79	463.16
1943	500.885
1942.21	513.4
1941.41	500.718
1940.62	494.337
1939.82	541.476
1939.03	531.943
1938.24	494.089
1937.44	534.912
1936.65	468.756
1935.85	500.133
1935.06	522.064
1934.26	575.432
1933.47	534.465
1932.67	509.229
1931.88	502.858
1931.08	490.205
1930.28	474.414
1929.49	552.867
1928.69	521.367
1927.9	530.7
1927.1	580.847
1926.3	517.966
1925.51	511.602
1924.71	536.622
1923.91	511.431
1923.12	533.305
1922.32	501.85
1921.52	555.079
1920.73	551.851
1919.93	548.624
1919.13	564.204
1918.33	579.779
1917.53	507.614
1916.74	529.459
1915.94	529.371
1915.14	557.469
1914.34	482.224
1913.54	544.759
1912.74	547.798
1911.95	525.798
1911.15	525.71
1910.35	556.909
1909.55	513.022
1908.75	556.723
1907.95	572.265
1907.15	540.903
1906.35	584.578
1905.55	575.104
1904.75	556.257
1903.95	596.783
1903.15	527.955
1902.35	574.718
1901.55	521.532
1900.75	587.016
1899.95	580.673
1899.15	564.969
1898.35	561.754
1897.54	561.66
1896.74	533.487
1895.94	567.71
1895.14	586.328
1894.34	589.348
1893.54	517.541
1892.73	660.846
1891.93	536.068
1891.13	535.978
1890.33	598.201
1889.53	588.755
1888.72	582.427
1887.92	579.216
1887.12	529.302
1886.31	600.812
1885.51	578.924
1884.71	581.939
1883.9	591.176
1883.1	572.411
1882.3	534.99
1881.49	531.791
1880.69	587.67
1879.88	581.354
1879.08	537.74
1878.28	509.679
1877.47	531.345
1876.67	599.604
1875.86	515.635
1875.06	565.24
1874.25	608.618
1873.45	614.725
1872.64	605.31
1871.84	524.514
1871.03	558.56
1870.22	623.62
1869.42	632.822
1868.61	558.278
1867.81	629.508
1867	595.297
1866.19	616.897
1865.39	601.296
1864.58	594.997
1863.77	563.913
1862.97	625.776
1862.16	588.503
1861.35	622.469
1860.54	588.305
1859.74	625.356
1858.93	600.488
1858.12	618.956
1857.31	594.098
1856.51	597.092
1855.7	652.669
1854.89	634.004
1854.08	593.699
1853.27	646.157
1852.46	599.681
1851.65	649.03
1850.84	568.579
1850.04	624.096
1849.23	605.456
1848.42	667.125
1847.61	629.957
1846.8	660.726
1845.99	601.962
1845.18	657.417
1844.37	638.791
1843.56	617.085
1842.75	687.934
1841.94	629.215
1841.13	595.187
1840.31	684.504
1839.5	607.318
1838.69	625.71
1837.88	644.095
1837.07	643.987
1836.26	591.505
1835.45	634.529
1834.64	600.545
1833.82	615.84
1833.01	581.871
1832.2	634.102
1831.39	590.908
1830.57	646.197
1829.76	630.705
1828.95	636.751
1828.14	664.324
1827.32	602.711
1826.51	608.758
1825.7	700.876
1824.88	633.141
1824.07	663.764
1823.26	580.696
1822.44	654.325
1821.63	657.286
1820.81	718.594
1820	663.205
1819.19	638.535
1818.37	681.398
1817.56	684.352
1816.74	708.783
1815.93	659.579
1815.11	613.458
1814.3	631.755
1813.48	628.583
1812.67	695.923
1811.85	726.458
1811.03	637.459
1810.22	689.442
1809.4	640.307
1808.59	624.884
1807.77	618.653
1806.95	692.039
1806.14	694.984
1805.32	691.806
1804.5	648.841
1803.69	627.311
1802.87	682.277
1802.05	703.575
1801.24	642.286
1800.42	706.396
1799.6	687.931
1798.78	608.334
1797.96	693.812
1797.15	742.59
1796.33	638.58
1795.51	678.186
1794.69	598.658
1793.87	653.526
1793.05	674.789
1792.23	686.887
1791.42	689.823
1790.6	714.121
1789.78	646.872
1788.96	686.423
1788.14	671.055
1787.32	637.395
1786.5	679.976
1785.68	631.082
1784.86	688.891
1784.04	697.918
1783.22	706.941
1782.4	685.495
1781.58	712.794
1780.76	685.263
1779.93	648.606
1779.11	660.675
1778.29	654.475
1777.47	666.539
1776.65	678.598
1775.83	721.079
1775.01	699.663
1774.18	757.333
1773.36	681.18
1772.54	705.389
1771.72	665.75
1770.89	753.781
1770.07	677.68
1769.25	701.873
1768.43	744.285
1767.6	689.486
1766.78	737.959
1765.96	707.471
1765.13	713.423
1764.31	722.408
1763.49	773.877
1762.66	658.443
1761.84	737.21
1761.01	740.118
1760.19	706.633
1759.36	758.061
1758.54	697.298
1757.72	721.43
1756.89	715.246
1756.07	736.336
1755.24	754.39
1754.41	781.524
1753.59	723.848
1752.76	802.457
1751.94	781.127
1751.11	847.591
1750.29	750.596
1749.46	789.808
1748.63	756.393
1747.81	795.591
1746.98	713.793
1746.15	768.105
1745.33	822.398
1744.5	795.051
1743.67	852.344
1742.85	840.112
1742.02	839.969
1741.19	885.141
1740.36	863.848
1739.54	854.642
1738.71	872.613
1737.88	905.673
1737.05	987.016
1736.22	1010.99
1735.39	998.751
1734.57	1034.78
1733.74	1085.89
1732.91	1028.4
1732.08	1197.08
1731.25	1133.57
1730.42	1160.51
1729.59	1199.49
1728.76	1226.41
1727.93	1292.48
1727.1	1403.71
1726.27	1460.7
1725.44	1406.25
1724.61	1508.37
1723.78	1402.76
1722.95	1381.45
1722.12	1281.91
1721.29	1227.54
1720.46	1203.27
1719.62	1166.97
1718.79	1124.67
1717.96	1109.45
1717.13	976.99
1716.3	1000.87
1715.47	976.658
1714.63	982.501
1713.8	892.212
1712.97	949.128
1712.14	951.97
1711.31	912.775
1710.47	891.606
1709.64	906.462
1708.81	882.299
1707.97	846.143
1707.14	771
1706.31	761.87
1705.47	860.707
1704.64	872.554
1703.81	803.453
1702.97	815.306
1702.14	842.14
1701.3	788.061
1700.47	838.857
1699.63	730.88
1698.8	817.607
1697.96	841.423
1697.13	859.244
1696.29	802.223
1695.46	864.937
1694.62	807.935
1693.79	780.871
1692.95	774.755
1692.12	792.568
1691.28	717.676
1690.44	765.39
1689.61	813.089
1688.77	824.905
1687.93	782.929
1687.1	800.722
1686.26	815.522
1685.42	806.423
1684.59	809.272
1683.75	755.391
1682.91	814.967
1682.07	761.103
1681.24	832.594
1680.4	829.469
1679.56	838.277
1678.72	724.792
1677.88	820.098
1677.05	808.032
1676.21	810.875
1675.37	792.853
1674.53	843.38
1673.69	864.094
1672.85	837.135
1672.01	845.928
1671.17	860.674
1670.33	797.998
1669.49	815.724
1668.65	788.796
1667.81	851.159
1666.97	827.209
1666.13	830.043
1665.29	859.647
1664.45	880.319
1663.61	785.015
1662.77	832.45
1661.93	808.528
1661.09	829.194
1660.25	834.995
1659.4	873.476
1658.56	805.005
1657.72	867.238
1656.88	825.517
1656.04	908.507
1655.19	816.33
1654.35	813.222
1653.51	824.953
1652.67	872.284
1651.82	797.974
1650.98	854.19
1650.14	782.874
1649.3	886.513
1648.45	812.251
1647.61	850.643
1646.77	927.546
1645.92	853.315
1645.08	921.304
1644.23	829.329
1643.39	870.646
1642.54	814.241
1641.7	814.102
1640.86	876.12
1640.01	890.767
1639.17	872.861
1638.32	973.296
1637.48	884.394
1636.63	857.627
1635.78	884.092
1634.94	851.421
1634.09	854.231
1633.25	930.923
1632.4	877.578
1631.56	824.25
1630.71	965.891
1629.86	838.735
1629.02	868.119
1628.17	947.682
1627.32	959.327
1626.47	894.235
1625.63	982.605
1624.78	967.685
1623.93	982.269
1623.09	987.999
1622.24	1096.93
1621.39	1105.59
1620.54	1179.09
1619.69	1279.1
1618.84	1305.4
1618	1399.46
1617.15	1670.22
1616.3	1778.91
1615.45	1952.34
1614.6	1954.95
1613.75	2054.7
1612.9	2222.11
1612.05	2036.34
1611.2	1971.27
1610.35	1885.62
1609.5	1647.06
1608.65	1711.47
1607.8	1525.95
1606.95	1434.56
1606.1	1404.92
1605.25	1325.34
1604.4	1219.34
1603.55	1122.18
1602.7	1092.62
1601.85	1066
1600.99	1039.39
1600.14	1039.22
1599.29	1018.49
1598.44	968.429
1597.59	974.131
1596.74	1003.3
1595.88	915.135
1595.03	961.9
1594.18	900.16
1593.32	882.416
1592.47	952.612
1591.62	902.628
1590.77	879.032
1589.91	925.755
1589.06	928.525
1588.21	922.509
1587.35	942.847
1586.5	930.975
1585.64	895.69
1584.79	895.536
1583.93	918.791
1583.08	971.294
1582.23	956.502
1581.37	877.374
1580.52	909.388
1579.66	994.016
1578.81	903.23
1577.95	961.526
1577.09	914.608
1576.24	902.764
1575.38	899.688
1574.53	914.136
1573.67	893.539
1572.81	843.753
1571.96	866.96
1571.1	907.671
1570.24	971.712
1569.39	954.04
1568.53	875.116
1567.67	907.047
1566.82	845.654
1565.96	868.833
1565.1	935.73
1564.24	950.142
1563.39	938.323
1562.53	920.68
1561.67	882.652
1560.81	862.112
1559.95	920.205
1559.09	952.074
1558.23	954.821
1557.38	893.535
1556.52	945.762
1555.66	899.047
1554.8	898.892
1553.94	959.817
1553.08	895.675
1552.22	927.504
1551.36	892.46
1550.5	956.25
1549.64	831.126
1548.78	906.527
1547.92	894.751
1547.06	920.737
1546.2	938.003
1545.34	914.613
1544.47	946.389
1543.61	920.103
1542.75	905.435
1541.89	884.968
1541.03	1029.87
1540.17	893.365
1539.3	922.211
1538.44	927.852
1537.58	945.086
1536.72	869.561
1535.85	947.658
1534.99	906.929
1534.13	927.052
1533.27	900.824
1532.4	952.797
1531.54	941.051
1530.68	914.833
1529.81	871.257
1528.95	946.352
1528.08	957.763
1527.22	977.85
1526.36	873.549
1525.49	954.376
1524.63	910.838
1523.76	945.374
1522.9	924.977
1522.03	878.576
1521.17	956.443
1520.3	938.944
1519.44	869.456
1518.57	979.052
1517.7	967.333
1516.84	874.78
1515.97	1007.41
1515.11	897.567
1514.24	975.322
1513.37	986.694
1512.51	879.795
1511.64	934.44
1510.77	940.046
1509.91	951.416
1509.04	959.9
1508.17	907.857
1507.3	962.45
1506.44	898.9
1505.57	904.506
1504.7	887.069
1503.83	944.508
1502.96	961.619
1502.09	909.638
1501.23	992.946
1500.36	949.61
1499.49	917.798
1498.62	955.035
1497.75	1015.27
1496.88	891.442
1496.01	856.786
1495.14	850.889
1494.27	954.21
1493.4	933.93
1492.53	893.545
1491.66	924.989
1490.79	973.656
1489.92	941.899
1489.05	981.932
1488.18	930.091
1487.31	869.657
1486.44	978.553
1485.56	926.739
1484.69	972.478
1483.82	1049.75
1482.95	946.332
1482.08	1032.18
1481.21	997.605
1480.33	1043.29
1479.46	985.797
1478.59	1051.53
1477.72	973.997
1476.84	991.014
1475.97	1036.66
1475.1	1030.76
1474.22	1102.14
1473.35	1053.3
1472.48	1038.81
1471.6	1101.57
1470.73	1129.99
1469.85	1101.19
1468.98	1138.18
1468.11	1309.53
1467.23	1272.14
1466.36	1246.2
1465.48	1271.7
1464.61	1302.91
1463.73	1262.69
1462.86	1316.74
1461.98	1362.21
1461.11	1413.37
1460.23	1384.57
1459.35	1407.17
1458.48	1466.85
1457.6	1426.65
1456.73	1389.32
1455.85	1354.85
1454.97	1348.91
1454.1	1457.03
1453.22	1357
1452.34	1459.37
1451.46	1373.63
1450.59	1353.44
1449.71	1475.71
1448.83	1418.48
1447.95	1415.39
1447.08	1426.53
1446.2	1454.76
1445.32	1440.27
1444.44	1448.56
1443.56	1505.22
1442.68	1499.26
1441.81	1590.03
1440.93	1586.91
1440.05	1617.91
1439.17	1683.01
1438.29	1685.56
1437.41	1617.07
1436.53	1659.41
1435.65	1525.59
1434.77	1602.02
1433.89	1561.98
1433.01	1516.28
1432.13	1445.04
1431.25	1339.77
1430.37	1356.56
1429.48	1276.88
1428.6	1219.91
1427.72	1199.85
1426.84	1162.77
1425.96	1202.27
1425.08	1063.14
1424.19	1165
1423.31	1133.62
1422.43	1229.77
1421.55	1226.72
1420.67	1175.52
1419.78	1223.46
1418.9	1228.91
1418.02	1330.62
1417.13	1381.34
1416.25	1389.59
1415.37	1380.86
1414.48	1236.33
1413.6	1278.54
1412.71	1218.93
1411.83	1232.86
1410.95	1156.31
1410.06	1161.76
1409.18	1059.82
1408.29	1073.76
1407.41	1045.32
1406.52	1047.97
1405.64	1039.31
1404.75	1044.78
1403.87	1058.71
1402.98	1002.07
1402.1	990.609
1401.21	965.04
1400.32	967.694
1399.44	984.45
1398.55	956.076
1397.66	984.107
1396.78	955.743
1395.89	1037.32
1395	1020.23
1394.12	983.422
1393.23	1014.24
1392.34	968.995
1391.45	949.111
1390.57	1036.24
1389.68	982.565
1388.79	1052.77
1387.9	948.45
1387.01	1035.52
1386.12	1035.34
1385.24	1032.34
1384.35	1012.47
1383.46	989.803
1382.57	1045.86
1381.68	995.08
1380.79	978.043
1379.9	1036.88
1379.01	1022.65
1378.12	1033.71
1377.23	1050.38
1376.34	1075.47
1375.45	1002.29
1374.56	1063.87
1373.67	993.519
1372.78	1125.23
1371.89	995.978
1370.99	1057.52
1370.1	1119.03
1369.21	1099.21
1368.32	1040.14
1367.43	1084.81
1366.54	1045.38
1365.64	1031.19
1364.75	1165.49
1363.86	1067.24
1362.97	1069.86
1362.07	1044.47
1361.18	1019.09
1360.29	976.925
1359.39	990.748
1358.5	976.583
1357.61	1057.55
1356.71	1046.17
1355.82	1051.58
1354.93	1029.03
1354.03	1026.05
1353.14	969.97
1352.24	1000.54
1351.35	997.574
1350.45	980.637
1349.56	972.085
1348.66	1019.39
1347.77	1035.97
1346.87	993.91
1345.98	990.945
1345.08	1068.92
1344.18	1057.57
1343.29	1029.48
1342.39	970.726
1341.5	1031.91
1340.6	981.541
1339.7	995.309
1338.81	1059.25
1337.91	1047.91
1337.01	1017.08
1336.11	1047.55
1335.22	1058.51
1334.32	1019.33
1333.42	969.029
1332.52	1002.27
1331.63	1016.01
1330.73	1024.18
1329.83	1024
1328.93	1054.43
1328.03	981.92
1327.13	1056.84
1326.23	1023.29
1325.33	1073.15
1324.43	1125.78
1323.53	1028.31
1322.64	1019.79
1321.74	1105.74
1320.84	1080.54
1319.94	1133.12
1319.03	1124.59
1318.13	1088.31
1317.23	1196.37
1316.33	1104.58
1315.43	1129.36
1314.53	1234.58
1313.63	1187.21
1312.73	1181.46
1311.83	1208.98
1310.92	1161.64
1310.02	1219.64
1309.12	1236.06
1308.22	1249.69
1307.32	1180.21
1306.41	1227.1
1305.51	1332.12
1304.61	1229.44
1303.71	1276.28
1302.8	1303.74
1301.9	1336.72
1301	1369.69
1300.09	1341.79
1299.19	1490.92
1298.28	1485.13
1297.38	1670.13
1296.48	1824.66
1295.57	2034.41
1294.67	2315.95
1293.76	2354.22
1292.86	2182.52
1291.95	1991.55
1291.05	1681.89
1290.14	1529.72
1289.24	1463.2
1288.33	1358.05
1287.42	1352.29
1286.52	1374.13
1285.61	1299.4
1284.71	1288.14
1283.8	1268.61
1282.89	1271.14
1281.99	1235.08
1281.08	1185.25
1280.17	1223.62
1279.26	1209.63
1278.36	1176.36
1277.45	1173.4
1276.54	1200.73
1275.63	1079.37
1274.72	1114.96
1273.82	1070.73
1272.91	1015.5
1272	1119.88
1271.09	1028.9
1270.18	1078.23
1269.27	1028.54
1268.36	1061.35
1267.45	1011.68
1266.54	934.539
1265.64	956.36
1264.73	934.211
1263.82	964.265
1262.91	969.589
1261.99	961.18
1261.08	993.96
1260.17	1037.71
1259.26	952.438
1258.35	938.549
1257.44	894.483
1256.53	910.785
1255.62	927.082
1254.71	968.054
1253.79	893.853
1252.88	926.593
1251.97	893.538
1251.06	893.381
1250.15	863.084
1249.23	865.672
1248.32	906.604
1247.41	827.028
1246.49	881.643
1245.58	865.062
1244.67	895.017
1243.75	883.913
1242.84	870.077
1241.93	867.188
1241.01	869.77
1240.1	899.698
1239.18	891.337
1238.27	822.838
1237.35	847.292
1236.44	833.479
1235.53	808.742
1234.61	814.063
1233.69	846.694
1232.78	800.122
1231.86	849.126
1230.95	835.327
1230.03	791.51
1229.12	785.913
1228.2	785.774
1227.28	886.568
1226.37	820.954
1225.45	831.716
1224.53	880.646
1223.62	834.149
1222.7	831.276
1221.78	820.229
1220.86	836.432
1219.95	888.041
1219.03	882.437
1218.11	808.758
1217.19	819.506
1216.27	832.972
1215.35	819.216
1214.44	767.369
1213.52	802.603
1212.6	856.865
1211.68	791.44
1210.76	774.985
1209.84	902.63
1208.92	791.021
1208	826.213
1207.08	782.59
1206.16	787.885
1205.24	809.477
1204.32	793.038
1203.4	806.475
1202.48	817.192
1201.56	849.621
1200.64	819.618
1199.71	800.478
1198.79	800.337
1197.87	851.733
1196.95	816.326
1196.03	913.798
1195.1	837.726
1194.18	788.787
1193.26	872.661
1192.34	907.732
1191.41	850.679
1190.49	874.907
1189.57	842.254
1188.65	931.46
1187.72	896.101
1186.8	944.664
1185.87	866.014
1184.95	947.036
1184.03	900.877
1183.1	992.683
1182.18	908.671
1181.25	935.55
1180.33	894.833
1179.4	919.001
1178.48	894.516
1177.55	897.059
1176.63	905.005
1175.7	896.742
1174.78	945.193
1173.85	920.725
1172.92	920.561
1172	904.204
1171.07	906.742
1170.15	909.28
1169.22	917.212
1168.29	965.599
1167.36	881.829
1166.44	876.28
1165.51	889.604
1164.58	816.673
1163.65	843.477
1162.73	837.938
1161.8	837.79
1160.87	845.721
1159.94	802.485
1159.01	826.575
1158.08	815.66
1157.16	837.047
1156.23	834.208
1155.3	807.155
1154.37	801.631
1153.44	831.074
1152.51	833.616
1151.58	755.499
1150.65	857.513
1149.72	857.361
1148.79	838.399
1147.86	843.623
1146.93	902.571
1146	856.753
1145.07	921.047
1144.13	848.394
1143.2	869.718
1142.27	856.144
1141.34	880.143
1140.41	882.669
1139.48	823.5
1138.54	890.402
1137.61	917.058
1136.68	919.576
1135.75	943.537
1134.81	1031.81
1133.88	1031.63
1132.95	1106.46
1132.01	1191.98
1131.08	1256.04
1130.15	1408.44
1129.21	1520.63
1128.28	1549.81
1127.35	1538.83
1126.41	1495.74
1125.48	1460.7
1124.54	1219.71
1123.61	1136.58
1122.67	1032.1
1121.74	1069.35
1120.8	1063.81
1119.87	1028.88
1118.93	1060.76
1117.99	1001.8
1117.06	1001.62
1116.12	966.726
1115.19	1033.3
1114.25	1009.1
1113.31	990.232
1112.38	1016.74
1111.44	923.176
1110.5	984.368
1109.56	962.855
1108.63	954.684
1107.69	981.176
1106.75	933.018
1105.81	946.178
1104.88	866.065
1103.94	911.205
1103	969.647
1102.06	932.187
1101.12	961.313
1100.18	963.804
1099.24	1003.56
1098.3	1000.72
1097.36	952.645
1096.42	981.742
1095.49	1111.91
1094.55	1101.07
1093.6	1066.31
1092.66	1098.02
1091.72	1076.56
1090.78	1121.55
1089.84	1086.81
1088.9	1028.16
1087.96	998.762
1087.02	987.961
1086.08	1003.72
1085.14	921.237
1084.19	1000.7
1083.25	955.409
1082.31	934.011
1081.37	960.374
1080.43	978.77
1079.48	997.16
1078.54	983.724
1077.6	967.642
1076.65	940.964
1075.71	956.696
1074.77	890.284
1073.82	929.863
1072.88	908.508
1071.93	897.752
1070.99	958.491
1070.05	942.436
1069.1	939.621
1068.16	1029.43
1067.21	994.849
1066.27	1116.36
1065.32	1272.21
1064.38	1335.45
1063.43	1417.18
1062.49	1477.72
1061.54	1321.52
1060.59	1265.79
1059.65	1188.94
1058.7	1101.56
1057.75	1040.61
1056.81	1000.82
1055.86	921.432
1054.91	847.355
1053.97	899.989
1053.02	849.691
1052.07	910.22
1051.12	830.922
1050.18	878.246
1049.23	833.262
1048.28	851.568
1047.33	785.517
1046.38	851.264
1045.43	874.826
1044.48	800.903
1043.54	824.466
1042.59	869.09
1041.64	839.97
1040.69	858.248
1039.74	842.301
1038.79	847.414
1037.84	828.844
1036.89	828.695
1035.94	804.874
1034.99	775.802
1034.04	796.698
1033.08	807.071
1032.13	820.069
1031.18	877.737
1030.23	801.383
1029.28	822.255
1028.33	782.71
1027.37	795.7
1026.42	771.927
1025.47	805.916
1024.52	790.023
1023.57	742.646
1022.61	776.622
1021.66	773.859
1020.71	786.834
1019.75	786.693
1018.8	815.393
1017.85	810.004
1016.89	854.414
1015.94	778.268
1014.98	775.509
1014.03	775.37
1013.07	811.897
1012.12	769.855
1011.16	793.279
1010.21	835.019
1009.25	803.463
1008.3	798.086
1007.34	816.256
1006.39	761.179
1005.43	771.504
1004.48	789.669
1003.52	805.213
1002.56	857.346
1001.61	859.805
1000.65	846.587
999.693	846.435
998.736	794.043
997.778	851.354
996.821	861.645
995.863	832.774
994.905	848.285
993.947	814.208
992.989	858.417
992.031	819.133
991.072	824.202
990.114	808.407
989.155	782.189
988.196	805.51
987.237	794.94
986.277	823.462
985.318	768.6
984.358	771.067
983.398	789.16
982.438	833.286
981.478	757.634
980.517	747.085
979.557	796.401
978.596	778.042
977.635	801.318
976.674	769.959
975.713	793.227
974.751	795.685
973.79	746.145
972.828	790.2
971.866	771.866
970.904	750.94
969.942	807.959
968.979	794.827
968.017	760.923
967.054	789.348
966.091	734.688
965.128	807.233
964.164	783.731
963.201	780.996
962.237	811.985
961.273	705.496
960.309	793.54
959.345	767.469
958.381	762.147
957.416	790.52
956.451	831.84
955.486	772.099
954.521	787.502
953.556	782.181
952.591	807.935
951.625	774.132
950.659	786.935
949.693	784.205
948.727	758.187
947.761	768.399
946.794	747.567
945.828	812.089
944.861	786.085
943.894	793.699
942.927	775.462
941.959	777.907
940.992	782.934
940.024	829.296
939.056	811.065
938.088	800.589
937.12	813.355
936.152	795.137
935.183	802.737
934.214	784.527
933.246	833.41
932.276	797.143
931.307	784.103
930.338	822.644
929.368	804.447
928.398	775.945
927.428	863.437
926.458	778.242
925.488	824.478
924.517	803.721
923.547	754.64
922.576	795.706
921.605	844.48
920.634	844.328
919.662	849.323
918.691	823.437
917.719	812.997
916.747	812.85
915.775	828.134
914.803	856.27
913.831	868.97
912.858	830.256
911.885	835.246
910.912	860.791
909.939	840.083
908.966	809.108
907.992	775.576
907.019	888.413
906.045	813.803
905.071	844.457
904.097	828.907
903.122	849.283
902.148	869.653
901.173	902.839
900.198	864.209
899.223	889.693
898.248	876.714
897.273	863.741
896.297	889.21
895.321	955.664
894.345	881.203
893.369	886.166
892.393	819.428
891.416	875.605
890.44	898.484
889.463	903.44
888.486	916.071
887.509	900.555
886.531	892.718
885.554	897.672
884.576	920.522
883.598	953.591
882.62	909.965
881.642	902.133
880.664	907.08
879.685	927.353
878.706	945.065
877.727	921.91
876.748	952.382
875.769	957.316
874.789	964.799
873.81	972.28
872.83	956.795
871.85	956.622
870.87	992.156
869.889	1004.73
868.909	963.751
867.928	991.617
866.947	927.72
865.966	978.516
864.985	1014.01
864.003	1036.75
863.022	1120.61
862.04	1173.88
861.058	1242.4
860.076	1270.18
859.094	1353.93
858.111	1277.35
857.128	1266.94
856.146	1264.17
855.162	1215.62
854.179	1149.29
853.196	1133.83
852.212	1042.12
851.229	1069.88
850.245	1029.04
849.261	950.099
848.276	993.105
847.292	987.846
846.307	980.05
845.322	870.715
844.337	908.628
843.352	903.388
842.367	943.818
841.381	908.133
840.396	915.577
839.41	925.554
838.424	943.133
837.437	826.358
836.451	879.43
835.464	866.601
834.477	912.046
833.49	871.352
832.503	909.182
831.516	901.42
830.528	911.383
829.541	989.683
828.553	938.889
827.565	885.584
826.577	925.899
825.588	872.615
824.6	857.283
823.611	887.468
822.622	892.363
821.633	909.893
820.643	924.889
819.654	874.19
818.664	934.657
817.674	967.32
816.684	898.965
815.694	891.227
814.704	870.87
813.713	931.283
812.723	900.834
811.732	893.101
810.741	865.192
809.749	875.122
808.758	895.135
807.766	892.451
806.774	955.303
805.782	854.324
804.79	866.767
803.798	833.859
802.805	821.113
801.812	876.366
800.819	873.689
799.826	873.53
798.833	921.192
797.84	913.475
796.846	875.568
795.852	965.968
794.858	1003.52
793.864	998.306
792.87	930.242
791.875	925.045
790.88	937.443
789.885	836.76
788.89	909.465
787.895	891.716
786.9	833.791
785.904	886.369
784.908	906.291
783.912	883.536
782.916	893.413
781.92	865.649
780.923	857.966
779.926	790.087
778.929	815.021
777.932	832.423
776.935	857.339
775.938	884.753
774.94	879.58
773.942	886.936
772.944	916.834
771.946	796.448
770.948	891.458
769.949	868.763
768.95	923.674
767.951	855.932
766.952	878.296
765.953	870.63
764.954	857.964
763.954	917.829
762.954	845.149
761.954	864.994
760.954	837.341
759.954	857.181
758.953	817.047
757.952	864.362
756.951	871.697
755.95	816.599
754.949	878.869
753.948	891.19
752.946	873.556
751.944	888.369
750.942	885.711
749.94	875.571
748.937	905.34
747.935	832.86
746.932	887.557
745.929	854.99
744.926	842.372
743.923	849.693
742.919	906.838
741.916	939.053
740.912	844.246
739.908	831.642
738.903	829
737.899	893.564
736.894	831.186
735.89	873.331
734.885	910.487
733.88	922.756
732.874	912.64
731.869	924.904
730.863	882.476
729.857	884.8
728.851	924.396
727.845	906.836
726.838	936.478
725.832	985.978
724.825	888.956
723.818	903.689
722.811	898.559
721.804	863.65
720.796	848.604
719.788	865.814
718.78	912.783
717.772	877.896
716.764	907.489
715.756	961.861
714.747	917.071
713.738	916.903
712.729	869.659
711.72	869.499
710.71	928.782
709.701	884.038
708.691	891.304
707.681	1000.06
706.671	947.9
705.661	977.42
704.65	1004.46
703.64	999.324
702.629	1021.4
701.618	1036.05
700.606	949.329
699.595	966.458
698.583	951.452
697.572	926.569
696.56	916.517
695.547	948.458
694.535	916.181
693.523	913.544
692.51	881.284
691.497	910.74
690.484	937.717
689.471	910.406
688.457	962.041
687.443	910.071
686.43	959.221
685.416	885.083
684.401	921.894
683.387	926.654
682.372	938.804
681.358	874.578
680.343	908.901
679.327	980.152
678.312	928.265
677.297	969.945
676.281	967.305
675.265	991.736
674.249	856.23
673.233	952.012
672.216	941.999
671.2	986.089
670.183	936.735
669.166	958.686
668.148	877.405
667.131	923.932
666.113	906.564
665.096	953.068
664.078	943.069
663.06	952.717
662.041	940.267
661.023	898.366
660.004	974.278
658.985	939.748
657.966	966.56
656.947	951.665
655.927	899.992
654.908	929.248
653.888	921.723
652.868	928.906
651.848	980.195
650.827	928.564
649.807	972.486
648.786	1011.49
647.765	1003.96
646.744	996.43
645.723	1023.17
644.701	1064.59
643.679	1022.8
642.657	978.571
641.635	1027.31
640.613	992.884
639.591	1073.39
638.568	1144.08
637.545	1050.99
636.522	1099.68
635.499	1214.31
634.475	1214.08
633.452	1350.63
632.428	1443.18
631.404	1518.59
630.38	1418.23
629.356	1320.35
628.331	1266.42
627.306	1224.71
626.281	1214.73
625.256	1173.05
624.231	1202.09
623.205	1253.06
622.18	1260.15
621.154	1267.22
620.128	1262.12
619.102	1300.86
618.075	1229.99
617.049	1293.07
616.022	1326.92
614.995	1338.85
613.968	1289.92
612.94	1408.92
611.913	1352.7
610.885	1332.99
609.857	1310.86
608.829	1313.05
607.8	1334.69
606.772	1327.15
605.743	1397.38
604.714	1353.39
603.685	1309.41
602.656	1355.31
601.626	1338.06
600.597	1303.83
599.567	1284.16
598.537	1327.61
597.507	1288.54
596.476	1200.96
595.446	1203.17
594.415	1178.69
593.384	1173.62
592.353	1200.07
591.321	1180.46
590.29	1209.32
589.258	1204.25
588.226	1191.92
587.194	1169.9
586.162	1184.21
585.129	1075.04
584.096	1099.04
583.063	1132.73
582.03	1125.26
580.997	1178.28
579.964	1134.52
578.93	1105.28
577.896	1068.81
576.862	1095.2
575.828	1124.01
574.793	1135.88
573.759	1084.93
572.724	1053.32
571.689	1106.27
570.654	1069.84
569.618	1026.18
568.583	1045.3
567.547	1054.76
566.511	1042.5
565.475	1054.37
564.438	1051.76
563.402	1041.92
562.365	1087.54
561.328	1094.57
560.291	1058.21
559.254	1065.25
558.216	1115.65
557.178	1086.53
556.141	994.802
555.102	1025.92
554.064	1045
553.026	1061.65
551.987	1078.31
550.948	1082.92
549.909	1053.85
548.87	1051.24
547.83	1029.4
546.791	1012.38
545.751	1041.04
544.711	1007.2
543.671	1047.87
542.63	1026.05
541.59	1047.48
540.549	1032.87
539.508	1037.48
538.467	1010.88
537.425	1063.5
536.384	1015.3
535.342	1005.51
534.3	995.73
533.258	1000.34
532.216	964.18
531.173	1035.94
530.13	1069.31
529.088	958.848
528.044	1056.93
527.001	1037.57
525.958	1025.4
524.914	1006.04
523.87	1032.2
522.826	1039.19
521.782	1082.09
520.737	1053.17
519.693	1043.4
518.648	1067.13
517.603	978.419
516.557	1107.39
515.512	1085.66
514.466	1042.43
513.42	1070.92
512.374	1089.84
511.328	1032.29
510.282	1044.04
509.235	1019.96
508.188	1012.6
507.141	1024.35
506.094	1043.26
505.047	1016.81
503.999	1009.46
502.951	1014.05
501.903	1025.79
500.855	1013.67
499.807	1077.87
