3200.54	25.2587
3199.95	21.049
3199.35	12.6275
3198.76	25.2511
3198.16	37.8709
3197.57	33.658
3196.98	-4.20661
3196.38	16.8239
3195.79	4.20534
3195.19	33.6376
3194.6	29.4285
3194	33.6275
3193.41	37.8252
3192.81	29.4151
3192.22	33.6122
3191.62	33.6071
3191.03	4.20025
3190.43	25.1977
3189.84	20.9949
3189.24	33.5868
3188.65	33.5817
3188.05	12.5912
3187.45	46.1609
3186.86	37.7623
3186.26	33.5614
3185.67	41.9454
3185.07	20.9695
3184.47	29.3529
3183.88	-4.19264
3183.28	8.384
3182.69	37.7223
3182.09	25.1444
3181.49	20.9505
3180.9	29.3263
3180.3	8.37766
3179.7	29.3174
3179.1	25.1254
3178.51	33.4954
3177.91	4.18629
3177.31	-4.18566
3176.72	12.5551
3176.12	16.7376
3175.52	25.1026
3174.92	29.2819
3174.33	46.0074
3173.73	0
3173.13	58.5372
3172.53	0
3171.93	29.2597
3171.34	45.9726
3170.74	25.0722
3170.14	20.8903
3169.54	16.7097
3168.94	29.2376
3168.34	37.5855
3167.74	29.2287
3167.15	33.3992
3166.55	29.2198
3165.95	54.2572
3165.35	45.903
3164.75	29.2066
3164.15	62.576
3163.55	54.2243
3162.95	33.3638
3162.35	41.6984
3161.75	12.5076
3161.15	41.6857
3160.55	66.6871
3159.95	20.8365
3159.35	8.33336
3158.75	45.8265
3158.15	12.4962
3157.55	0
3156.95	8.3283
3156.35	41.6352
3155.75	29.1402
3155.15	49.9471
3154.55	24.9698
3153.95	41.6099
3153.35	24.9622
3152.75	24.9584
3152.15	37.4319
3151.54	37.4262
3150.94	24.947
3150.34	33.2577
3149.74	12.4697
3149.14	4.15595
3148.54	45.7085
3147.94	16.6187
3147.33	49.8487
3146.73	20.7671
3146.13	8.30559
3145.53	37.3695
3144.93	24.9092
3144.32	45.6599
3143.72	20.7514
3143.12	20.7482
3142.52	29.0431
3141.91	45.6322
3141.31	41.4775
3140.71	20.7356
3140.1	4.1465
3139.5	16.5835
3138.9	49.7428
3138.29	20.723
3137.69	37.2958
3137.09	53.8635
3136.48	20.7136
3135.88	28.9946
3135.28	20.7073
3134.67	41.4083
3134.07	33.1216
3133.47	4.13957
3132.86	24.8337
3132.26	24.8299
3131.65	24.8261
3131.05	49.6447
3130.45	53.7736
3129.84	20.679
3129.24	37.2165
3128.63	16.5382
3128.03	49.607
3127.42	4.13329
3126.82	37.1939
3126.21	49.5844
3125.61	16.5256
3125	24.7846
3124.4	37.1713
3123.79	41.2952
3123.19	24.7733
3122.58	37.1544
3121.97	20.6382
3121.37	33.0161
3120.76	-4.12638
3120.16	33.006
3119.55	49.5015
3118.94	32.996
3118.34	49.4864
3117.73	28.8627
3117.13	24.7357
3116.52	57.7078
3115.91	37.0922
3115.31	41.2073
3114.7	49.4413
3114.09	41.1948
3113.48	-4.11885
3112.88	45.3005
3112.27	28.8232
3111.66	41.1697
3111.06	45.2798
3110.45	28.81
3109.84	41.1509
3109.23	57.6025
3108.63	20.5692
3108.02	49.3586
3107.41	37.0133
3106.8	16.4479
3106.19	24.668
3105.59	20.5536
3104.98	41.1008
3104.37	49.3135
3103.76	20.5442
3103.15	24.6492
3102.54	41.0758
3101.93	61.6043
3101.33	57.4886
3100.72	32.8456
3100.11	28.7356
3099.5	45.149
3098.89	61.5574
3098.28	32.8256
3097.67	24.6155
3097.06	49.2234
3096.45	4.10133
3095.84	61.5106
3095.23	32.8006
3094.62	49.1935
3094.01	53.2848
3093.4	16.3928
3092.79	45.0734
3092.18	12.2909
3091.57	81.9266
3090.96	24.5742
3090.35	45.0459
3089.74	45.039
3089.13	73.689
3088.52	45.0253
3087.91	32.7407
3087.3	77.7473
3086.69	57.2787
3086.08	65.4514
3085.46	77.7117
3084.85	44.9841
3084.24	57.2438
3083.63	65.4115
3083.02	65.4015
3082.41	69.4785
3081.79	57.2089
3081.18	77.6288
3080.57	93.9574
3079.96	61.2672
3079.35	106.18
3078.73	97.9976
3078.12	73.487
3077.51	106.132
3076.9	106.115
3076.28	85.6956
3075.67	130.564
3075.06	73.4309
3074.45	69.3408
3073.83	73.4085
3073.22	65.242
3072.61	101.925
3071.99	48.9166
3071.38	52.9849
3070.77	48.9017
3070.15	93.7139
3069.54	85.5518
3068.93	69.2456
3068.31	81.453
3067.7	52.9364
3067.08	44.7855
3066.47	85.4865
3065.86	36.6315
3065.24	52.904
3064.63	40.6892
3064.01	56.9562
3063.4	61.0151
3062.78	20.3353
3062.17	52.8636
3061.55	40.6581
3060.94	36.5867
3060.32	85.356
3059.71	60.9592
3059.09	65.0132
3058.48	28.4389
3057.86	69.0555
3057.25	40.6147
3056.63	32.4868
3056.02	52.7829
3055.4	64.9536
3054.78	56.8258
3054.17	48.7003
3053.55	40.5774
3052.94	12.1714
3052.32	28.3955
3051.7	52.7264
3051.09	64.8842
3050.47	12.1639
3049.85	32.4322
3049.24	56.7476
3048.62	12.1583
3048	16.2086
3047.39	20.2577
3046.77	36.4583
3046.15	8.1006
3045.53	52.6459
3044.92	52.6378
3044.3	52.6298
3043.68	32.3826
3043.06	12.1416
3042.45	68.7919
3041.83	36.4137
3041.21	28.3174
3040.59	28.3131
3039.97	40.4411
3039.35	16.174
3038.74	20.2144
3038.12	20.2113
3037.5	52.5412
3036.88	56.5742
3036.26	68.6867
3035.64	32.3182
3035.02	40.3916
3034.41	68.6552
3033.79	32.3034
3033.17	36.3357
3032.55	40.3668
3031.93	76.6853
3031.31	36.319
3030.69	52.4528
3030.07	56.479
3029.45	52.4367
3028.83	28.2308
3028.21	48.3883
3027.59	80.6348
3026.97	40.3112
3026.35	32.244
3025.73	48.3587
3025.11	36.2634
3024.49	36.2579
3023.87	32.2243
3023.25	48.329
3022.63	16.1072
3022	48.3142
3021.38	56.3579
3020.76	40.2495
3020.14	64.3893
3019.52	48.2846
3018.9	60.3465
3018.28	48.2698
3017.66	24.1312
3017.03	44.2337
3016.41	44.227
3015.79	40.2002
3015.17	36.1746
3014.55	48.2254
3013.92	56.2543
3013.3	60.2633
3012.68	44.1863
3012.06	40.1632
3011.43	40.157
3010.81	40.1509
3010.19	52.1881
3009.57	48.1663
3008.94	64.2118
3008.32	88.2777
3007.7	60.1801
3007.07	80.2278
3006.45	60.1616
3005.83	72.1829
3005.2	84.2005
3004.58	60.134
3003.96	64.133
3003.33	56.1078
3002.71	60.1063
3002.08	52.0841
3001.46	84.1229
3000.84	48.0629
3000.21	64.074
2999.59	36.0361
2998.96	80.0679
2998.34	52.0361
2997.71	64.0346
2997.09	80.031
2996.46	68.0159
2995.84	52.0042
2995.21	111.992
2994.59	63.9855
2993.96	59.9772
2993.34	59.968
2992.71	67.9533
2992.09	55.9529
2991.46	79.9204
2990.84	71.9173
2990.21	59.9219
2989.58	75.8894
2988.96	67.8906
2988.33	71.8732
2987.71	59.8851
2987.08	59.8759
2986.45	87.8045
2985.83	71.829
2985.2	55.8584
2984.57	27.9249
2983.95	79.7732
2983.32	91.7251
2982.69	43.8618
2982.07	71.7628
2981.44	59.7931
2980.81	55.7983
2980.18	75.7146
2979.56	75.703
2978.93	51.7888
2978.3	107.545
2977.67	87.6157
2977.05	63.7107
2976.42	71.6635
2975.79	47.7683
2975.16	107.462
2974.53	59.692
2973.91	107.429
2973.28	71.6084
2972.65	95.4632
2972.02	95.4485
2971.39	95.4338
2970.76	95.4191
2970.13	115.28
2969.5	115.263
2968.88	91.4011
2968.25	95.3604
2967.62	107.264
2966.99	119.164
2966.36	131.06
2965.73	103.243
2965.1	123.079
2964.47	115.121
2963.84	123.041
2963.21	123.022
2962.58	107.132
2961.95	142.82
2961.32	118.999
2960.69	103.116
2960.06	122.927
2959.43	114.979
2958.8	95.1404
2958.17	107.016
2957.53	118.889
2956.9	95.0964
2956.27	79.2348
2955.64	122.795
2955.01	91.0919
2954.38	114.837
2953.75	91.0639
2953.12	87.0911
2952.48	114.784
2951.85	75.1919
2951.22	75.1803
2950.59	122.644
2949.96	87.024
2949.33	71.1905
2948.69	118.633
2948.06	90.9376
2947.43	83.0172
2946.8	83.0044
2946.16	90.8956
2945.53	98.7843
2944.9	55.3107
2944.26	90.8535
2943.63	71.0918
2943	110.57
2942.37	47.3799
2941.73	98.6929
2941.1	55.2595
2940.47	74.9835
2939.83	63.1342
2939.2	82.8509
2938.56	51.2807
2937.93	74.9372
2937.3	74.9256
2936.66	43.3713
2936.03	70.9603
2935.39	67.0077
2934.76	66.9974
2934.13	51.2254
2933.49	59.0971
2932.86	51.2096
2932.22	51.2017
2931.59	43.3178
2930.95	27.5616
2930.32	47.2412
2929.68	62.9785
2929.05	55.0977
2928.41	74.7639
2927.78	62.9494
2927.14	59.0059
2926.5	43.2643
2925.87	47.1901
2925.23	55.0467
2924.6	35.3817
2923.96	62.891
2923.32	55.0212
2922.69	39.2948
2922.05	39.2887
2921.42	70.7087
2920.78	82.4808
2920.14	70.6869
2919.51	82.4553
2918.87	51.0359
2918.23	58.8784
2917.6	43.1708
2916.96	43.1642
2916.32	51.0043
2915.68	43.1508
2915.05	43.1442
2914.41	47.0591
2913.77	47.0518
2913.13	58.8057
2912.5	82.3152
2911.86	58.7875
2911.22	54.8598
2910.58	78.3591
2909.94	27.4214
2909.31	74.4181
2908.67	66.5743
2908.03	82.2261
2907.39	82.2134
2906.75	66.5434
2906.11	66.5331
2905.47	90.0015
2904.83	74.3376
2904.2	89.9736
2903.56	74.3146
2902.92	70.3924
2902.28	54.7412
2901.64	50.8232
2901	78.1774
2900.36	66.4405
2899.72	62.5226
2899.08	74.2341
2898.44	62.5033
2897.8	101.552
2897.16	54.6734
2896.52	62.4742
2895.88	74.1767
2895.24	74.1652
2894.6	70.2509
2893.96	54.6311
2893.32	70.2291
2892.67	70.2182
2892.03	62.4066
2891.39	89.6955
2890.75	46.7904
2890.11	35.0874
2889.47	81.8579
2888.83	50.6661
2888.19	70.1422
2887.54	66.2351
2886.9	74.016
2886.26	66.2146
2885.62	81.7818
2884.98	58.4065
2884.33	54.5043
2883.69	70.0661
2883.05	85.6231
2882.41	62.2617
2881.77	50.5798
2881.12	70.0227
2880.48	89.4596
2879.84	66.1121
2879.19	58.3251
2878.55	58.3161
2877.91	66.0813
2877.26	62.1845
2876.62	58.289
2875.98	69.9359
2875.33	54.3862
2874.69	77.6825
2874.05	38.8352
2873.4	38.8292
2872.76	58.2348
2872.11	50.4623
2871.47	50.4545
2870.83	31.0441
2870.18	42.679
2869.54	50.431
2868.89	58.1806
2868.25	69.8059
2867.6	38.775
2866.96	54.2766
2866.31	54.2682
2865.67	58.1355
2865.02	58.1264
2864.38	50.3684
2863.73	73.604
2863.09	58.0994
2862.44	61.963
2861.8	38.7209
2861.15	92.9157
2860.5	61.9342
2859.86	30.9623
2859.21	58.0453
2858.57	46.429
2857.92	38.6848
2857.27	54.1504
2856.63	50.2747
2855.98	54.1335
2855.33	77.3216
2854.69	88.9061
2854.04	104.352
2853.39	61.8285
2852.75	50.2278
2852.1	50.22
2851.45	38.6248
2850.81	69.5138
2850.16	23.1677
2849.51	42.4675
2848.86	27.0206
2848.21	19.2974
2847.57	61.7421
2846.92	61.7325
2846.27	42.4345
2845.62	53.9991
2844.97	57.8472
2844.33	73.2618
2843.68	50.1187
2843.03	53.9656
2842.38	53.9572
2841.73	57.8023
2841.08	42.3817
2840.43	65.4889
2839.78	53.9236
2839.14	53.9152
2838.49	61.6078
2837.84	57.7484
2837.19	46.1915
2836.54	73.1252
2835.89	69.2657
2835.24	57.7125
2834.59	46.1628
2833.94	46.1556
2833.29	65.3769
2832.64	69.2119
2831.99	57.6676
2831.34	53.8147
2830.69	42.2764
2830.04	42.2698
2829.39	73.0001
2828.74	57.6227
2828.08	30.7273
2827.43	69.1257
2826.78	57.5958
2826.13	65.2651
2825.48	49.9008
2824.83	57.5689
2824.18	72.9093
2823.53	88.2449
2822.87	69.0504
2822.22	69.0397
2821.57	69.0289
2820.92	88.1899
2820.27	57.5062
2819.61	61.3304
2818.96	68.986
2818.31	38.3196
2817.66	65.1331
2817	45.9691
2816.35	68.943
2815.7	76.5914
2815.05	30.6318
2814.39	80.3959
2813.74	72.7278
2813.09	30.6175
2812.43	53.5722
2811.78	45.9119
2811.13	80.3333
2810.47	80.3207
2809.82	68.8356
2809.16	53.5305
2808.51	26.7611
2807.86	80.2707
2807.2	53.5054
2806.55	72.6032
2805.89	72.5919
2805.24	76.4006
2804.58	45.8332
2803.93	57.2826
2803.28	68.7284
2802.62	91.6235
2801.97	30.5364
2801.31	118.31
2800.66	83.949
2800	57.229
2799.34	72.4788
2798.69	41.9548
2798.03	57.2022
2797.38	64.8191
2796.72	60.9967
2796.07	57.1754
2795.41	53.3554
2794.75	76.2101
2794.1	53.3388
2793.44	34.2839
2792.79	68.557
2792.13	64.7382
2791.47	83.7658
2790.82	68.5249
2790.16	57.0952
2789.5	49.4748
2788.84	41.8567
2788.19	30.4365
2787.53	64.6675
2786.87	49.4439
2786.22	64.6473
2785.56	41.8241
2784.9	79.8335
2784.24	102.627
2783.59	76.0081
2782.93	53.1974
2782.27	79.7836
2781.61	83.5698
2780.95	53.1724
2780.29	94.936
2779.64	91.1243
2778.98	75.925
2778.32	102.483
2777.66	56.926
2777	72.095
2776.34	79.6715
2775.68	79.659
2775.02	68.2685
2774.36	75.842
2773.71	64.4556
2773.05	87.1911
2772.39	79.5968
2771.73	75.7946
2771.07	56.8371
2770.41	45.4625
2769.75	56.8193
2769.09	53.0231
2768.43	64.3751
2767.77	71.9373
2767.11	60.5693
2766.45	52.9899
2765.79	87.0412
2765.12	68.1085
2764.46	75.6643
2763.8	60.522
2763.14	86.9868
2762.48	98.3175
2761.82	41.5893
2761.16	71.8249
2760.5	64.2543
2759.83	56.6861
2759.17	52.8988
2758.51	86.8915
2757.85	79.3233
2757.19	79.3109
2756.53	71.7462
2755.86	64.184
2755.2	71.7238
2754.54	94.3586
2753.88	52.8326
2753.21	67.9169
2752.55	71.6789
2751.89	49.0358
2751.23	60.3423
2750.56	75.416
2749.9	56.5532
2749.24	49.0051
2748.57	82.9186
2747.91	67.8319
2747.25	67.8213
2746.58	79.1124
2745.92	79.1
2745.25	97.918
2744.59	45.1859
2743.93	67.7682
2743.26	75.2862
2742.6	71.5107
2741.93	79.0257
2741.27	60.2006
2740.61	82.7629
2739.94	82.7499
2739.28	75.2154
2738.61	63.9231
2737.95	67.6726
2737.28	52.626
2736.62	86.4435
2735.95	63.883
2735.29	60.1157
2734.62	86.4028
2733.95	45.0727
2733.29	75.1093
2732.62	78.8524
2731.96	45.0515
2731.29	52.5518
2730.62	75.0622
2729.96	56.2878
2729.29	75.0387
2728.63	63.7729
2727.96	82.5167
2727.29	82.5037
2726.63	82.4908
2725.96	93.7248
2725.29	67.4713
2724.62	71.2085
2723.96	89.9335
2723.29	74.9328
2722.62	86.1592
2721.96	97.382
2721.29	86.1321
2720.62	74.8857
2719.95	71.1303
2719.28	71.1191
2718.62	97.3056
2717.95	44.9032
2717.28	67.3443
2716.61	82.2968
2715.94	82.2838
2715.27	74.7917
2714.61	74.78
2713.94	74.7682
2713.27	74.7565
2712.6	89.6937
2711.93	78.4697
2711.26	56.041
2710.59	93.3869
2709.92	89.6374
2709.25	74.6861
2708.58	104.544
2707.91	67.1963
2707.24	82.116
2706.57	85.835
2705.9	63.4333
2705.23	108.193
2704.56	70.8738
2703.89	100.7
2703.22	85.7676
2702.55	85.7541
2701.88	67.1013
2701.21	93.1817
2700.54	74.5336
2699.87	96.8785
2699.2	55.8826
2698.53	78.2234
2697.86	67.0381
2697.19	67.0275
2696.51	74.4633
2695.84	74.4516
2695.17	48.3859
2694.5	74.4282
2693.83	78.1373
2693.15	74.4048
2692.48	92.9913
2691.81	55.786
2691.14	85.5251
2690.47	78.0758
2689.79	78.0636
2689.12	63.1844
2688.45	92.9036
2687.77	52.0178
2687.1	70.5845
2686.43	92.8597
2685.76	70.5623
2685.08	103.97
2684.41	70.5401
2683.74	115.074
2683.06	89.0752
2682.39	74.2176
2681.71	81.6265
2681.04	81.6137
2680.37	66.7643
2679.69	70.4623
2679.02	44.4955
2678.34	92.6844
2677.67	92.6698
2676.99	63.0055
2676.32	88.935
2675.65	92.626
2674.97	88.907
2674.3	88.893
2673.62	88.879
2672.95	96.2704
2672.27	74.0425
2671.59	103.643
2670.92	59.2153
2670.24	74.0075
2669.57	85.0952
2668.89	81.3825
2668.22	88.767
2667.54	66.5647
2666.86	62.8568
2666.19	96.1187
2665.51	73.9258
2664.83	77.6099
2664.16	73.9025
2663.48	92.3636
2662.8	96.043
2662.13	77.5609
2661.45	66.4703
2660.77	66.4598
2660.1	81.2159
2659.42	110.731
2658.74	107.024
2658.06	70.1078
2657.39	118.058
2656.71	110.662
2656.03	66.3865
2655.35	106.939
2654.68	88.4874
2654	95.8462
2653.32	73.7162
2652.64	99.5012
2651.96	103.17
2651.28	99.4698
2650.6	99.4541
2649.93	99.4384
2649.25	95.7403
2648.57	80.9983
2647.89	88.3478
2647.21	117.778
2646.53	103.04
2645.85	91.9854
2645.17	99.3285
2644.49	99.3128
2643.81	77.2311
2643.13	91.9273
2642.45	88.2363
2641.77	84.5464
2641.09	99.2344
2640.41	102.894
2639.73	77.1579
2639.05	73.4721
2638.37	102.845
2637.69	106.501
2637.01	77.1092
2636.33	84.4396
2635.65	102.78
2634.96	88.083
2634.28	121.095
2633.6	91.7241
2632.92	95.378
2632.24	128.373
2631.56	102.682
2630.88	98.9994
2630.19	95.3177
2629.51	102.634
2628.83	109.947
2628.15	84.2795
2627.46	91.5937
2626.78	95.2424
2626.1	117.203
2625.42	135.494
2624.73	113.504
2624.05	102.504
2623.37	106.148
2622.69	87.8326
2622	128.069
2621.32	98.7805
2620.64	95.1069
2619.95	117.036
2619.27	124.331
2618.58	113.343
2617.9	102.358
2617.22	116.962
2616.53	95.0166
2615.85	91.3477
2615.16	135.173
2614.48	105.93
2613.79	124.174
2613.11	120.503
2612.43	109.53
2611.74	102.212
2611.06	102.196
2610.37	94.8813
2609.69	98.515
2609	138.629
2608.31	109.426
2607.63	123.997
2606.94	91.1598
2606.26	134.895
2605.57	98.4214
2604.89	105.695
2604.2	116.611
2603.51	105.662
2602.83	72.8585
2602.14	101.986
2601.45	127.462
2600.77	91.0299
2600.08	116.5
2599.39	112.841
2598.71	90.9866
2598.02	101.889
2597.33	101.873
2596.65	130.958
2595.96	76.3803
2595.27	98.1877
2594.58	94.5361
2593.9	98.1565
2593.21	127.22
2592.52	105.394
2591.83	101.744
2591.14	130.792
2590.46	105.344
2589.77	105.327
2589.08	108.942
2588.39	108.925
2587.7	112.537
2587.01	105.26
2586.32	97.9854
2585.64	94.3414
2584.95	108.838
2584.26	119.703
2583.57	108.804
2582.88	83.4029
2582.19	90.6409
2581.5	79.7513
2580.81	115.984
2580.12	123.213
2579.43	108.7
2578.74	119.551
2578.05	134.021
2577.36	94.1618
2576.67	119.494
2575.98	94.1319
2575.29	130.316
2574.6	90.4827
2573.91	112.181
2573.22	86.8358
2572.52	126.615
2571.83	108.51
2571.14	94.0273
2570.45	108.476
2569.76	93.9975
2569.07	108.441
2568.38	104.81
2567.68	122.861
2566.99	101.164
2566.3	90.3104
2565.61	144.474
2564.92	130.006
2564.22	101.099
2563.53	111.914
2562.84	119.115
2562.14	108.269
2561.45	137.119
2560.76	111.843
2560.07	108.218
2559.37	137.054
2558.68	104.577
2557.99	140.616
2557.29	75.7041
2556.6	93.714
2555.91	122.53
2555.21	129.717
2554.52	104.477
2553.82	111.665
2553.13	111.647
2552.44	122.432
2551.74	75.6078
2551.05	97.1946
2550.35	107.977
2549.66	100.762
2548.96	100.746
2548.27	86.3402
2547.57	111.505
2546.88	111.487
2546.18	122.257
2545.49	115.047
2544.79	104.245
2544.1	118.604
2543.4	104.212
2542.7	136.531
2542.01	107.771
2541.31	122.121
2540.62	86.1891
2539.92	122.082
2539.22	125.652
2538.53	125.632
2537.83	125.612
2537.13	114.827
2536.44	93.2824
2535.74	100.442
2535.04	111.186
2534.35	114.754
2533.65	107.565
2532.95	136.227
2532.25	103.946
2531.56	89.5946
2530.86	100.33
2530.16	100.314
2529.46	103.88
2528.76	111.027
2528.07	121.752
2527.37	128.893
2526.67	114.553
2525.97	110.956
2525.27	118.095
2524.57	100.186
2523.88	110.903
2523.18	121.616
2522.48	103.715
2521.78	107.274
2521.08	103.681
2520.38	114.389
2519.68	85.778
2518.98	121.499
2518.28	107.188
2517.58	100.026
2516.88	121.441
2516.18	128.564
2515.48	114.261
2514.78	99.9626
2514.08	110.655
2513.38	124.913
2512.68	110.62
2511.98	121.306
2511.28	160.526
2510.58	121.267
2509.88	139.078
2509.17	110.532
2508.47	128.339
2507.77	103.368
2507.07	135.426
2506.37	117.588
2505.67	106.881
2504.97	131.799
2504.26	135.339
2503.56	99.7076
2502.86	128.175
2502.16	113.915
2501.45	153.049
2500.75	117.437
2500.05	120.977
2499.35	103.17
2498.64	106.71
2497.94	135.145
2497.24	131.567
2496.53	113.77
2495.83	117.306
2495.13	120.842
2494.42	127.93
2493.72	99.4848
2493.02	92.364
2492.31	117.212
2491.61	134.95
2490.9	78.1167
2490.2	106.506
2489.5	131.336
2488.79	127.766
2488.09	113.552
2487.38	113.533
2486.68	131.252
2485.97	141.871
2485.27	124.118
2484.56	124.098
2483.86	131.168
2483.15	127.603
2482.45	106.319
2481.74	120.475
2481.04	127.541
2480.33	106.267
2479.62	120.417
2478.92	88.5279
2478.21	138.081
2477.51	130.979
2476.8	148.655
2476.09	130.937
2475.39	95.5336
2474.68	113.207
2473.97	120.263
2473.27	120.244
2472.56	113.153
2471.85	134.347
2471.14	88.3721
2470.44	120.167
2469.73	155.485
2469.02	105.996
2468.31	105.979
2467.61	123.622
2466.9	95.3502
2466.19	144.768
2465.48	134.154
2464.77	109.424
2464.07	134.111
2463.36	116.446
2462.65	112.899
2461.94	95.2434
2461.23	95.2281
2460.52	137.53
2459.81	126.93
2459.1	137.486
2458.4	91.6424
2457.69	140.966
2456.98	116.278
2456.27	130.351
2455.56	105.673
2454.85	112.7
2454.14	126.767
2453.43	130.268
2452.72	140.808
2452.01	105.589
2451.3	123.167
2450.59	130.184
2449.88	119.61
2449.16	133.66
2448.45	130.122
2447.74	116.036
2447.03	105.47
2446.32	130.059
2445.61	147.611
2444.9	105.419
2444.19	122.97
2443.47	115.924
2442.76	129.955
2442.05	105.352
2441.34	87.7791
2440.63	136.913
2439.91	122.851
2439.2	119.322
2438.49	161.41
2437.78	154.367
2437.06	119.265
2436.35	105.217
2435.64	126.24
2434.93	157.774
2434.21	112.177
2433.5	122.674
2432.79	105.132
2432.07	147.161
2431.36	157.648
2430.64	119.092
2429.93	122.575
2429.22	168.076
2428.5	122.536
2427.79	122.516
2427.07	132.996
2426.36	122.477
2425.65	139.951
2424.93	122.438
2424.22	139.906
2423.5	139.884
2422.79	115.385
2422.07	111.871
2421.36	122.339
2420.64	136.299
2419.92	132.783
2419.21	115.293
2418.49	150.206
2417.78	164.152
2417.06	146.665
2416.35	153.625
2415.63	118.691
2414.91	139.614
2414.2	139.592
2413.48	101.188
2412.76	139.547
2412.05	129.06
2411.33	136.014
2410.61	132.505
2409.9	118.538
2409.18	139.434
2408.46	163.809
2407.74	142.874
2407.03	156.788
2406.31	132.377
2405.59	153.255
2404.87	163.677
2404.16	153.205
2403.44	125.33
2402.72	128.79
2402	121.809
2401.28	135.708
2400.56	135.686
2399.85	153.057
2399.13	166.945
2398.41	132.143
2397.69	125.168
2396.97	135.577
2396.25	142.507
2395.53	184.186
2394.81	132.037
2394.09	142.438
2393.37	149.362
2392.65	107.662
2391.93	166.676
2391.21	104.156
2390.49	152.737
2389.77	142.3
2389.05	138.807
2388.33	152.663
2387.61	169.984
2386.89	135.271
2386.17	135.25
2385.45	138.695
2384.73	121.339
2384	176.779
2383.28	128.231
2382.56	169.792
2381.84	121.261
2381.12	173.201
2380.4	159.32
2379.67	148.905
2378.95	166.193
2378.23	107.316
2377.51	152.294
2376.79	138.427
2376.06	145.325
2375.34	138.382
2374.62	148.737
2373.9	121.046
2373.17	155.605
2372.45	131.378
2371.73	120.987
2371	120.967
2370.28	148.593
2369.56	124.383
2368.83	131.272
2368.11	145.067
2367.38	155.404
2366.66	120.85
2365.94	144.997
2365.21	162.232
2364.49	148.401
2363.76	120.772
2363.04	141.453
2362.31	155.229
2361.59	144.857
2360.86	155.178
2360.14	141.362
2359.41	168.917
2358.69	141.316
2357.96	151.632
2357.24	137.825
2356.51	137.803
2355.79	144.669
2355.06	165.31
2354.33	134.292
2353.61	161.814
2352.88	148.018
2352.15	151.436
2351.43	147.97
2350.7	158.268
2349.98	120.402
2349.25	182.294
2348.52	192.581
2347.79	195.988
2347.07	130.638
2346.34	158.115
2345.61	164.963
2344.88	137.447
2344.16	199.265
2343.43	161.448
2342.7	168.291
2341.97	168.263
2341.25	147.636
2340.52	144.179
2339.79	123.562
2339.06	154.428
2338.33	133.816
2337.6	157.808
2336.87	126.912
2336.14	154.328
2335.42	137.158
2334.69	147.421
2333.96	178.248
2333.23	167.937
2332.5	126.789
2331.77	178.161
2331.04	137.025
2330.31	143.853
2329.58	188.348
2328.85	157.502
2328.12	143.783
2327.39	150.605
2326.66	174.537
2325.93	147.135
2325.2	177.901
2324.47	150.508
2323.73	143.643
2323	129.942
2322.27	181.205
2321.54	150.41
2320.81	160.639
2320.08	136.692
2319.35	198.172
2318.61	126.399
2317.88	174.198
2317.15	167.339
2316.42	160.483
2315.69	150.215
2314.95	146.777
2314.22	170.644
2313.49	163.791
2312.76	122.824
2312.02	167.15
2311.29	163.712
2310.56	184.146
2309.82	177.297
2309.09	170.45
2308.36	170.423
2307.62	136.316
2306.89	160.145
2306.16	160.119
2305.42	156.687
2304.69	156.662
2303.95	166.852
2303.22	173.634
2302.48	156.585
2301.75	207.612
2301.02	190.564
2300.28	187.13
2299.55	156.484
2298.81	159.86
2298.08	173.436
2297.34	183.609
2296.6	156.382
2295.87	152.958
2295.13	159.73
2294.4	176.694
2293.66	169.87
2292.93	156.255
2292.19	169.815
2291.45	139.226
2290.72	162.969
2289.98	210.468
2289.24	166.311
2288.51	186.645
2287.77	169.65
2287.03	162.837
2286.3	176.378
2285.56	149.219
2284.82	193.275
2284.08	200.024
2283.35	196.602
2282.61	176.235
2281.87	149.098
2281.13	199.894
2280.4	169.374
2279.66	159.186
2278.92	182.865
2278.18	162.52
2277.44	176.035
2276.7	176.006
2275.97	192.898
2275.23	165.798
2274.49	155.622
2273.75	169.126
2273.01	162.335
2272.27	175.834
2271.53	175.806
2270.79	185.918
2270.05	192.647
2269.31	135.169
2268.57	179.07
2267.83	162.15
2267.09	172.256
2266.35	165.474
2265.61	202.589
2264.87	168.796
2264.13	205.898
2263.39	199.115
2262.65	175.463
2261.91	155.192
2261.17	192.271
2260.42	188.867
2259.68	178.72
2258.94	168.577
2258.2	182.033
2257.46	188.744
2256.72	185.344
2255.97	242.592
2255.23	185.283
2254.49	195.358
2253.75	222.268
2253	205.396
2252.26	175.063
2251.52	201.963
2250.78	168.275
2250.03	195.167
2249.29	178.313
2248.55	151.373
2247.8	178.255
2247.06	181.589
2246.32	141.213
2245.57	188.253
2244.83	188.222
2244.09	184.831
2243.34	198.241
2242.6	164.614
2241.85	184.741
2241.11	167.919
2240.36	147.744
2239.62	167.864
2238.88	198.047
2238.13	211.44
2237.39	194.627
2236.64	211.371
2235.89	181.145
2235.15	221.364
2234.4	187.793
2233.66	207.88
2232.91	181.027
2232.17	187.701
2231.42	204.427
2230.67	154.133
2229.93	207.71
2229.18	184.229
2228.44	204.293
2227.69	160.729
2226.94	214.271
2226.2	214.236
2225.45	194.119
2224.7	197.434
2223.95	157.252
2223.21	217.441
2222.46	207.371
2221.71	214.026
2220.96	193.929
2220.22	193.898
2219.47	213.921
2218.72	227.254
2217.97	167.071
2217.22	193.771
2216.48	193.739
2215.73	207.067
2214.98	233.747
2214.23	210.338
2213.48	213.642
2212.73	233.632
2211.98	153.505
2211.23	176.835
2210.48	183.478
2209.73	183.448
2208.98	190.088
2208.23	170.051
2207.48	190.026
2206.73	193.328
2205.98	193.296
2205.23	209.926
2204.48	199.896
2203.73	223.181
2202.98	199.831
2202.23	196.468
2201.48	216.413
2200.73	239.68
2199.98	193.044
2199.23	206.323
2198.48	196.308
2197.72	192.949
2196.97	209.548
2196.22	216.165
2195.47	199.504
2194.72	196.147
2193.97	206.087
2193.21	255.905
2192.46	176.113
2191.71	199.341
2190.96	192.665
2190.2	205.918
2189.45	199.243
2188.7	219.132
2187.94	209.137
2187.19	212.422
2186.44	232.298
2185.68	195.762
2184.93	199.048
2184.18	172.48
2183.42	218.881
2182.67	175.739
2181.91	162.449
2181.16	212.144
2180.41	172.338
2179.65	222.015
2178.9	215.352
2178.14	221.942
2177.39	228.53
2176.63	205.312
2175.88	172.169
2175.12	228.418
2174.37	198.591
2173.61	238.271
2172.86	215.07
2172.1	201.802
2171.34	205.077
2170.59	198.429
2169.83	228.156
2169.08	178.527
2168.32	198.331
2167.56	221.433
2166.81	214.788
2166.05	218.057
2165.29	191.594
2164.54	214.682
2163.78	217.95
2163.02	191.5
2162.27	214.577
2161.51	207.94
2160.75	198.006
2159.99	201.273
2159.23	201.24
2158.48	207.804
2157.72	214.366
2156.96	171.464
2156.2	220.889
2155.44	210.964
2154.69	220.816
2153.93	204.304
2153.17	230.628
2152.41	256.943
2151.65	220.671
2150.89	240.394
2150.13	210.721
2149.37	220.563
2148.61	197.486
2147.85	240.236
2147.09	230.325
2146.33	187.52
2145.57	253.274
2144.81	220.345
2144.05	207.156
2143.29	216.985
2142.53	223.524
2141.77	203.768
2141.01	236.595
2140.25	203.701
2139.49	183.958
2138.73	210.203
2137.97	216.736
2137.2	223.267
2136.44	249.493
2135.68	206.782
2134.92	203.466
2134.16	213.277
2133.4	249.328
2132.63	206.646
2131.87	219.73
2131.11	206.578
2130.35	219.658
2129.58	196.676
2128.82	219.586
2128.06	199.889
2127.29	206.408
2126.53	252.235
2125.77	199.79
2125	209.581
2124.24	199.724
2123.48	225.88
2122.71	229.116
2121.95	193.08
2121.19	212.681
2120.42	255.175
2119.66	232.236
2118.89	206.035
2118.13	235.43
2117.36	264.815
2116.6	219.008
2115.83	232.045
2115.07	232.007
2114.3	231.969
2113.54	235.197
2112.77	244.957
2112.01	218.792
2111.24	218.756
2110.48	218.72
2109.71	257.851
2108.94	257.809
2108.18	247.978
2107.41	238.15
2106.64	212.016
2105.88	208.72
2105.11	244.553
2104.34	241.253
2103.58	250.992
2102.81	273.764
2102.04	270.461
2101.28	241.094
2100.51	228.024
2099.74	234.5
2098.97	234.462
2098.21	266.982
2097.44	201.831
2096.67	240.855
2095.9	257.087
2095.13	260.298
2094.36	253.749
2093.6	269.97
2092.83	217.892
2092.06	240.617
2091.29	250.331
2090.52	282.794
2089.75	227.498
2088.98	250.207
2088.21	237.17
2087.44	311.843
2086.67	227.348
2085.9	292.256
2085.13	253.247
2084.36	262.944
2083.59	253.163
2082.82	249.876
2082.05	246.591
2081.28	259.526
2080.51	240.022
2079.74	252.954
2078.97	311.277
2078.2	233.419
2077.43	246.346
2076.65	207.415
2075.88	233.304
2075.11	246.224
2074.34	242.944
2073.57	281.769
2072.8	255.817
2072.02	249.299
2071.25	284.866
2070.48	268.636
2069.71	275.064
2068.93	265.312
2068.16	229.683
2067.39	245.818
2066.61	232.841
2065.84	268.37
2065.07	229.532
2064.29	252.12
2063.52	248.846
2062.75	261.73
2061.97	261.687
2061.2	258.413
2060.43	258.371
2059.65	251.87
2058.88	255.057
2058.1	277.611
2057.33	287.247
2056.55	274.292
2055.78	274.246
2055	296.782
2054.23	248.353
2053.45	225.738
2052.68	245.046
2051.9	248.229
2051.13	280.421
2050.35	277.151
2049.57	296.439
2048.8	241.622
2048.02	283.456
2047.25	276.968
2046.47	273.702
2045.69	247.901
2044.92	241.422
2044.14	251.037
2043.36	257.431
2042.59	225.215
2041.81	238.045
2041.03	241.222
2040.25	263.692
2039.48	257.218
2038.7	286.108
2037.92	298.917
2037.14	276.372
2036.37	276.326
2035.59	269.855
2034.81	301.931
2034.03	282.612
2033.25	269.721
2032.47	276.097
2031.69	279.262
2030.92	301.681
2030.14	288.796
2029.36	227.79
2028.58	240.583
2027.8	227.714
2027.02	256.537
2026.24	259.701
2025.46	301.331
2024.68	282.05
2023.9	278.799
2023.12	285.161
2022.34	294.724
2021.56	291.472
2020.78	236.982
2020	243.346
2019.21	272.119
2018.43	281.676
2017.65	268.828
2016.87	313.581
2016.09	275.137
2015.31	297.483
2014.53	268.65
2013.74	306.977
2012.96	274.955
2012.18	278.106
2011.4	294.04
2010.62	268.427
2009.83	287.552
2009.05	274.726
2008.27	277.875
2007.49	322.537
2006.7	274.59
2005.92	261.774
2005.14	274.498
2004.35	280.835
2003.57	283.98
2002.79	309.454
2002	255.178
2001.22	287.027
2000.43	296.545
1999.65	267.803
1998.87	261.383
1998.08	305.959
1997.3	305.908
1996.51	312.229
1995.73	302.621
1994.94	267.536
1994.16	286.598
1993.37	273.815
1992.59	334.253
1991.8	299.186
1991.02	248.22
1990.23	292.723
1989.44	254.5
1988.66	283.084
1987.87	330.74
1987.09	270.271
1986.3	321.092
1985.51	321.039
1984.73	298.739
1983.94	273.269
1983.15	263.692
1982.37	292.237
1981.58	279.484
1980.79	311.192
1980	295.266
1979.22	330.135
1978.43	276.124
1977.64	304.638
1976.85	295.069
1976.06	295.02
1975.28	298.143
1974.49	275.895
1973.7	285.361
1972.91	307.504
1972.12	291.605
1971.33	307.402
1970.54	297.845
1969.76	316.803
1968.97	297.746
1968.18	281.861
1967.39	297.646
1966.6	322.924
1965.81	303.878
1965.02	319.652
1964.23	325.927
1963.44	291.071
1962.65	328.982
1961.86	303.625
1961.07	328.872
1960.28	363.596
1959.48	319.279
1958.69	319.226
1957.9	306.532
1957.11	334.917
1956.32	344.339
1955.53	341.123
1954.74	290.538
1953.94	309.434
1953.15	312.539
1952.36	315.644
1951.57	347.15
1950.78	353.403
1949.98	299.711
1949.19	315.433
1948.4	334.303
1947.61	309.021
1946.81	331.039
1946.02	368.81
1945.23	318.322
1944.43	296.21
1943.64	302.462
1942.85	305.562
1942.05	321.259
1941.26	340.1
1940.46	333.746
1939.67	324.246
1938.88	327.339
1938.08	295.815
1937.29	336.669
1936.49	339.759
1935.7	327.121
1934.9	308.197
1934.11	298.712
1933.31	333.244
1932.52	352.048
1931.72	301.705
1930.93	304.797
1930.13	333.022
1929.33	320.401
1928.54	332.91
1927.74	326.574
1926.95	310.822
1926.15	320.187
1925.35	323.272
1924.56	360.875
1923.76	298.064
1922.96	307.425
1922.17	313.647
1921.37	323.002
1920.57	316.677
1919.77	326.029
1918.98	322.84
1918.18	325.92
1917.38	354.065
1916.58	338.342
1915.78	319.492
1914.99	322.57
1914.19	300.598
1913.39	322.462
1912.59	372.491
1911.79	325.484
1910.99	331.688
1910.19	290.96
1909.39	309.68
1908.59	319.011
1907.8	347.101
1907	340.79
1906.2	346.985
1905.4	359.428
1904.6	328.119
1903.8	312.442
1903	306.142
1902.2	356.064
1901.39	327.899
1900.59	377.801
1899.79	305.937
1898.99	349.583
1898.19	324.559
1897.39	343.226
1896.59	333.809
1895.79	364.945
1894.99	364.884
1894.18	342.996
1893.38	336.703
1892.58	336.647
1891.78	411.388
1890.98	364.578
1890.17	383.21
1889.37	323.961
1888.57	358.166
1887.76	342.536
1886.96	382.953
1886.16	361.099
1885.36	345.476
1884.55	339.194
1883.75	336.026
1882.94	342.192
1882.14	370.127
1881.34	354.516
1880.53	329.582
1879.73	379.267
1878.92	332.58
1878.12	351.17
1877.32	348.004
1876.51	382.119
1875.71	357.206
1874.9	385.097
1874.1	366.401
1873.29	329.085
1872.49	347.654
1871.68	332.078
1870.87	390.979
1870.07	353.684
1869.26	350.523
1868.46	378.377
1867.65	362.809
1866.84	424.756
1866.04	347.187
1865.23	384.321
1864.42	337.774
1863.62	331.521
1862.81	396.519
1862	396.452
1861.2	359.225
1860.39	371.549
1859.58	343.625
1858.77	386.9
1857.96	371.362
1857.16	392.959
1856.35	371.237
1855.54	349.523
1854.73	346.372
1853.92	343.221
1853.12	367.896
1852.31	355.47
1851.5	364.682
1850.69	373.89
1849.88	355.291
1849.07	389.21
1848.26	389.144
1847.45	376.727
1846.64	389.013
1845.83	395.122
1845.02	379.623
1844.21	391.903
1843.4	348.642
1842.59	354.753
1841.78	388.621
1840.97	400.89
1840.16	388.49
1839.35	376.094
1838.54	363.701
1837.72	372.885
1836.91	382.066
1836.1	409.728
1835.29	403.498
1834.48	366.475
1833.67	357.176
1832.85	400.216
1832.04	384.758
1831.23	344.685
1830.42	409.245
1829.6	369.181
1828.79	375.271
1827.98	427.491
1827.17	393.595
1826.35	372.007
1825.54	418.053
1824.73	381.102
1823.91	414.84
1823.1	420.914
1822.29	448.49
1821.47	426.915
1820.66	396.135
1819.84	429.842
1819.03	368.374
1818.21	392.866
1817.4	398.937
1816.58	435.688
1815.77	420.276
1814.95	411.004
1814.14	349.601
1813.32	364.873
1812.51	426.124
1811.69	373.945
1810.88	438.239
1810.06	404.46
1809.25	407.455
1808.43	392.071
1807.61	410.38
1806.8	373.567
1805.98	385.75
1805.16	419.356
1804.35	437.648
1803.53	422.274
1802.71	419.143
1801.89	422.132
1801.08	394.535
1800.26	443.394
1799.44	428.033
1798.62	431.017
1797.81	440.114
1796.99	449.207
1796.17	400.246
1795.35	391.014
1794.53	375.676
1793.71	400.043
1792.9	457.987
1792.08	384.644
1791.26	405.945
1790.44	405.876
1789.62	402.757
1788.8	414.891
1787.98	430.072
1787.16	393.403
1786.34	408.583
1785.52	475.583
1784.7	402.348
1783.88	447.994
1783.06	423.542
1782.24	417.377
1781.42	420.353
1780.6	438.555
1779.78	432.39
1778.95	450.584
1778.13	444.42
1777.31	453.475
1776.49	462.528
1775.67	432.025
1774.85	465.413
1774.02	471.417
1773.2	450.051
1772.38	440.854
1771.56	404.301
1770.74	455.901
1769.91	474.057
1769.09	455.747
1768.27	452.632
1767.44	489.003
1766.62	504.104
1765.8	461.511
1764.97	516.076
1764.15	515.989
1763.33	491.624
1762.5	524.917
1761.68	473.255
1760.85	491.374
1760.03	512.52
1759.21	503.337
1758.38	539.631
1757.56	533.477
1756.73	560.662
1755.91	557.537
1755.08	551.384
1754.26	590.668
1753.43	539.083
1752.6	623.777
1751.78	611.561
1750.95	623.565
1750.13	632.539
1749.3	605.198
1748.47	665.605
1747.65	692.717
1746.82	734.942
1745.99	804.368
1745.17	773.997
1744.34	925.011
1743.51	918.81
1742.69	994.201
1741.86	1093.74
1741.03	1135.84
1740.2	1193.04
1739.38	1271.35
1738.55	1337.56
1737.72	1482.24
1736.89	1494.06
1736.06	1584.34
1735.23	1716.83
1734.4	1686.37
1733.58	1743.39
1732.75	1908.96
1731.92	2146.84
1731.09	2137.44
1730.26	2215.44
1729.43	2365.75
1728.6	2579.29
1727.77	2756.6
1726.94	2969.99
1726.11	2984.54
1725.28	3110.51
1724.45	2998.58
1723.62	2928.84
1722.79	2922.33
1721.96	2657.03
1721.13	2436.95
1720.3	2340.28
1719.46	2243.64
1718.63	2065.84
1717.8	1912.16
1716.97	1806.62
1716.14	1680.08
1715.31	1589.65
1714.47	1409.11
1713.64	1339.78
1712.81	1309.51
1711.98	1201.19
1711.14	1107.91
1710.31	1008.65
1709.48	954.456
1708.65	828.255
1707.81	819.113
1706.98	794.974
1706.15	650.868
1705.31	665.752
1704.48	653.645
1703.64	608.566
1702.81	590.478
1701.98	662.302
1701.14	548.329
1700.31	629.123
1699.47	557.128
1698.64	613.935
1697.8	541.967
1696.97	541.875
1696.13	592.668
1695.3	523.734
1694.46	517.66
1693.63	514.58
1692.79	592.265
1691.95	508.424
1691.12	526.279
1690.28	547.117
1689.45	564.959
1688.61	478.191
1687.77	507.991
1686.94	501.929
1686.1	552.626
1685.26	522.665
1684.42	534.52
1683.59	531.444
1682.75	561.205
1681.91	492.463
1681.07	504.315
1680.24	498.262
1679.4	495.194
1678.56	495.11
1677.72	530.81
1676.88	518.794
1676.04	518.705
1675.21	521.597
1674.37	539.389
1673.53	482.685
1672.69	470.687
1671.85	479.542
1671.01	500.307
1670.17	419.829
1669.33	467.389
1668.49	494.098
1667.65	505.917
1666.81	496.905
1665.97	496.82
1665.13	458.067
1664.29	532.338
1663.45	511.433
1662.61	514.319
1661.77	523.148
1660.92	514.143
1660.08	466.513
1659.24	472.375
1658.4	516.85
1657.56	528.642
1656.72	492.919
1655.87	522.523
1655.03	489.782
1654.19	513.441
1653.35	492.582
1652.5	525.134
1651.66	507.246
1650.82	480.467
1649.98	518.934
1649.13	480.302
1648.29	539.507
1647.45	503.849
1646.6	563.029
1645.76	509.602
1644.91	545.063
1644.07	542.008
1643.23	571.528
1642.38	556.627
1641.54	541.73
1640.69	586.034
1639.85	568.178
1639	597.669
1638.16	550.235
1637.31	561.972
1636.47	585.533
1635.62	576.563
1634.78	653.326
1633.93	644.348
1633.08	620.596
1632.24	635.263
1631.39	679.468
1630.55	646.861
1629.7	741.252
1628.85	732.267
1628.01	726.238
1627.16	802.857
1626.31	814.524
1625.46	876.349
1624.62	964.704
1623.77	1014.68
1622.92	1061.7
1622.07	1288.56
1621.23	1394.47
1620.38	1703.74
1619.53	1930.37
1618.68	2360.25
1617.83	2925.51
1616.98	3634.9
1616.13	4305.76
1615.29	5005.85
1614.44	5658.58
1613.59	5996.13
1612.74	6030.42
1611.89	5817.52
1611.04	5495.83
1610.19	4809.5
1609.34	4388.1
1608.49	3684.55
1607.64	3195.87
1606.79	2833.75
1605.94	2460
1605.09	2098.14
1604.24	1895.05
1603.38	1721.41
1602.53	1580.14
1601.68	1477.09
1600.83	1268.37
1599.98	1235.86
1599.13	1103.58
1598.27	974.267
1597.42	935.958
1596.57	853.658
1595.72	815.382
1594.87	768.322
1594.01	677.298
1593.16	727.017
1592.31	721.03
1591.45	723.837
1590.6	650.463
1589.75	664.999
1588.89	632.666
1588.04	617.914
1587.19	573.888
1586.33	626.485
1585.48	629.304
1584.62	640.902
1583.77	637.866
1582.92	585.098
1582.06	625.947
1581.21	599.519
1580.35	570.177
1579.5	608.084
1578.64	567.058
1577.78	581.573
1576.93	607.771
1576.07	560.923
1575.22	607.562
1574.36	537.366
1573.51	508.074
1572.65	589.732
1571.79	592.55
1570.94	580.774
1570.08	563.167
1569.22	510.555
1568.37	571.724
1567.51	533.712
1566.65	545.284
1565.79	536.444
1564.94	527.607
1564.08	530.43
1563.22	486.63
1562.36	556.469
1561.5	611.719
1560.65	521.328
1559.79	529.974
1558.93	529.883
1558.07	523.97
1557.21	474.403
1556.35	549.979
1555.49	529.519
1554.63	511.974
1553.77	552.604
1552.91	535.061
1552.05	552.414
1551.19	468.018
1550.33	508.627
1549.47	499.822
1548.61	549.128
1547.75	522.889
1546.89	487.946
1546.03	525.613
1545.17	522.619
1544.31	542.85
1543.45	513.732
1542.58	583.29
1541.72	539.668
1540.86	507.665
1540	522.079
1539.14	527.789
1538.28	571.19
1537.41	513.113
1536.55	510.126
1535.69	512.936
1534.82	478.078
1533.96	495.378
1533.1	547.428
1532.24	544.438
1531.37	573.299
1530.51	492.141
1529.64	532.579
1528.78	506.441
1527.92	552.649
1527.05	532.303
1526.19	540.889
1525.32	520.552
1524.46	514.679
1523.59	546.391
1522.73	554.968
1521.86	511.523
1521	520.103
1520.13	517.124
1519.27	499.704
1518.4	531.386
1517.54	464.882
1516.67	557.185
1515.8	557.089
1514.94	548.335
1514.07	510.729
1513.21	533.721
1512.34	533.629
1511.47	516.233
1510.6	542.095
1509.74	516.055
1508.87	518.848
1508	536.05
1507.14	556.128
1506.27	504.174
1505.4	558.817
1504.53	527.04
1503.66	524.07
1502.8	452.004
1501.93	567.066
1501.06	529.554
1500.19	549.605
1499.32	543.756
1498.45	512.02
1497.58	540.692
1496.71	552.101
1495.84	514.63
1494.97	491.545
1494.1	497.208
1493.23	511.49
1492.36	520.02
1491.49	476.842
1490.62	499.736
1489.75	557.081
1488.88	511.048
1488.01	559.759
1487.14	522.351
1486.27	482.087
1485.4	522.17
1484.52	556.503
1483.65	516.254
1482.78	559.178
1481.91	464.468
1481.04	527.452
1480.17	524.495
1479.29	544.463
1478.42	544.369
1477.55	572.921
1476.67	584.278
1475.8	572.722
1474.93	526.813
1474.06	543.898
1473.18	572.425
1472.31	578.049
1471.43	555.06
1470.56	580.71
1469.69	549.148
1468.81	606.245
1467.94	620.436
1467.06	654.633
1466.19	640.228
1465.31	605.825
1464.44	634.292
1463.56	728.453
1462.69	662.634
1461.81	668.231
1460.94	656.694
1460.06	707.965
1459.19	667.883
1458.31	673.475
1457.43	664.799
1456.56	678.947
1455.68	693.09
1454.8	707.229
1453.93	664.338
1453.05	667.073
1452.17	658.407
1451.3	672.541
1450.42	666.726
1449.54	703.645
1448.66	669.343
1447.78	660.684
1446.91	637.791
1446.03	671.842
1445.15	623.338
1444.27	651.688
1443.39	677.183
1442.51	657.152
1441.64	665.57
1440.76	719.488
1439.88	642.593
1439	656.695
1438.12	605.419
1437.24	684.886
1436.36	670.56
1435.48	650.558
1434.6	656.126
1433.72	636.132
1432.84	658.737
1431.96	630.234
1431.08	624.447
1430.2	556.229
1429.31	590.182
1428.43	581.568
1427.55	575.794
1426.67	606.89
1425.79	612.455
1424.91	640.698
1424.02	643.421
1423.14	614.97
1422.26	725.368
1421.38	626.088
1420.49	733.614
1419.61	770.302
1418.73	812.64
1417.85	854.964
1416.96	883.121
1416.08	854.667
1415.2	879.984
1414.31	868.515
1413.43	876.849
1412.54	873.869
1411.66	873.717
1410.78	865.084
1409.89	774.483
1409.01	836.522
1408.12	768.562
1407.24	740.177
1406.35	686.381
1405.47	669.317
1404.58	666.376
1403.7	663.437
1402.81	635.095
1401.92	575.72
1401.04	691.308
1400.15	634.764
1399.27	631.833
1398.38	620.442
1397.49	648.531
1396.61	563.842
1395.72	580.656
1394.83	600.282
1393.94	583.271
1393.06	524.007
1392.17	588.701
1391.28	582.966
1390.39	582.865
1389.51	557.426
1388.62	591.106
1387.73	633.218
1386.84	540.251
1385.95	590.797
1385.06	610.384
1384.17	582.154
1383.29	567.993
1382.4	573.517
1381.51	601.526
1380.62	601.421
1379.73	556.358
1378.84	612.449
1377.95	581.444
1377.06	609.427
1376.17	623.36
1375.28	634.481
1374.39	586.652
1373.5	631.453
1372.6	572.418
1371.71	628.427
1370.82	611.488
1369.93	642.231
1369.04	611.274
1368.15	672.845
1367.26	658.713
1366.36	596.942
1365.47	627.66
1364.58	563.114
1363.69	593.828
1362.79	610.528
1361.9	557.219
1361.01	582.319
1360.11	590.614
1359.22	576.518
1358.33	590.408
1357.43	598.698
1356.54	551.041
1355.65	584.505
1354.75	587.199
1353.86	547.957
1352.96	614.946
1352.07	564.534
1351.17	611.937
1350.28	547.574
1349.39	567.031
1348.49	564.139
1347.59	544.495
1346.7	589.068
1345.8	633.626
1344.91	552.581
1344.01	599.92
1343.12	597.026
1342.22	641.551
1341.32	599.606
1340.43	624.596
1339.53	593.82
1338.63	599.291
1337.74	621.482
1336.84	638.091
1335.94	607.334
1335.04	646.225
1334.15	595.982
1333.25	587.524
1332.35	598.558
1331.45	595.669
1330.55	581.65
1329.66	631.634
1328.76	642.651
1327.86	667.573
1326.96	678.58
1326.06	697.925
1325.16	614.4
1324.26	622.632
1323.36	689.221
1322.46	702.994
1321.56	686.202
1320.66	699.97
1319.76	724.842
1318.86	716.385
1317.96	769.007
1317.06	735.564
1316.16	793.715
1315.26	860.169
1314.36	893.31
1313.46	884.832
1312.55	881.903
1311.65	959.387
1310.75	912.09
1309.85	992.312
1308.95	933.94
1308.04	947.631
1307.14	1019.49
1306.24	1035.93
1305.34	991.443
1304.43	1063.26
1303.53	1063.07
1302.63	1101.64
1301.72	1087.61
1300.82	1162.13
1299.92	1200.65
1299.01	1194.91
1298.11	1222.36
1297.21	1382.51
1296.3	1484.56
1295.4	1462.18
1294.49	1605.63
1293.59	1655.09
1292.68	1798.45
1291.78	1836.81
1290.87	1828.2
1289.97	1943.84
1289.06	1951.79
1288.16	1912.8
1287.25	1959.38
1286.34	1804.52
1285.44	1751.79
1284.53	1795.61
1283.62	1737.38
1282.72	1709.51
1281.81	1665.1
1280.9	1695.12
1280	1639.71
1279.09	1661.46
1278.18	1567.51
1277.27	1520.41
1276.37	1434.77
1275.46	1434.52
1274.55	1318.64
1273.64	1233.09
1272.73	1232.87
1271.82	1108.84
1270.92	1015.11
1270.01	1012.18
1269.1	921.252
1268.19	871.598
1267.28	887.939
1266.37	874.04
1265.46	843.658
1264.55	832.519
1263.64	837.867
1262.73	818.493
1261.82	807.364
1260.91	760.546
1260	763.158
1259.09	743.81
1258.18	697.028
1257.27	688.674
1256.35	680.323
1255.44	630.834
1254.53	636.207
1253.62	597.71
1252.71	608.57
1251.79	597.5
1250.88	630.279
1249.97	635.647
1249.06	619.099
1248.14	583.385
1247.23	561.375
1246.32	594.131
1245.41	558.439
1244.49	621.291
1243.58	536.351
1242.66	612.864
1241.75	536.162
1240.84	579.828
1239.92	546.911
1239.01	549.549
1238.09	513.915
1237.18	582.152
1236.26	530.13
1235.35	562.822
1234.43	573.649
1233.52	529.849
1232.6	584.37
1231.69	546.044
1230.77	537.758
1229.86	529.476
1228.94	526.653
1228.02	523.832
1227.11	529.195
1226.19	510.011
1225.27	512.648
1224.36	498.925
1223.44	561.533
1222.52	523.278
1221.6	506.836
1220.69	536.715
1219.77	495.761
1218.85	541.973
1217.93	511.924
1217.01	528.169
1216.1	522.632
1215.18	538.869
1214.26	525.168
1213.34	533.237
1212.42	511.382
1211.5	519.451
1210.58	527.516
1209.66	530.142
1208.74	546.357
1207.82	529.955
1206.9	546.164
1205.98	516.183
1205.06	488.929
1204.14	480.696
1203.22	472.465
1202.3	472.381
1201.38	521.156
1200.46	553.631
1199.54	534.539
1198.61	537.157
1197.69	531.637
1196.77	520.696
1195.85	555.853
1194.93	525.933
1194	542.104
1193.08	582.658
1192.16	552.75
1191.24	628.507
1190.31	533.594
1189.39	514.543
1188.47	587.558
1187.54	568.504
1186.62	590.057
1185.7	560.184
1184.77	579.025
1183.85	649.259
1182.92	654.554
1182	624.691
1181.07	592.135
1180.15	608.25
1179.23	664.902
1178.3	675.594
1177.37	645.753
1176.45	669.952
1175.52	669.833
1174.6	615.705
1173.67	647.996
1172.75	645.181
1171.82	585.689
1170.89	585.585
1169.97	588.179
1169.04	577.285
1168.11	561
1167.19	571.687
1166.26	536.535
1165.33	544.527
1164.4	525.564
1163.48	533.555
1162.55	511.907
1161.62	479.491
1160.69	541.351
1159.76	517.02
1158.83	511.544
1157.91	532.988
1156.98	500.597
1156.05	492.435
1155.12	468.134
1154.19	529.92
1153.26	481.415
1152.33	518.976
1151.4	500.064
1150.47	513.416
1149.54	513.325
1148.61	545.479
1147.68	540.009
1146.75	553.343
1145.82	566.673
1144.89	510.184
1143.96	547.679
1143.02	552.95
1142.09	504.545
1141.16	568.854
1140.23	549.973
1139.3	571.334
1138.36	547.096
1137.43	565.768
1136.5	589.796
1135.57	608.454
1134.63	653.905
1133.7	656.468
1132.77	653.673
1131.83	637.485
1130.9	690.933
1129.97	704.198
1129.03	658.562
1128.1	701.271
1127.17	722.555
1126.23	717.075
1125.3	797.203
1124.36	815.784
1123.43	794.246
1122.49	855.601
1121.56	871.488
1120.62	833.914
1119.69	881.868
1118.75	948.507
1117.81	905.596
1116.88	974.878
1115.94	948.001
1115.01	934.482
1114.07	880.927
1113.13	955.502
1112.2	907.298
1111.26	909.805
1110.32	874.965
1109.38	853.472
1108.45	834.654
1107.51	845.17
1106.57	815.697
1105.63	879.516
1104.69	834.059
1103.76	884.532
1102.82	887.038
1101.88	884.217
1100.94	918.676
1100	934.486
1099.06	1072.74
1098.12	1021.98
1097.18	1090.98
1096.24	1106.75
1095.3	1157.09
1094.36	1119.65
1093.42	1204.54
1092.48	1113.94
1091.54	1079.18
1090.6	988.632
1089.66	935.313
1088.72	855.447
1087.78	842.013
1086.84	764.847
1085.9	801.884
1084.95	767.229
1084.01	700.735
1083.07	689.995
1082.13	673.951
1081.19	647.302
1080.24	673.711
1079.3	636.464
1078.36	652.259
1077.41	609.727
1076.47	646.725
1075.53	662.51
1074.58	561.708
1073.64	553.661
1072.7	566.805
1071.75	542.87
1070.81	542.774
1069.86	598.268
1068.92	579.634
1067.98	534.544
1067.03	534.449
1066.09	534.353
1065.14	573.93
1064.19	568.539
1063.25	523.491
1062.3	544.545
1061.36	544.448
1060.41	509.998
1059.46	525.759
1058.52	486.042
1057.57	533.495
1056.63	530.759
1055.68	509.543
1054.73	512.092
1053.78	551.588
1052.84	535.657
1051.89	519.732
1050.94	540.741
1049.99	569.654
1049.05	535.274
1048.1	548.36
1047.15	521.903
1046.2	511.268
1045.25	526.986
1044.3	553.237
1043.35	534.7
1042.4	510.902
1041.45	581.903
1040.5	542.31
1039.55	589.591
1038.6	547.38
1037.65	557.806
1036.7	531.4
1035.75	547.086
1034.8	554.877
1033.85	588.958
1032.9	538.906
1031.95	572.977
1031	572.875
1030.05	583.282
1029.1	554.281
1028.14	575.194
1027.19	540.953
1026.24	577.613
1025.29	593.26
1024.33	632.522
1023.38	548.438
1022.43	592.941
1021.48	595.458
1020.52	605.842
1019.57	574.267
1018.62	587.273
1017.66	623.865
1016.71	639.478
1015.75	634.123
1014.8	649.729
1013.85	576.269
1012.89	589.26
1011.94	631.05
1010.98	651.881
1010.03	685.792
1009.07	662.115
1008.12	735.261
1007.16	750.826
1006.2	742.844
1005.25	774.093
1004.29	768.725
1003.34	802.572
1002.38	886.069
1001.42	888.523
1000.47	849.171
999.508	906.491
998.551	903.716
997.594	895.719
996.636	859.005
995.679	856.24
994.721	871.747
993.763	801.132
992.805	764.461
991.846	793.019
990.888	735.497
989.929	688.427
988.97	693.518
988.011	669.932
987.052	672.418
986.093	682.721
985.133	617.465
984.173	619.959
983.213	627.66
982.253	598.904
981.293	624.831
980.333	572.659
979.372	608.992
978.411	569.851
977.45	569.749
976.489	554.04
975.528	608.554
974.566	566.841
973.605	605.735
972.643	597.829
971.681	569.134
970.719	608.007
969.756	545.549
968.794	537.659
967.831	496.011
966.868	576.412
965.905	514.005
964.942	563.227
963.979	521.605
963.015	524.106
962.052	524.011
961.088	518.73
960.124	536.789
959.159	500.394
958.195	482.158
957.23	484.663
956.266	531.219
955.301	512.988
954.336	505.124
953.37	489.494
952.405	533.426
951.439	517.796
950.473	522.88
949.507	496.905
948.541	512.341
947.575	558.817
946.608	543.197
945.642	519.823
944.675	506.801
943.708	553.244
942.741	516.957
941.773	506.527
940.806	516.771
939.838	529.595
938.87	547.58
937.902	511.326
936.934	511.234
935.965	516.305
934.997	518.793
934.028	521.28
933.059	485.064
932.09	508.194
931.121	510.681
930.151	518.325
929.182	513.075
928.212	494.938
927.242	541.241
926.272	525.682
925.301	494.67
924.331	530.644
923.36	520.246
922.389	530.452
921.418	486.589
920.447	550.854
919.475	550.754
918.504	504.338
917.532	542.837
916.56	504.156
915.588	537.498
914.616	560.542
913.643	555.299
912.671	534.636
911.698	573.088
910.725	565.276
909.752	557.467
908.779	601.031
907.805	595.786
906.831	557.165
905.858	577.601
904.883	592.897
903.909	613.319
902.935	602.945
901.96	587.445
900.986	630.94
900.011	664.162
899.036	651.223
898.06	599.837
897.085	615.106
896.109	638.057
895.133	655.876
894.157	622.457
893.181	650.516
892.205	650.399
891.229	650.281
890.252	685.999
889.275	673.079
888.298	724.132
887.321	698.418
886.343	672.713
885.366	695.608
884.388	644.344
883.41	710.695
882.432	715.678
881.454	728.326
880.475	730.749
879.497	728.062
878.518	704.943
877.539	745.675
876.56	691.922
875.58	714.771
874.601	694.224
873.621	773.204
872.641	739.897
871.661	704.05
870.681	793.188
869.701	818.544
868.72	846.44
867.739	808.051
866.758	909.848
865.777	886.75
864.796	942.638
863.815	1041.81
862.833	1181.69
861.851	1313.88
860.869	1415.48
859.887	1598.49
858.905	1664.36
857.922	1707.32
856.939	1562
855.956	1566.81
854.973	1536
853.99	1454.36
853.007	1357.5
852.023	1286.08
851.039	1232.49
850.055	1064.57
849.071	1026.28
848.087	998.151
847.102	995.431
846.118	845.455
845.133	870.685
844.148	873.065
843.163	852.607
842.177	827.081
841.192	801.565
840.206	811.564
839.22	780.988
838.234	745.354
837.248	737.614
836.261	775.494
835.274	750.015
834.288	739.745
833.301	737.078
832.313	736.944
831.326	736.81
830.339	726.55
829.351	739.073
828.363	771.837
827.375	761.576
826.387	763.967
825.398	728.419
824.409	771.276
823.421	758.494
822.432	738.133
821.443	717.78
820.453	823.78
819.464	752.889
818.474	730.018
817.484	787.973
816.494	757.529
815.504	754.866
814.513	711.818
813.523	757.115
812.532	729.221
811.541	749.271
810.55	721.389
809.559	731.345
808.567	728.691
807.575	657.971
806.583	700.7
805.591	682.932
804.599	748.317
803.607	697.798
802.614	712.783
801.621	737.835
800.628	679.792
799.635	714.911
798.642	775.184
797.649	684.454
796.655	815.156
795.661	769.73
794.667	912.944
793.673	819.74
792.678	844.731
791.684	736.492
790.689	721.278
789.694	693.507
788.699	736.089
787.704	650.554
786.708	693.128
785.713	662.871
784.717	700.406
783.721	665.139
782.724	675.056
781.728	627.261
780.731	617.112
779.735	674.686
778.738	657.01
777.741	636.832
776.743	616.662
775.746	588.98
774.748	664.048
773.75	646.389
772.752	668.815
771.754	646.153
770.756	620.995
769.757	600.853
768.758	613.259
767.759	613.147
766.76	588.013
765.761	645.445
764.761	595.302
763.762	652.712
762.762	600.085
761.762	577.476
760.762	587.369
759.761	577.265
758.761	584.655
757.76	619.522
756.759	621.906
755.758	616.798
754.756	646.646
753.755	576.633
752.753	618.956
751.751	648.786
750.749	583.801
749.747	636.077
748.745	658.407
747.742	678.234
746.739	668.138
745.736	663.031
744.733	657.925
743.73	600.496
742.726	670.14
741.723	687.453
740.719	627.56
739.715	669.773
738.71	647.245
737.706	607.304
736.701	634.566
735.697	664.306
734.692	651.747
733.686	666.55
732.681	629.128
731.675	683.71
730.67	666.184
729.664	656.121
728.658	705.698
727.651	700.6
726.645	625.953
725.638	665.574
724.631	682.834
723.624	680.226
722.617	707.405
721.61	672.532
720.602	697.221
719.595	657.401
718.587	652.32
717.578	716.676
716.57	686.792
715.562	691.624
714.553	679.105
713.544	683.936
712.535	738.318
711.526	730.751
710.516	738.047
709.507	745.34
708.497	809.573
707.487	754.968
706.477	834.025
705.467	848.718
704.456	962.364
703.445	989.395
702.434	1083.19
701.423	1018.7
700.412	929.52
699.401	870.029
698.389	743.837
697.377	760.996
696.365	741.094
695.353	728.608
694.34	654.392
693.328	723.403
692.315	668.963
691.302	705.861
690.289	681.055
689.276	705.602
688.262	688.205
687.249	690.545
686.235	668.226
685.221	673.034
684.206	751.786
683.192	685.109
682.177	717.015
681.162	704.565
680.147	726.603
679.132	721.545
678.117	701.715
677.101	706.509
676.086	728.53
675.07	676.72
674.054	639.69
673.037	693.69
672.021	683.725
671.004	715.566
669.987	685.932
668.97	710.386
667.953	656.188
666.936	663.439
665.918	655.946
664.9	636.176
663.882	658.161
662.864	687.504
661.846	699.652
660.827	655.343
659.808	694.487
658.789	684.545
657.77	718.762
656.751	728.44
655.731	703.784
654.712	657.071
653.692	669.207
652.672	691.141
651.652	717.968
650.631	678.637
649.611	715.254
648.59	683.285
647.569	727.234
646.548	719.755
645.526	704.937
644.505	719.49
643.483	741.379
642.461	711.886
641.439	733.768
640.417	718.96
639.394	721.272
638.371	838.477
637.348	799.217
636.325	865.048
635.302	1016.37
634.279	1155.41
633.255	1416.53
632.231	1606.73
631.207	1584.46
630.183	1318.11
629.159	1066.49
628.134	956.494
627.109	844.096
626.084	821.988
625.059	753.554
624.034	743.662
623.008	714.271
621.983	733.638
620.957	706.697
619.931	750.422
618.904	721.051
617.878	755.016
616.851	706.175
615.824	747.433
614.797	713.216
613.77	722.82
612.743	795.685
611.715	700.657
610.687	734.581
609.659	732.013
608.631	702.7
607.603	726.881
606.574	743.761
605.546	702.311
604.517	716.759
603.487	750.636
602.458	692.206
601.429	779.499
600.399	740.508
599.369	728.234
598.339	764.504
597.309	783.776
596.278	759.37
595.248	768.932
594.217	749.388
593.186	741.975
592.155	761.232
591.123	736.853
590.091	763.374
589.06	712.35
588.028	750.979
586.996	745.996
585.963	779.76
584.931	733.614
583.898	750.423
582.865	757.545
581.832	764.664
580.798	769.361
579.765	771.638
578.731	766.658
577.697	802.786
576.663	771.209
575.629	725.141
574.594	807.174
573.56	780.446
572.525	794.796
571.49	804.31
570.455	825.895
569.419	818.499
568.384	772.481
567.348	745.789
566.312	774.608
565.276	747.925
564.239	786.382
563.203	805.53
562.166	776.445
561.129	788.355
560.092	788.209
559.054	812.163
558.017	821.65
556.979	826.316
555.941	823.754
554.903	770.621
553.865	739.177
552.826	772.742
551.787	722.055
550.749	774.862
549.709	810.808
548.67	755.33
547.631	781.646
546.591	752.645
545.551	810.206
544.511	774
543.471	764.243
542.43	807.352
541.39	790.385
540.349	807.052
539.308	775.683
538.267	794.747
537.225	864.217
536.184	787.251
535.142	794.304
534.1	782.16
533.058	767.622
532.015	772.276
530.973	731.368
529.93	762.399
528.887	704.729
527.844	738.15
526.801	778.747
525.757	754.646
524.713	756.9
523.669	732.812
522.625	768.591
521.581	859.417
520.537	799.42
519.492	811.237
518.447	823.049
517.402	818.111
516.357	798.826
515.311	784.329
514.265	750.712
513.22	800.77
512.174	750.433
511.127	750.293
510.081	778.822
509.034	795.397
507.987	757.039
506.94	721.083
505.893	718.561
504.846	797.192
503.798	739.771
502.75	773.036
501.702	787.205
500.654	829.988
499.606	844.141
