3200.54	16.8392
3199.95	0
3199.35	37.8824
3198.76	16.8341
3198.16	37.8709
3197.57	46.2797
3196.98	25.2397
3196.38	29.4418
3195.79	25.232
3195.19	21.0235
3194.6	16.8163
3194	33.6275
3193.41	46.2308
3192.81	37.8194
3192.22	33.6122
3191.62	29.4062
3191.03	37.8023
3190.43	29.3973
3189.84	41.9898
3189.24	20.9917
3188.65	41.9771
3188.05	58.7591
3187.45	50.3573
3186.86	25.1749
3186.26	-8.39035
3185.67	8.38908
3185.07	33.5512
3184.47	29.3529
3183.88	33.5411
3183.28	20.96
3182.69	12.5741
3182.09	12.5722
3181.49	12.5703
3180.9	16.7579
3180.3	20.9442
3179.7	25.1292
3179.1	8.37512
3178.51	50.2431
3177.91	62.7944
3177.31	0
3176.72	16.7401
3176.12	46.0283
3175.52	16.735
3174.92	41.8313
3174.33	29.2775
3173.73	16.7274
3173.13	37.631
3172.53	37.6253
3171.93	20.8998
3171.34	37.6139
3170.74	41.7869
3170.14	54.3148
3169.54	16.7097
3168.94	29.2376
3168.34	25.057
3167.74	16.7021
3167.15	41.749
3166.55	20.8713
3165.95	45.9099
3165.35	50.076
3164.75	12.5171
3164.15	25.0304
3163.55	50.0532
3162.95	37.5342
3162.35	45.8682
3161.75	29.1844
3161.15	12.5057
3160.55	25.0077
3159.95	50.0077
3159.35	41.6668
3158.75	33.3284
3158.15	29.1579
3157.55	41.6478
3156.95	8.3283
3156.35	20.8176
3155.75	33.3031
3155.15	4.16226
3154.55	29.1314
3153.95	45.7709
3153.35	24.9622
3152.75	16.6389
3152.15	16.6364
3151.54	74.8525
3150.94	37.4206
3150.34	0
3149.74	8.31316
3149.14	41.5595
3148.54	29.0872
3147.94	29.0828
3147.33	49.8487
3146.73	33.2274
3146.13	29.0696
3145.53	41.5216
3144.93	20.7577
3144.32	16.6036
3143.72	53.9536
3143.12	62.2447
3142.52	16.5961
3141.91	37.3355
3141.31	29.0343
3140.71	53.9126
3140.1	58.0509
3139.5	24.8752
3138.9	49.7428
3138.29	41.4461
3137.69	20.7199
3137.09	24.8601
3136.48	45.5699
3135.88	49.7051
3135.28	33.1317
3134.67	20.7042
3134.07	28.9814
3133.47	28.977
3132.86	28.9726
3132.26	4.13831
3131.65	8.27537
3131.05	49.6447
3130.45	20.6821
3129.84	20.679
3129.24	16.5407
3128.63	62.0181
3128.03	24.8035
3127.42	28.933
3126.82	49.5919
3126.21	28.9242
3125.61	45.4454
3125	49.5693
3124.4	37.1713
3123.79	57.8133
3123.19	24.7733
3122.58	28.8978
3121.97	37.1487
3121.37	33.0161
3120.76	20.6319
3120.16	45.3833
3119.55	41.2512
3118.94	32.996
3118.34	24.7432
3117.73	49.4789
3117.13	20.6131
3116.52	61.8298
3115.91	28.8495
3115.31	20.6037
3114.7	65.9217
3114.09	28.8364
3113.48	24.7131
3112.88	37.064
3112.27	24.7056
3111.66	49.4037
3111.06	41.1635
3110.45	28.81
3109.84	16.4604
3109.23	53.4881
3108.63	45.2523
3108.02	45.2454
3107.41	53.4637
3106.8	69.9034
3106.19	20.5567
3105.59	36.9964
3104.98	36.9908
3104.37	32.8757
3103.76	57.5237
3103.15	32.8657
3102.54	28.7531
3101.93	28.7487
3101.33	61.595
3100.72	32.8456
3100.11	41.0508
3099.5	36.9401
3098.89	49.246
3098.28	36.9288
3097.67	49.2309
3097.06	41.0195
3096.45	65.6213
3095.84	41.007
3095.23	69.7013
3094.62	49.1935
3094.01	32.7906
3093.4	57.3749
3092.79	28.6831
3092.18	61.4543
3091.57	40.9633
3090.96	53.2442
3090.35	49.141
3089.74	49.1335
3089.13	98.252
3088.52	32.7457
3087.91	40.9259
3087.3	45.0116
3086.69	69.5527
3086.08	20.4536
3085.46	49.0811
3084.85	65.4315
3084.24	69.5103
3083.63	53.1469
3083.02	65.4015
3082.41	73.5655
3081.79	69.4679
3081.18	53.1144
3080.57	89.8722
3079.96	89.8585
3079.35	57.174
3078.73	81.6647
3078.12	40.8261
3077.51	65.3118
3076.9	85.7086
3076.28	81.6148
3075.67	57.1217
3075.06	48.9539
3074.45	77.4986
3073.83	101.956
3073.22	73.3973
3072.61	69.3091
3071.99	44.8402
3071.38	61.1364
3070.77	48.9017
3070.15	57.0432
3069.54	69.2562
3068.93	69.2456
3068.31	48.8718
3067.7	57.0084
3067.08	65.1425
3066.47	44.7786
3065.86	52.9121
3065.24	48.8345
3064.63	85.4473
3064.01	69.1611
3063.4	69.1505
3062.78	56.9388
3062.17	65.0629
3061.55	48.7897
3060.94	28.4563
3060.32	93.4851
3059.71	32.5116
3059.09	65.0132
3058.48	60.9406
3057.86	28.4346
3057.25	40.6147
3056.63	73.0952
3056.02	56.8431
3055.4	36.5364
3054.78	60.8847
3054.17	52.7587
3053.55	64.9239
3052.94	52.7426
3052.32	64.904
3051.7	40.5588
3051.09	40.5526
3050.47	48.6557
3049.85	44.5942
3049.24	36.4806
3048.62	81.0556
3048	60.7824
3047.39	64.8246
3046.77	44.5601
3046.15	40.503
3045.53	44.5465
3044.92	48.5887
3044.3	44.5329
3043.68	40.4782
3043.06	48.5664
3042.45	52.6056
3041.83	60.6895
3041.21	60.6802
3040.59	44.492
3039.97	64.7057
3039.35	60.6523
3038.74	72.7717
3038.12	32.338
3037.5	52.5412
3036.88	48.4922
3036.26	52.5251
3035.64	56.5569
3035.02	32.3133
3034.41	56.5396
3033.79	56.5309
3033.17	64.5968
3032.55	32.2935
3031.93	24.2164
3031.31	40.3545
3030.69	68.5921
3030.07	40.3421
3029.45	76.6383
3028.83	68.5606
3028.21	68.5501
3027.59	64.5079
3026.97	36.2801
3026.35	36.2746
3025.73	64.4782
3025.11	44.322
3024.49	32.2292
3023.87	60.4205
3023.25	68.4661
3022.63	64.4288
3022	44.288
3021.38	48.3068
3020.76	72.4491
3020.14	64.3893
3019.52	60.3557
3018.9	84.4851
3018.28	52.2923
3017.66	40.2187
3017.03	64.34
3016.41	64.3301
3015.79	52.2602
3015.17	56.2716
3014.55	32.1503
3013.92	60.2725
3013.3	52.2282
3012.68	64.271
3012.06	72.2937
3011.43	60.2355
3010.81	40.1509
3010.19	52.1881
3009.57	56.194
3008.94	40.1324
3008.32	72.2272
3007.7	52.1561
3007.07	56.1595
3006.45	40.1078
3005.83	60.1524
3005.2	52.1241
3004.58	72.1607
3003.96	72.1497
3003.33	48.0924
3002.71	68.1204
3002.08	88.1423
3001.46	48.0703
3000.84	60.0786
3000.21	56.0647
2999.59	56.0561
2998.96	64.0543
2998.34	48.0334
2997.71	52.0281
2997.09	52.0202
2996.46	76.0178
2995.84	56.0045
2995.21	63.9953
2994.59	75.9828
2993.96	67.9741
2993.34	63.9658
2992.71	71.9505
2992.09	71.9395
2991.46	75.9244
2990.84	75.9128
2990.21	79.8959
2989.58	75.8894
2988.96	59.9035
2988.33	67.8802
2987.71	63.8774
2987.08	87.818
2986.45	67.8489
2985.83	59.8575
2985.2	43.8887
2984.57	67.8176
2983.95	83.7618
2983.32	63.8087
2982.69	79.7487
2982.07	71.7628
2981.44	59.7931
2980.81	71.7407
2980.18	55.7897
2979.56	87.6561
2978.93	47.8051
2978.3	27.882
2977.67	75.6681
2977.05	83.6203
2976.42	79.6261
2975.79	87.5752
2975.16	51.741
2974.53	71.6304
2973.91	71.6194
2973.28	115.369
2972.65	71.5974
2972.02	87.4944
2971.39	103.387
2970.76	95.4191
2970.13	71.5533
2969.5	95.3897
2968.88	83.4532
2968.25	119.2
2967.62	123.155
2966.99	103.275
2966.36	91.3448
2965.73	127.069
2965.1	87.3464
2964.47	103.212
2963.84	87.3195
2963.21	91.2745
2962.58	91.2605
2961.95	111.083
2961.32	91.2324
2960.69	111.048
2960.06	130.858
2959.43	99.1198
2958.8	99.1045
2958.17	83.235
2957.53	107
2956.9	126.795
2956.27	118.852
2955.64	99.0282
2955.01	95.0524
2954.38	75.2383
2953.75	126.698
2953.12	87.0911
2952.48	126.658
2951.85	67.277
2951.22	114.749
2950.59	79.125
2949.96	94.9353
2949.33	98.8757
2948.69	79.0884
2948.06	63.2609
2947.43	98.83
2946.8	86.957
2946.16	71.1356
2945.53	94.8329
2944.9	86.9168
2944.26	82.9532
2943.63	90.8395
2943	94.7744
2942.37	78.9665
2941.73	55.268
2941.1	78.9421
2940.47	86.823
2939.83	78.9178
2939.2	78.9056
2938.56	90.7275
2937.93	55.2169
2937.3	74.9256
2936.66	70.9712
2936.03	47.3069
2935.39	98.5407
2934.76	74.8794
2934.13	78.8083
2933.49	55.1573
2932.86	47.2704
2932.22	66.956
2931.59	74.8216
2930.95	110.246
2930.32	82.6721
2929.68	74.787
2929.05	74.7754
2928.41	59.0241
2927.78	78.6867
2927.14	86.542
2926.5	70.7962
2925.87	70.7852
2925.23	74.7062
2924.6	106.145
2923.96	70.7524
2923.32	47.161
2922.69	82.519
2922.05	82.5062
2921.42	74.637
2920.78	109.974
2920.14	82.468
2919.51	82.4553
2918.87	82.4425
2918.23	90.2802
2917.6	58.8693
2916.96	74.5563
2916.32	70.6214
2915.68	78.456
2915.05	70.5995
2914.41	101.961
2913.77	82.3407
2913.13	74.4872
2912.5	78.3954
2911.86	82.3025
2911.22	54.8598
2910.58	74.4411
2909.94	82.2643
2909.31	70.5013
2908.67	82.2389
2908.03	78.3106
2907.39	74.3836
2906.75	97.858
2906.11	70.4468
2905.47	86.0884
2904.83	58.6875
2904.2	54.7666
2903.56	93.871
2902.92	82.1244
2902.28	78.2016
2901.64	105.556
2901	74.2686
2900.36	62.5323
2899.72	66.4303
2899.08	78.1412
2898.44	70.3162
2897.8	93.7404
2897.16	58.5787
2896.52	109.33
2895.88	78.0807
2895.24	101.489
2894.6	66.348
2893.96	105.36
2893.32	74.1307
2892.67	78.0203
2892.03	101.411
2891.39	77.9961
2890.75	116.976
2890.11	85.7692
2889.47	54.5719
2888.83	97.4348
2888.19	105.213
2887.54	89.6122
2886.9	50.6425
2886.26	66.2146
2885.62	81.7818
2884.98	97.3442
2884.33	85.6496
2883.69	62.281
2883.05	81.7311
2882.41	89.5012
2881.77	77.8151
2881.12	85.5833
2880.48	66.1223
2879.84	77.7789
2879.19	97.2085
2878.55	73.867
2877.91	62.1942
2877.26	69.9576
2876.62	81.6045
2875.98	50.5093
2875.33	93.2334
2874.69	85.4507
2874.05	93.2045
2873.4	85.4242
2872.76	104.823
2872.11	93.1612
2871.47	116.433
2870.83	89.2517
2870.18	100.878
2869.54	81.4654
2868.89	96.9676
2868.25	65.9278
2867.6	104.693
2866.96	93.0456
2866.31	81.4023
2865.67	112.395
2865.02	69.7517
2864.38	100.737
2863.73	100.721
2863.09	92.959
2862.44	89.0719
2861.8	100.674
2861.15	116.145
2860.5	69.676
2859.86	100.627
2859.21	92.8724
2858.57	104.465
2857.92	73.5012
2857.27	88.9613
2856.63	85.0802
2855.98	85.067
2855.33	104.384
2854.69	69.5787
2854.04	96.622
2853.39	85.0142
2852.75	92.7283
2852.1	69.5354
2851.45	108.149
2850.81	81.0995
2850.16	108.116
2849.51	54.0495
2848.86	77.2016
2848.21	84.9086
2847.57	96.472
2846.92	88.7405
2846.27	81.0113
2845.62	84.8558
2844.97	61.7037
2844.33	119.532
2843.68	104.093
2843.03	100.222
2842.38	73.2276
2841.73	88.6302
2841.08	69.352
2840.43	100.159
2839.78	88.5888
2839.14	77.0218
2838.49	96.2623
2837.84	92.3974
2837.19	84.6844
2836.54	84.6713
2835.89	107.747
2835.24	126.967
2834.59	111.56
2833.94	100.004
2833.29	99.9882
2832.64	107.663
2831.99	99.9571
2831.34	88.4099
2830.69	99.926
2830.04	76.8542
2829.39	76.8422
2828.74	72.9888
2828.08	115.228
2827.43	96.008
2826.78	69.115
2826.13	92.139
2825.48	103.64
2824.83	142.003
2824.18	99.7706
2823.53	72.8979
2822.87	69.0504
2822.22	107.395
2821.57	72.8639
2820.92	103.527
2820.27	95.8437
2819.61	65.1635
2818.96	99.6464
2818.31	99.6309
2817.66	107.278
2817	95.7691
2816.35	72.7731
2815.7	84.2505
2815.05	68.9215
2814.39	103.366
2813.74	91.8667
2813.09	103.334
2812.43	103.318
2811.78	61.2158
2811.13	122.413
2810.47	91.7951
2809.82	91.7808
2809.16	110.885
2808.51	95.5752
2807.86	122.317
2807.2	107.011
2806.55	110.815
2805.89	80.2331
2805.24	103.141
2804.58	103.125
2803.93	87.8333
2803.28	110.729
2802.62	99.2588
2801.97	106.877
2801.31	125.943
2800.66	91.5807
2800	160.241
2799.34	133.513
2798.69	114.422
2798.03	95.337
2797.38	106.761
2796.72	106.744
2796.07	95.2924
2795.41	133.389
2794.75	118.126
2794.1	95.2478
2793.44	114.28
2792.79	121.879
2792.13	118.052
2791.47	133.264
2790.82	98.9804
2790.16	114.19
2789.5	121.784
2788.84	98.9341
2788.19	98.9186
2787.53	106.511
2786.87	117.905
2786.22	114.083
2785.56	129.274
2784.9	144.461
2784.24	106.428
2783.59	140.615
2782.93	129.194
2782.27	132.973
2781.61	110.16
2780.95	94.9508
2780.29	132.91
2779.64	117.702
2778.98	83.5175
2778.32	121.461
2777.66	148.008
2777	163.162
2776.34	94.847
2775.68	106.212
2775.02	121.366
2774.36	64.4657
2773.71	109.954
2773.05	125.1
2772.39	98.5484
2771.73	102.323
2771.07	132.62
2770.41	109.868
2769.75	125.002
2769.09	117.408
2768.43	128.75
2767.77	109.799
2767.11	140.067
2766.45	102.195
2765.79	102.179
2765.12	102.163
2764.46	128.629
2763.8	151.305
2763.14	105.897
2762.48	121.006
2761.82	79.3978
2761.16	139.87
2760.5	102.051
2759.83	120.93
2759.17	139.804
2758.51	117.115
2757.85	90.6552
2757.19	143.515
2756.53	109.507
2755.86	128.368
2755.2	117.023
2754.54	113.23
2753.88	109.439
2753.21	173.566
2752.55	109.405
2751.89	116.931
2751.23	128.227
2750.56	105.582
2749.9	128.187
2749.24	101.78
2748.57	143.223
2747.91	128.127
2747.25	150.714
2746.58	154.458
2745.92	124.3
2745.25	101.684
2744.59	112.965
2743.93	112.947
2743.26	124.222
2742.6	127.966
2741.93	150.525
2741.27	116.639
2740.61	120.382
2739.94	142.932
2739.28	127.866
2738.61	135.366
2737.95	154.143
2737.28	127.806
2736.62	108.994
2735.95	139.039
2735.29	127.746
2734.62	135.239
2733.95	127.706
2733.29	138.952
2732.62	135.176
2731.96	120.137
2731.29	142.641
2730.62	153.878
2729.96	131.338
2729.29	150.077
2728.63	108.789
2727.96	146.28
2727.29	135.006
2726.63	123.736
2725.96	134.964
2725.29	119.949
2724.62	149.913
2723.96	112.417
2723.29	138.626
2722.62	112.382
2721.96	161.055
2721.29	108.601
2720.62	164.749
2719.95	146.004
2719.28	145.981
2718.62	138.473
2717.95	134.71
2717.28	160.878
2716.61	134.667
2715.94	130.906
2715.27	142.104
2714.61	145.821
2713.94	138.321
2713.27	145.775
2712.6	149.49
2711.93	134.519
2711.26	119.554
2710.59	153.155
2709.92	108.312
2709.25	145.638
2708.58	141.881
2707.91	104.528
2707.24	141.837
2706.57	149.278
2705.9	115.672
2705.23	119.385
2704.56	134.287
2703.89	104.429
2703.22	141.703
2702.55	111.853
2701.88	149.114
2701.21	182.636
2700.54	137.887
2699.87	137.865
2699.2	141.569
2698.53	152.722
2697.86	141.525
2697.19	148.95
2696.51	145.203
2695.84	137.735
2695.17	126.548
2694.5	141.414
2693.83	152.554
2693.15	119.048
2692.48	111.59
2691.81	152.482
2691.14	137.584
2690.47	137.562
2689.79	141.258
2689.12	130.085
2688.45	115.2
2687.77	104.036
2687.1	156.029
2686.43	148.576
2685.76	141.125
2685.08	141.102
2684.41	159.643
2683.74	159.618
2683.06	133.613
2682.39	148.435
2681.71	159.543
2681.04	155.808
2680.37	159.493
2679.69	144.633
2679.02	144.61
2678.34	148.295
2677.67	189.046
2676.99	151.955
2676.32	133.402
2675.65	151.907
2674.97	155.587
2674.3	159.267
2673.62	170.351
2672.95	140.703
2672.27	170.298
2671.59	159.166
2670.92	155.44
2670.24	140.614
2669.57	166.491
2668.89	159.066
2668.22	170.137
2667.54	140.526
2666.86	151.596
2666.19	151.572
2665.51	181.118
2664.83	158.915
2664.16	151.5
2663.48	144.087
2662.8	184.698
2662.13	166.202
2661.45	129.248
2660.77	158.765
2660.1	140.282
2659.42	166.097
2658.74	147.619
2658.06	136.526
2657.39	162.329
2656.71	191.813
2656.03	158.59
2655.35	151.19
2654.68	154.853
2654	188.006
2653.32	176.919
2652.64	169.521
2651.96	173.178
2651.28	162.099
2650.6	125.238
2649.93	139.95
2649.25	125.199
2648.57	150.951
2647.89	176.696
2647.21	150.904
2646.53	176.64
2645.85	158.215
2645.17	139.796
2644.49	125.061
2643.81	158.14
2643.13	139.729
2642.45	161.766
2641.77	154.389
2641.09	183.767
2640.41	183.738
2639.73	139.619
2639.05	154.292
2638.37	154.267
2637.69	172.605
2637.01	154.218
2636.33	165.208
2635.65	179.865
2634.96	154.145
2634.28	150.451
2633.6	179.779
2632.92	201.761
2632.24	183.39
2631.56	205.365
2630.88	197.999
2630.19	168.639
2629.51	179.609
2628.83	179.58
2628.15	168.559
2627.46	179.524
2626.78	161.179
2626.1	183.129
2625.42	197.749
2624.73	153.78
2624.05	164.738
2623.37	168.373
2622.69	190.304
2622	153.683
2621.32	164.634
2620.64	175.582
2619.95	186.526
2619.27	171.87
2618.58	182.811
2617.9	190.093
2617.22	208.339
2616.53	197.342
2615.85	175.387
2615.16	189.973
2614.48	204.554
2613.79	149.739
2613.11	171.625
2612.43	175.249
2611.74	197.124
2611.06	197.092
2610.37	197.061
2609.69	171.489
2609	211.591
2608.31	167.787
2607.63	204.23
2606.94	182.32
2606.26	207.811
2605.57	185.907
2604.89	178.588
2604.2	200.424
2603.51	200.393
2602.83	185.789
2602.14	185.76
2601.45	200.297
2600.77	211.189
2600.08	189.312
2599.39	196.562
2598.71	192.892
2598.02	211.055
2597.33	181.916
2596.65	156.423
2595.96	203.681
2595.27	218.195
2594.58	192.708
2593.9	199.949
2593.21	203.552
2592.52	218.056
2591.83	178.051
2591.14	192.555
2590.46	174.362
2589.77	225.182
2589.08	214.252
2588.39	225.111
2587.7	250.487
2587.01	203.261
2586.32	152.422
2585.64	210.454
2584.95	181.397
2584.26	177.741
2583.57	188.593
2582.88	203.068
2582.19	188.533
2581.5	155.878
2580.81	213.845
2580.12	213.811
2579.43	181.167
2578.74	192.006
2578.05	188.354
2577.36	202.81
2576.67	177.431
2575.98	202.746
2575.29	155.655
2574.6	217.159
2573.91	195.412
2573.22	184.526
2572.52	213.437
2571.83	188.085
2571.14	195.288
2570.45	173.561
2569.76	195.225
2569.07	238.571
2568.38	191.549
2567.68	191.519
2566.99	209.553
2566.3	180.621
2565.61	209.487
2564.92	198.62
2564.22	194.977
2563.53	198.557
2562.84	194.915
2562.14	202.102
2561.45	180.42
2560.76	202.038
2560.07	198.399
2559.37	234.434
2558.68	223.578
2557.99	201.91
2557.29	212.692
2556.6	212.659
2555.91	216.229
2555.21	198.178
2554.52	223.365
2553.82	194.513
2553.13	212.49
2552.44	183.648
2551.74	241.225
2551.05	219.588
2550.35	230.35
2549.66	241.11
2548.96	190.698
2548.27	255.423
2547.57	219.413
2546.88	194.204
2546.18	183.385
2545.49	244.475
2544.79	222.868
2544.1	201.268
2543.4	204.83
2542.7	201.204
2542.01	251.465
2541.31	226.283
2540.62	208.29
2539.92	201.076
2539.22	204.634
2538.53	197.422
2537.83	190.213
2537.13	244.008
2536.44	211.679
2535.74	222.407
2535.04	208.025
2534.35	222.336
2533.65	233.057
2532.95	268.87
2532.25	236.567
2531.56	236.53
2530.86	236.492
2530.16	257.95
2529.46	236.417
2528.76	265.031
2528.07	200.532
2527.37	239.884
2526.67	236.266
2525.97	250.545
2525.27	196.826
2524.57	246.887
2523.88	218.228
2523.18	246.809
2522.48	218.158
2521.78	261.033
2521.08	214.513
2520.38	243.076
2519.68	221.593
2518.98	228.705
2518.28	221.522
2517.58	228.632
2516.88	246.454
2516.18	267.843
2515.48	217.81
2514.78	228.486
2514.08	210.602
2513.38	256.965
2512.68	231.945
2511.98	256.883
2511.28	206.9
2510.58	256.801
2509.88	271.024
2509.17	242.457
2508.47	206.768
2507.77	196.042
2507.07	238.777
2506.37	206.669
2505.67	238.7
2504.97	235.1
2504.26	220.816
2503.56	235.025
2502.86	267.031
2502.16	238.51
2501.45	217.116
2500.75	249.11
2500.05	263.303
2499.35	234.8
2498.64	238.319
2497.94	263.176
2497.24	227.576
2496.53	216.873
2495.83	238.167
2495.13	245.237
2494.42	255.859
2493.72	277.136
2493.02	262.882
2492.31	255.736
2491.61	252.144
2490.9	230.799
2490.2	273.365
2489.5	259.122
2488.79	223.59
2488.09	230.652
2487.38	248.354
2486.68	251.862
2485.97	248.275
2485.27	212.773
2484.56	230.467
2483.86	255.246
2483.15	237.483
2482.45	237.445
2481.74	237.407
2481.04	276.34
2480.33	230.246
2479.62	247.918
2478.92	290.371
2478.21	254.92
2477.51	247.799
2476.8	283.153
2476.09	233.564
2475.39	233.527
2474.68	261.791
2473.97	244.063
2473.27	268.78
2472.56	251.057
2471.85	251.017
2471.14	240.372
2470.44	268.608
2469.73	289.768
2469.02	268.522
2468.31	250.816
2467.61	275.5
2466.9	261.33
2466.19	247.165
2465.48	233.004
2464.77	275.324
2464.07	264.692
2463.36	243.478
2462.65	204.63
2461.94	239.872
2461.23	232.78
2460.52	250.375
2459.81	250.334
2459.1	299.648
2458.4	281.977
2457.69	257.262
2456.98	243.127
2456.27	267.749
2455.56	317.02
2454.85	239.488
2454.14	278.184
2453.43	288.702
2452.72	271.054
2452.01	263.972
2451.3	295.601
2450.59	288.517
2449.88	302.542
2449.16	246.216
2448.45	267.277
2447.74	295.364
2447.03	270.707
2446.32	246.058
2445.61	284.678
2444.9	253.007
2444.19	270.533
2443.47	284.541
2442.76	295.032
2442.05	263.38
2441.34	284.404
2440.63	319.465
2439.91	298.353
2439.2	273.739
2438.49	343.873
2437.78	284.176
2437.06	298.162
2436.35	294.606
2435.64	277.026
2434.93	308.536
2434.21	241.882
2433.5	259.368
2432.79	294.37
2432.07	273.3
2431.36	262.746
2430.64	280.217
2429.93	266.164
2429.22	269.623
2428.5	301.088
2427.79	273.036
2427.07	297.492
2426.36	279.947
2425.65	339.382
2424.93	304.345
2424.22	265.822
2423.5	293.756
2422.79	293.709
2422.07	311.141
2421.36	363.522
2420.64	342.495
2419.92	317.98
2419.21	303.954
2418.49	331.85
2417.78	289.886
2417.06	321.267
2416.35	286.301
2415.63	293.237
2414.91	293.189
2414.2	324.55
2413.48	279.138
2412.76	303.514
2412.05	320.906
2411.33	299.929
2410.61	352.185
2409.9	285.887
2409.18	327.671
2408.46	341.559
2407.74	285.749
2407.03	337.965
2406.31	296.108
2405.59	313.475
2404.87	299.495
2404.16	330.784
2403.44	313.324
2402.72	288.908
2402	316.703
2401.28	316.652
2400.56	330.518
2399.85	278.286
2399.13	313.021
2398.41	288.629
2397.69	337.259
2396.97	278.107
2396.25	312.82
2395.53	357.947
2394.81	368.313
2394.09	302.246
2393.37	298.724
2392.65	298.676
2391.93	277.793
2391.21	354.129
2390.49	343.658
2389.77	308.896
2389.05	277.614
2388.33	336.553
2387.61	298.339
2386.89	287.885
2386.17	277.435
2385.45	312.064
2384.73	329.348
2384	311.964
2383.28	284.188
2382.56	304.933
2381.84	322.207
2381.12	308.299
2380.4	342.884
2379.67	328.977
2378.95	311.612
2378.23	363.488
2377.51	308.05
2376.79	346.068
2376.06	307.951
2375.34	352.875
2374.62	325.146
2373.9	325.094
2373.17	342.331
2372.45	383.763
2371.73	283.455
2371	331.796
2370.28	297.186
2369.56	324.779
2368.83	338.545
2368.11	341.944
2367.38	348.796
2366.66	345.287
2365.94	307.256
2365.21	376.241
2364.49	345.119
2363.76	317.459
2363.04	348.458
2362.31	303.558
2361.59	324.203
2360.86	306.908
2360.14	334.442
2359.41	327.493
2358.69	341.227
2357.96	372.187
2357.24	348.008
2356.51	316.946
2355.79	330.673
2355.06	313.4
2354.33	347.783
2353.61	265.099
2352.88	354.555
2352.15	326.964
2351.43	378.529
2350.7	323.418
2349.98	354.326
2349.25	368.027
2348.52	333.578
2347.79	398.853
2347.07	371.286
2346.34	371.226
2345.61	319.615
2344.88	364.234
2344.16	357.304
2343.43	336.635
2342.7	340.016
2341.97	360.564
2341.25	363.939
2340.52	381.045
2339.79	415.306
2339.06	350.036
2338.33	315.667
2337.6	322.478
2336.87	315.565
2336.14	336.091
2335.42	342.895
2334.69	390.837
2333.96	335.928
2333.23	346.155
2332.5	370.087
2331.77	349.47
2331.04	328.859
2330.31	325.381
2329.58	383.545
2328.85	397.179
2328.12	393.691
2327.39	366.244
2326.66	396.986
2325.93	379.813
2325.2	376.33
2324.47	283.912
2323.73	389.888
2323	386.406
2322.27	355.572
2321.54	335.004
2320.81	406.725
2320.08	331.478
2319.35	355.342
2318.61	345.036
2317.88	358.642
2317.15	385.905
2316.42	348.283
2315.69	406.264
2314.95	426.679
2314.22	368.591
2313.49	385.592
2312.76	388.942
2312.02	382.056
2311.29	395.637
2310.56	378.522
2309.82	361.413
2309.09	388.626
2308.36	381.746
2307.62	381.685
2306.89	337.327
2306.16	361.12
2305.42	415.561
2304.69	357.597
2303.95	374.565
2303.22	411.954
2302.48	391.463
2301.75	422.031
2301.02	428.768
2300.28	391.273
2299.55	398.013
2298.81	401.35
2298.08	350.274
2297.34	387.619
2296.6	377.357
2295.87	363.699
2295.13	363.64
2294.4	404.357
2293.66	373.714
2292.93	377.051
2292.19	427.934
2291.45	363.345
2290.72	465.142
2289.98	397.174
2289.24	386.927
2288.51	410.619
2287.77	417.338
2287.03	417.27
2286.3	417.202
2285.56	410.352
2284.82	379.768
2284.08	450.901
2283.35	396.593
2282.61	454.144
2281.87	410.019
2281.13	426.892
2280.4	423.435
2279.66	386.11
2278.92	453.775
2278.18	402.914
2277.44	396.078
2276.7	426.476
2275.97	399.333
2275.23	439.872
2274.49	412.736
2273.75	422.816
2273.01	402.455
2272.27	358.431
2271.53	409.086
2270.79	415.78
2270.05	351.497
2269.31	473.092
2268.57	432.471
2267.83	439.157
2267.09	439.085
2266.35	405.243
2265.61	425.436
2264.87	452.375
2264.13	442.175
2263.39	442.103
2262.65	391.417
2261.91	418.343
2261.17	445.26
2260.42	455.306
2259.68	448.487
2258.94	458.529
2258.2	475.309
2257.46	387.6
2256.72	397.647
2255.97	424.537
2255.23	387.411
2254.49	464.817
2253.75	437.8
2253	471.4
2252.26	410.725
2251.52	488.077
2250.78	427.418
2250.03	491.283
2249.29	481.11
2248.55	393.571
2247.8	437.23
2247.06	433.796
2246.32	457.261
2245.57	470.633
2244.83	393.25
2244.09	433.513
2243.34	453.602
2242.6	453.528
2241.85	416.506
2241.11	466.814
2240.36	406.297
2239.62	449.875
2238.88	463.229
2238.13	483.291
2237.39	459.722
2236.64	499.908
2235.89	476.345
2235.15	422.603
2234.4	435.948
2233.66	445.936
2232.91	476.034
2232.17	435.735
2231.42	465.825
2230.67	459.048
2229.93	489.124
2229.18	455.548
2228.44	455.474
2227.69	478.839
2226.94	445.281
2226.2	438.514
2225.45	455.176
2224.7	475.18
2223.95	404.841
2223.21	475.025
2222.46	474.947
2221.71	454.805
2220.96	474.792
2220.22	464.686
2219.47	444.555
2218.72	434.456
2217.97	484.506
2217.22	527.859
2216.48	454.285
2215.73	477.589
2214.98	500.886
2214.23	467.417
2213.48	457.326
2212.73	447.239
2211.98	450.503
2211.23	497.14
2210.48	430.34
2209.73	473.63
2208.98	466.883
2208.23	470.141
2207.48	523.405
2206.73	446.654
2205.98	449.914
2205.23	483.162
2204.48	513.067
2203.73	453.024
2202.98	532.883
2202.23	509.486
2201.48	512.732
2200.73	492.675
2199.98	469.296
2199.23	465.891
2198.48	502.415
2197.72	492.352
2196.97	522.207
2196.22	495.517
2195.47	548.637
2194.72	468.758
2193.97	472.006
2193.21	498.516
2192.46	525.018
2191.71	438.55
2190.96	504.915
2190.2	471.62
2189.45	508.07
2188.7	494.706
2187.94	524.502
2187.19	487.906
2186.44	474.552
2185.68	520.926
2184.93	474.397
2184.18	537.34
2183.42	537.252
2182.67	540.48
2181.91	510.554
2181.16	487.267
2180.41	513.701
2179.65	533.499
2178.9	553.29
2178.14	526.699
2177.39	466.996
2176.63	536.461
2175.88	529.751
2175.12	572.699
2174.37	470
2173.61	483.16
2172.86	549.256
2172.1	522.7
2171.34	486.23
2170.59	509.3
2169.83	512.523
2169.08	522.357
2168.32	528.883
2167.56	588.286
2166.81	535.318
2166.05	601.308
2165.29	551.659
2164.54	525.146
2163.78	584.501
2163.02	544.784
2162.27	505.081
2161.51	544.606
2160.75	554.417
2159.99	508.132
2159.23	524.544
2158.48	531.054
2157.72	557.351
2156.96	547.367
2156.2	573.652
2155.44	504.335
2154.69	599.83
2153.93	537.122
2153.17	517.266
2152.41	520.475
2151.65	513.802
2150.89	503.839
2150.13	549.851
2149.37	572.805
2148.61	569.419
2147.85	546.289
2147.09	519.877
2146.33	552.69
2145.57	542.731
2144.81	582.107
2144.05	595.164
2143.29	572.052
2142.53	601.542
2141.77	496.273
2141.01	545.482
2140.25	528.965
2139.49	561.728
2138.73	610.901
2137.97	518.852
2137.2	522.05
2136.44	590.903
2135.68	571.113
2134.92	603.836
2134.16	587.331
2133.4	564.27
2132.63	583.857
2131.87	573.923
2131.11	603.34
2130.35	560.62
2129.58	573.64
2128.82	599.764
2128.06	619.327
2127.29	556.975
2126.53	569.986
2125.77	563.342
2125	573.074
2124.24	595.898
2123.48	592.527
2122.71	595.702
2121.95	644.692
2121.19	556.242
2120.42	624.851
2119.66	592.039
2118.89	559.238
2118.13	526.447
2117.36	627.709
2116.6	519.736
2115.83	611.161
2115.07	562.045
2114.3	558.685
2113.54	568.393
2112.77	584.63
2112.01	591.065
2111.24	558.317
2110.48	613.722
2109.71	554.869
2108.94	541.724
2108.18	636.258
2107.41	577.432
2106.64	632.787
2105.88	603.331
2105.11	606.492
2104.34	632.474
2103.58	599.773
2102.81	668.116
2102.04	638.678
2101.28	641.831
2100.51	612.408
2099.74	605.793
2098.97	592.667
2098.21	599.081
2097.44	654.323
2096.67	628.177
2095.9	647.599
2095.13	569.403
2094.36	614.853
2093.6	653.784
2092.83	634.163
2092.06	598.291
2091.29	637.205
2090.52	607.845
2089.75	584.995
2088.98	610.894
2088.21	646.531
2087.44	669.163
2086.67	587.857
2085.9	597.502
2085.13	613.637
2084.36	623.274
2083.59	665.365
2082.82	636.049
2082.05	597.009
2081.28	577.446
2080.51	629.247
2079.74	586.984
2078.97	635.524
2078.2	654.871
2077.43	674.211
2076.65	612.523
2075.88	654.546
2075.11	654.438
2074.34	615.459
2073.57	618.596
2072.8	663.828
2072.02	689.62
2071.25	663.609
2070.48	634.37
2069.71	705.458
2068.93	656.809
2068.16	659.935
2067.39	682.467
2066.61	679.121
2065.84	662.842
2065.07	698.293
2064.29	694.945
2063.52	668.976
2062.75	662.403
2061.97	659.063
2061.2	665.414
2060.43	684.682
2059.65	707.172
2058.88	697.37
2058.1	603.642
2057.33	684.229
2056.55	690.57
2055.78	684.003
2055	635.501
2054.23	664.424
2053.45	641.74
2052.68	635.186
2051.9	635.081
2051.13	654.315
2050.35	741.219
2049.57	673.431
2048.8	647.547
2048.02	731.188
2047.25	727.846
2046.47	714.846
2045.69	714.727
2044.92	666.324
2044.14	695.18
2043.36	685.411
2042.59	698.167
2041.81	672.317
2041.03	649.691
2040.25	723.546
2039.48	678.413
2038.7	675.086
2037.92	745.686
2037.14	716.64
2036.37	726.16
2035.59	697.127
2034.81	719.495
2034.03	725.799
2033.25	712.835
2032.47	687.033
2031.69	709.389
2030.92	741.365
2030.14	734.824
2029.36	705.828
2028.58	715.334
2027.8	728.044
2027.02	737.544
2026.24	708.566
2025.46	695.626
2024.68	775.638
2023.9	756.282
2023.12	685.667
2022.34	740.013
2021.56	701.455
2020.78	694.933
2020	733.241
2019.21	710.71
2018.43	684.985
2017.65	761.679
2016.87	739.154
2016.09	707.039
2015.31	726.114
2014.53	764.372
2013.74	764.245
2012.96	748.132
2012.18	789.564
2011.4	770.257
2010.62	703.022
2009.83	686.93
2009.05	721.956
2008.27	737.806
2007.49	753.65
2006.7	737.56
2005.92	734.246
2005.14	794.769
2004.35	778.68
2003.57	794.505
2002.79	759.28
2002	829.327
2001.22	714.379
2000.43	809.92
1999.65	733.27
1998.87	749.086
1998.08	790.394
1997.3	771.143
1996.51	828.363
1995.73	783.629
1994.94	780.313
1994.16	780.184
1993.37	805.525
1992.59	799.024
1991.8	728.869
1991.02	751.024
1990.23	782.717
1989.44	833.487
1988.66	785.637
1987.87	795.047
1987.09	744.04
1986.3	807.499
1985.51	756.507
1984.73	746.847
1983.94	746.723
1983.15	860.971
1982.37	835.416
1981.58	768.582
1980.79	790.682
1980	749.277
1979.22	847.557
1978.43	850.59
1977.64	793.329
1976.85	790.024
1976.06	783.548
1975.28	853.196
1974.49	799.143
1973.7	792.669
1972.91	802.047
1972.12	830.44
1971.33	842.978
1970.54	811.152
1969.76	830.025
1968.97	791.877
1968.18	842.416
1967.39	820.111
1966.6	832.638
1965.81	797.68
1965.02	810.206
1964.23	854.372
1963.44	879.54
1962.65	812.965
1961.86	825.48
1961.07	803.207
1960.28	872.631
1959.48	818.745
1958.69	859.697
1957.9	837.433
1957.11	891.006
1956.32	846.631
1955.53	777.002
1954.74	887.403
1953.94	830.42
1953.15	836.595
1952.36	858.551
1951.57	842.628
1950.78	880.352
1949.98	858.121
1949.19	905.293
1948.4	860.989
1947.61	876.611
1946.81	829.174
1946.02	813.274
1945.23	873.021
1944.43	879.177
1943.64	806.566
1942.85	900.935
1942.05	847.241
1941.26	903.783
1940.46	897.335
1939.67	922.369
1938.88	862.413
1938.08	925.208
1937.29	896.736
1936.49	965.796
1935.7	792.638
1934.9	889.997
1934.11	915.003
1933.31	858.261
1932.52	892.694
1931.72	839.118
1930.93	882.969
1930.13	876.538
1929.33	848.121
1928.54	923.355
1927.74	929.481
1926.95	923.047
1926.15	900.919
1925.35	897.63
1924.56	884.927
1923.76	891.054
1922.96	912.864
1922.17	878.211
1921.37	928.239
1920.57	912.406
1919.77	880.905
1918.98	924.639
1918.18	921.35
1917.38	905.53
1916.58	968.034
1915.78	983.533
1914.99	898.812
1914.19	873.612
1913.39	932.949
1912.59	904.621
1911.79	851.266
1910.99	941.868
1910.19	941.71
1909.39	988.474
1908.59	916.374
1907.8	909.967
1907	909.815
1906.2	934.67
1905.4	943.89
1904.6	946.857
1903.8	968.569
1903	934.044
1902.2	968.245
1901.39	977.451
1900.59	933.575
1899.79	1005.22
1898.99	939.505
1898.19	905.019
1897.39	929.83
1896.59	917.195
1895.79	960.71
1894.99	979.261
1894.18	1069.52
1893.38	1010.11
1892.58	1000.59
1891.78	953.672
1890.98	937.932
1890.17	947.121
1889.37	971.883
1888.57	971.72
1887.76	977.785
1886.96	965.167
1886.16	968.118
1885.36	974.181
1884.55	983.353
1883.75	1004.97
1882.94	983.023
1882.14	920.652
1881.34	1013.79
1880.53	1007.4
1879.73	1001.02
1878.92	972.874
1878.12	972.711
1877.32	953.905
1876.51	981.704
1875.71	1068.51
1874.9	1018.64
1874.1	1030.89
1873.29	1005.88
1872.49	1005.71
1871.68	983.82
1870.87	996.067
1870.07	980.387
1869.26	998.834
1868.46	1029.68
1867.65	1007.8
1866.84	1029.34
1866.04	951.665
1865.23	1013.49
1864.42	969.939
1863.62	1034.84
1862.81	978.906
1862	988.034
1861.2	1028.13
1860.39	1034.15
1859.58	990.631
1858.77	925.466
1857.96	1046
1857.16	1027.26
1856.35	1076.59
1855.54	1042.38
1854.73	1005.1
1853.92	1088.41
1853.12	1051.13
1852.31	1057.14
1851.5	1016.78
1850.69	1019.7
1849.88	1090.59
1849.07	1059.51
1848.26	1022.28
1847.45	1028.28
1846.64	991.057
1845.83	1046.45
1845.02	1030.85
1844.21	1021.42
1843.4	1030.5
1842.59	1024.16
1841.78	1064.08
1840.97	1119.41
1840.16	1063.72
1839.35	1054.3
1838.54	1014.05
1837.72	1047.78
1836.91	1118.47
1836.1	1081.31
1835.29	1022.61
1834.48	1047.07
1833.67	1074.61
1832.85	1071.35
1832.04	1055.78
1831.23	1061.75
1830.42	1027.73
1829.6	1116.77
1828.79	1082.75
1827.98	1042.59
1827.17	1082.39
1826.35	1103.72
1825.54	1045.13
1824.73	1155.6
1823.91	1100.09
1823.1	1099.91
1822.29	1081.29
1821.47	1053.47
1820.66	1126.99
1819.84	1151.36
1819.03	1034.52
1818.21	1129.49
1817.4	1098.61
1816.58	1138.31
1815.77	1119.71
1814.95	1045.91
1814.14	1073.34
1813.32	1100.75
1812.51	1026.99
1811.69	1054.4
1810.88	1127.78
1810.06	1130.65
1809.25	1096.76
1808.43	1087.39
1807.61	1123.95
1806.8	1185
1805.98	1043.97
1805.16	1056.04
1804.35	1120.13
1803.53	1098.52
1802.71	1110.58
1801.89	1104.27
1801.08	1110.2
1800.26	1094.73
1799.44	1180.15
1798.62	1161.61
1797.81	1152.24
1796.99	1158.16
1796.17	1167.13
1795.35	1105.84
1794.53	1169.79
1793.71	1090.19
1792.9	1157.18
1792.08	1080.67
1791.26	1065.22
1790.44	1165.75
1789.62	1196.06
1788.8	1208.07
1787.98	1110.26
1787.16	1180.21
1786.34	1161.72
1785.52	1079.21
1784.7	1255.81
1783.88	1158.08
1783.06	1148.74
1782.24	1151.6
1781.42	1114.85
1780.6	1157.3
1779.78	1172.33
1778.95	1114.28
1778.13	1181.06
1777.31	1104.78
1776.49	1116.76
1775.67	1235.23
1774.85	1095.09
1774.02	1170.94
1773.2	1143.37
1772.38	1137.1
1771.56	1194.66
1770.74	1121.52
1769.91	1172.99
1769.09	1209.25
1768.27	1230.31
1767.44	1181.5
1766.62	1245.08
1765.8	1184.14
1764.97	1235.55
1764.15	1132.14
1763.33	1295.82
1762.5	1253.13
1761.68	1210.44
1760.85	1261.8
1760.03	1231.26
1759.21	1249.24
1758.38	1239.94
1757.56	1230.64
1756.73	1188
1755.91	1284.76
1755.08	1257.28
1754.26	1247.98
1753.43	1238.68
1752.6	1308.11
1751.78	1256.42
1750.95	1295.56
1750.13	1246.92
1749.3	1307.23
1748.47	1297.93
1747.65	1330.98
1746.82	1361
1745.99	1351.7
1745.17	1469.38
1744.34	1429.84
1743.51	1384.26
1742.69	1507.92
1741.86	1489.54
1741.03	1540.64
1740.2	1543.4
1739.38	1624.67
1738.55	1705.92
1737.72	1690.54
1736.89	1841.16
1736.06	1771.44
1735.23	1828.47
1734.4	1882.46
1733.58	1957.55
1732.75	1911.98
1731.92	2005.13
1731.09	1959.57
1730.26	2034.59
1729.43	2079.45
1728.6	2033.9
1727.77	2163.1
1726.94	2132.61
1726.11	2159.35
1725.28	2146.94
1724.45	2134.53
1723.62	2164.27
1722.79	2197.01
1721.96	2169.56
1721.13	2118.04
1720.3	2087.6
1719.46	2162.44
1718.63	2062.84
1717.8	2023.4
1716.97	2008.03
1716.14	1974.62
1715.31	1995.32
1714.47	1832.74
1713.64	1796.38
1712.81	1675.94
1711.98	1714.69
1711.14	1642.34
1710.31	1672.08
1709.48	1548.74
1708.65	1533.47
1707.81	1503.21
1706.98	1499.95
1706.15	1478.7
1705.31	1481.45
1704.48	1376.25
1703.64	1417.99
1702.81	1447.72
1701.98	1375.55
1701.14	1426.25
1700.31	1360.1
1699.47	1413.79
1698.64	1419.54
1697.8	1395.34
1696.97	1296.31
1696.13	1376.91
1695.3	1334.77
1694.46	1385.41
1693.63	1313.38
1692.79	1387.93
1691.95	1366.76
1691.12	1375.5
1690.28	1288.57
1689.45	1348.13
1688.61	1309.05
1687.77	1380.54
1686.94	1281.71
1686.1	1377.08
1685.26	1376.85
1684.42	1340.78
1683.59	1325.62
1682.75	1370.18
1681.91	1393.82
1681.07	1372.69
1680.24	1330.69
1679.4	1339.41
1678.56	1282.51
1677.72	1398.6
1676.88	1365.56
1676.04	1323.59
1675.21	1287.6
1674.37	1278.44
1673.53	1328.87
1672.69	1343.54
1671.85	1340.34
1671.01	1363.93
1670.17	1387.52
1669.33	1342.63
1668.49	1267.99
1667.65	1398.71
1666.81	1374.67
1665.97	1294.11
1665.13	1341.48
1664.29	1373.97
1663.45	1308.32
1662.61	1343.77
1661.77	1266.26
1660.92	1292.79
1660.08	1366.85
1659.24	1351.76
1658.4	1402.03
1657.56	1348.33
1656.72	1392.64
1655.87	1347.87
1655.03	1407.01
1654.19	1445.35
1653.35	1442.14
1652.5	1358.82
1651.66	1349.69
1650.82	1426.57
1649.98	1414.47
1649.13	1426.08
1648.29	1464.38
1647.45	1375.21
1646.6	1327.56
1645.76	1422.15
1644.91	1336
1644.07	1469.05
1643.23	1427.34
1642.38	1465.59
1641.54	1447.57
1640.69	1447.33
1639.85	1396.77
1639	1437.96
1638.16	1390.38
1637.31	1458.17
1636.47	1413.56
1635.62	1407.41
1634.78	1416.03
1633.93	1380.32
1633.08	1480.56
1632.24	1400.53
1631.39	1483.01
1630.55	1465.04
1629.7	1503.18
1628.85	1399.58
1628.01	1505.61
1627.16	1449.28
1626.31	1564.12
1625.46	1555
1624.62	1528.19
1623.77	1589.87
1622.92	1539.46
1622.07	1595.22
1621.23	1639.17
1620.38	1724.37
1619.53	1788.91
1618.68	1971.3
1617.83	2068.18
1616.98	2288.75
1616.13	2559.31
1615.29	2897.5
1614.44	3067.76
1613.59	3235.02
1612.74	3352.19
1611.89	3307.48
1611.04	3259.84
1610.19	2962.18
1609.34	2785.21
1608.49	2531.84
1607.64	2410.86
1606.79	2272.29
1605.94	2239.57
1605.09	2192.17
1604.24	1965.56
1603.38	1856.54
1602.53	1888.53
1601.68	1850.03
1600.83	1720.52
1599.98	1670.33
1599.13	1714.06
1598.27	1602.26
1597.42	1596.12
1596.57	1554.77
1595.72	1680.63
1594.87	1501.45
1594.01	1509.99
1593.16	1594.75
1592.31	1515.34
1591.45	1608.85
1590.6	1567.56
1589.75	1476.47
1588.89	1467.43
1588.04	1569.68
1587.19	1481.57
1586.33	1592.56
1585.48	1536.67
1584.62	1507.14
1583.77	1389.85
1582.92	1497.85
1582.06	1474.19
1581.21	1511.96
1580.35	1526.32
1579.5	1543.6
1578.64	1572.56
1577.78	1548.91
1576.93	1460.99
1576.07	1554.22
1575.22	1495.54
1574.36	1515.72
1573.51	1579.7
1572.65	1491.85
1571.79	1529.54
1570.94	1511.76
1570.08	1508.59
1569.22	1560.84
1568.37	1537.24
1567.51	1580.72
1566.65	1507.55
1565.79	1591.84
1564.94	1530.35
1564.08	1509.69
1563.22	1497.77
1562.36	1512.08
1561.5	1508.91
1560.65	1508.65
1559.79	1531.68
1558.93	1508.13
1558.07	1449.65
1557.21	1554.18
1556.35	1580.1
1555.49	1585.65
1554.63	1518.47
1553.77	1497.85
1552.91	1500.5
1552.05	1555.48
1551.19	1511.61
1550.33	1505.54
1549.47	1473.31
1548.61	1507.92
1547.75	1516.38
1546.89	1556.78
1546.03	1579.74
1545.17	1579.47
1544.31	1492.11
1543.45	1520.88
1542.58	1529.32
1541.72	1566.78
1540.86	1607.12
1540	1551.74
1539.14	1565.97
1538.28	1562.8
1537.41	1571.23
1536.55	1562.26
1535.69	1611.26
1534.82	1521.16
1533.96	1593.32
1533.1	1468.5
1532.24	1558.02
1531.37	1494.05
1530.51	1632.75
1529.64	1571.69
1528.78	1536.69
1527.92	1550.89
1527.05	1579.55
1526.19	1533
1525.32	1509.6
1524.46	1500.67
1523.59	1633.39
1522.73	1557.96
1521.86	1563.47
1521	1563.2
1520.13	1536.93
1519.27	1516.44
1518.4	1510.41
1517.54	1556.35
1516.67	1570.51
1515.8	1607.76
1514.94	1590.17
1514.07	1612.98
1513.21	1549.23
1512.34	1606.66
1511.47	1525.63
1510.6	1531.13
1509.74	1594.29
1508.87	1464.3
1508	1533.22
1507.14	1607.87
1506.27	1544.21
1505.4	1598.68
1504.53	1598.4
1503.66	1549.17
1502.8	1589.21
1501.93	1603.33
1501.06	1551.25
1500.19	1706.37
1499.32	1593.87
1498.45	1607.97
1497.58	1639.33
1496.71	1572.91
1495.84	1627.27
1494.97	1598.24
1494.1	1684.18
1493.23	1614.93
1492.36	1603.16
1491.49	1551.17
1490.62	1614.09
1489.75	1576.48
1488.88	1593.44
1488.01	1618.99
1487.14	1495.3
1486.27	1612.7
1485.4	1606.68
1484.52	1666.64
1483.65	1574.57
1482.78	1637.39
1481.91	1599.83
1481.04	1665.49
1480.17	1648
1479.29	1601.87
1478.42	1633.11
1477.55	1664.33
1476.67	1669.77
1475.8	1640.85
1474.93	1660.61
1474.06	1637.42
1473.18	1599.93
1472.31	1579.62
1471.43	1665.18
1470.56	1596.24
1469.69	1687.48
1468.81	1672.89
1467.94	1618.28
1467.06	1586.55
1466.19	1634.87
1465.31	1654.59
1464.44	1694.3
1463.56	1662.59
1462.69	1625.17
1461.81	1690.57
1460.94	1670.29
1460.06	1738.51
1459.19	1763.9
1458.31	1732.2
1457.43	1694.81
1456.56	1771.54
1455.68	1739.86
1454.8	1702.48
1453.93	1690.78
1453.05	1730.4
1452.17	1804.21
1451.3	1775.4
1450.42	1672.51
1449.54	1640.89
1448.66	1791.56
1447.78	1731.45
1446.91	1751.08
1446.03	1782.09
1445.15	1770.39
1444.27	1755.86
1443.39	1784.01
1442.51	1695.51
1441.64	1737.88
1440.76	1817.2
1439.88	1762.87
1439	1665.9
1438.12	1821.94
1437.24	1773.31
1436.36	1741.75
1435.48	1707.36
1434.6	1726.95
1433.72	1720.97
1432.84	1697.95
1431.96	1748.76
1431.08	1725.75
1430.2	1711.26
1429.31	1679.75
1428.43	1713.5
1427.55	1628.11
1426.67	1678.87
1425.79	1732.45
1424.91	1632.93
1424.02	1723.35
1423.14	1700.38
1422.26	1691.58
1421.38	1691.29
1420.49	1707.99
1419.61	1659.55
1418.73	1718.72
1417.85	1718.42
1416.96	1667.17
1416.08	1743.29
1415.2	1805.24
1414.31	1779.47
1413.43	1770.67
1412.54	1804.3
1411.66	1812.47
1410.78	1772.57
1409.89	1842.93
1409.01	1836.96
1408.12	1839.46
1407.24	1819.37
1406.35	1765.38
1405.47	1835.68
1404.58	1747.83
1403.7	1888.68
1402.81	1792.38
1401.92	1724.34
1401.04	1845.37
1400.15	1689.88
1399.27	1695.23
1398.38	1731.6
1397.49	1779.23
1396.61	1843.76
1395.72	1620.76
1394.83	1764.21
1393.94	1699.09
1393.06	1656.54
1392.17	1704.14
1391.28	1692.57
1390.39	1779.57
1389.51	1742.66
1388.62	1784.58
1387.73	1660.44
1386.84	1727.68
1385.95	1752.7
1385.06	1749.58
1384.17	1822.4
1383.29	1709.6
1382.4	1700.87
1381.51	1717.44
1380.62	1736.81
1379.73	1716.84
1378.84	1741.83
1377.95	1797.7
1377.06	1744.03
1376.17	1819.54
1375.28	1799.57
1374.39	1889.08
1373.5	1756.84
1372.6	1793.01
1371.71	1764.65
1370.82	1719.46
1369.93	1825.73
1369.04	1777.74
1368.15	1755
1367.26	1723.86
1366.36	1827.26
1365.47	1770.9
1364.58	1787.4
1363.69	1736.67
1362.79	1705.56
1361.9	1769.66
1361.01	1786.15
1360.11	1797.03
1359.22	1799.52
1358.33	1843.98
1357.43	1678.59
1356.54	1790.19
1355.65	1761.91
1354.75	1750.41
1353.86	1733.33
1352.96	1760.98
1352.07	1732.73
1351.17	1654.19
1350.28	1693.01
1349.39	1740.2
1348.49	1778.99
1347.59	1736.8
1346.7	1652.74
1345.8	1792.02
1344.91	1694.03
1344.01	1780.23
1343.12	1732.49
1342.22	1807.5
1341.32	1698.42
1340.43	1717.64
1339.53	1622.55
1338.63	1753.28
1337.74	1741.82
1336.84	1777.74
1335.94	1796.93
1335.04	1774.33
1334.15	1696.04
1333.25	1815.48
1332.35	1806.81
1331.45	1742.47
1330.55	1708.77
1329.66	1727.95
1328.76	1769.38
1327.86	1707.87
1326.96	1738.17
1326.06	1757.33
1325.16	1793.16
1324.26	1828.98
1323.36	1803.65
1322.46	1803.33
1321.56	1797.46
1320.66	1816.59
1319.76	1835.71
1318.86	1846.5
1317.96	1848.95
1317.06	1804.21
1316.16	1820.55
1315.26	1789.71
1314.36	1850.43
1313.46	1750.25
1312.55	1888.6
1311.65	1907.68
1310.75	1879.63
1309.85	2053.92
1308.95	1973.19
1308.04	1900.8
1307.14	1964.19
1306.24	1941.69
1305.34	1993.96
1304.43	2040.68
1303.53	1924.05
1302.63	1970.77
1301.72	2050.68
1300.82	2011.58
1299.92	1997.4
1299.01	2030.24
1298.11	2043.71
1297.21	2043.35
1296.3	2123.17
1295.4	2106.21
1294.49	2174.93
1293.59	2160.73
1292.68	2262.57
1291.78	2281.51
1290.87	2303.2
1289.97	2335.93
1289.06	2294.11
1288.16	2277.14
1287.25	2229.83
1286.34	2298.42
1285.44	2317.32
1284.53	2156.94
1283.62	2255.84
1282.72	2172.73
1281.81	2246.78
1280.9	2257.41
1280	2160.56
1279.09	2220.8
1278.18	2176.33
1277.27	2120.86
1276.37	2054.39
1275.46	2147.65
1274.55	2141.76
1273.64	2138.63
1272.73	2099.73
1271.82	1961.79
1270.92	2079.74
1270.01	2021.61
1269.1	2013
1268.19	2056.64
1267.28	1987.55
1266.37	1921.24
1265.46	1909.91
1264.55	1898.58
1263.64	1922.97
1262.73	2024.26
1261.82	1903.07
1260.91	1949.41
1260	1924.37
1259.09	1800.52
1258.18	1805.69
1257.27	1895.91
1256.35	1865.4
1255.44	1763.59
1254.53	1848.29
1253.62	1880.87
1252.71	1842.16
1251.79	1825.39
1250.88	1825.07
1249.97	1824.75
1249.06	1879.21
1248.14	1750.15
1247.23	1752.58
1246.32	1765.96
1245.41	1858.73
1244.49	1825.56
1243.58	1827.97
1242.66	1855.01
1241.75	1709.7
1240.84	1772.3
1239.92	1681.75
1239.01	1766.21
1238.09	1752.23
1237.18	1749.19
1236.26	1672.37
1235.35	1732.18
1234.43	1802.9
1233.52	1761.61
1232.6	1684.84
1231.69	1780.1
1230.77	1752.49
1229.86	1774.02
1228.94	1765.52
1228.02	1762.48
1227.11	1740.34
1226.19	1655.49
1225.27	1619.75
1224.36	1763.96
1223.44	1739.12
1222.52	1736.08
1221.6	1749.4
1220.69	1776.34
1219.77	1767.85
1218.85	1721.24
1217.93	1742.72
1217.01	1717.91
1216.1	1706.72
1215.18	1766.29
1214.26	1733.33
1213.34	1743.9
1212.42	1800.72
1211.5	1697.05
1210.58	1781.05
1209.66	1696.45
1208.74	1788.57
1207.82	1750.21
1206.9	1730.88
1205.98	1839.24
1205.06	1792.74
1204.14	1702.8
1203.22	1745.95
1202.3	1783.65
1201.38	1753.47
1200.46	1793.87
1199.54	1790.84
1198.61	1749.83
1197.69	1657.3
1196.77	1705.82
1195.85	1678.4
1194.93	1745.88
1194	1807.92
1193.08	1777.79
1192.16	1799.15
1191.24	1847.59
1190.31	1706.42
1189.39	1819.86
1188.47	1827.66
1187.54	1781.31
1186.62	1851.37
1185.7	1748.21
1184.77	1820.95
1183.85	1744.88
1182.92	1804.08
1182	1906.52
1181.07	1860.22
1180.15	1881.52
1179.23	1851.45
1178.3	1813.29
1177.37	1872.41
1176.45	1942.32
1175.52	1874.45
1174.6	1914.63
1173.67	1871.09
1172.75	1881.55
1171.82	1838.04
1170.89	1905.17
1169.97	1891.35
1169.04	1850.55
1168.11	1782.79
1167.19	1820.23
1166.26	1784.86
1165.33	1776.45
1164.4	1827.35
1163.48	1721.93
1162.55	1826.7
1161.62	1802.13
1160.69	1801.81
1159.76	1855.35
1158.83	1755.4
1157.91	1838.54
1156.98	1811.3
1156.05	1757.16
1155.12	1791.82
1154.19	1783.44
1153.26	1874.56
1152.33	1763.98
1151.4	1774.42
1150.47	1744.54
1149.54	1797.98
1148.61	1784.23
1147.68	1748.98
1146.75	1767.48
1145.82	1818.19
1144.89	1820.55
1143.96	1694.05
1143.02	1809.17
1142.09	1755.17
1141.16	1784.38
1140.23	1802.84
1139.3	1872.26
1138.36	1871.93
1137.43	1775.06
1136.5	1884.67
1135.57	1900.41
1134.63	1897.4
1133.7	1894.38
1132.77	1920.83
1131.83	1947.28
1130.9	1995.14
1129.97	1930.52
1129.03	1948.92
1128.1	1959.28
1127.17	1921.46
1126.23	1985.34
1125.3	2078.61
1124.36	2040.8
1123.43	2048.46
1122.49	1967.88
1121.56	2079.81
1120.62	2074.09
1119.69	2105.79
1118.75	2060
1117.81	2062.3
1116.88	2123.37
1115.94	2005.49
1115.01	2082.56
1114.07	2095.54
1113.13	1908.33
1112.2	2052.1
1111.26	2030.39
1110.32	1990.01
1109.38	2032.33
1108.45	2029.3
1107.51	1994.28
1106.57	2052.57
1105.63	2006.9
1104.69	1942.59
1103.76	1982.2
1102.82	1984.51
1101.88	1938.88
1100.94	1991.8
1100	1916.9
1099.06	1964.47
1098.12	1945.49
1097.18	1977.07
1096.24	1936.81
1095.3	2002.97
1094.36	1896.23
1093.42	1925.14
1092.48	1930.12
1091.54	1943.06
1090.6	1902.85
1089.66	1947.68
1088.72	1949.99
1087.78	1960.27
1086.84	1882.91
1085.9	1911.78
1084.95	1823.83
1084.01	1884.55
1083.07	1865.64
1082.13	1846.73
1081.19	1854.36
1080.24	1867.29
1079.3	1848.4
1078.36	1853.37
1077.41	1823.88
1076.47	1918.97
1075.53	1857.68
1074.58	1907.69
1073.64	1785.49
1072.7	1851.39
1071.75	1843.11
1070.81	1776.59
1069.86	1847.75
1068.92	1799.78
1067.98	1884.14
1067.03	1854.7
1066.09	1849.07
1065.14	1806.43
1064.19	1848.41
1063.25	1779.34
1062.3	1850.4
1061.36	1826.28
1060.41	1788.96
1059.46	1786
1058.52	1798.89
1057.57	1869.87
1056.63	1845.77
1055.68	1805.84
1054.73	1760.64
1053.78	1815.75
1052.84	1881.4
1051.89	1865.23
1050.94	1896.55
1049.99	1919.95
1049.05	1906.42
1048.1	1811.17
1047.15	1795.03
1046.2	1857.96
1045.25	1894.52
1044.3	1783.53
1043.35	1896.47
1042.4	1875.06
1041.45	1906.33
1040.5	1869.13
1039.55	1947.76
1038.6	1902.67
1037.65	1799.71
1036.7	1946.71
1035.75	1912.17
1034.8	1853.97
1033.85	1922
1032.9	1955.83
1031.95	1929.2
1031	1863.16
1030.05	1960.04
1029.1	1928.16
1028.14	1993.48
1027.19	1932.72
1026.24	1879.87
1025.29	1908.41
1024.33	1942.18
1023.38	1899.85
1022.43	1896.89
1021.48	1988.36
1020.52	1925.06
1019.57	1914.22
1018.62	1788.04
1017.66	2005.28
1016.71	1944.64
1015.75	1931.19
1014.8	1904.65
1013.85	1854.54
1012.89	1890.87
1011.94	1887.91
1010.98	1898.05
1010.03	1934.35
1009.07	1931.39
1008.12	1912.73
1007.16	1865.29
1006.2	1857.11
1005.25	1903.85
1004.29	1921.81
1003.34	1856.11
1002.38	1874.07
1001.42	1954.75
1000.47	1975.3
999.508	1880.9
998.551	1922.36
997.594	1984.68
996.636	1916.44
995.679	1942.2
994.721	1881.82
993.763	1920.63
992.805	1865.49
991.846	1917.33
990.888	1948.29
989.929	2002.7
988.97	1822.44
988.011	1942.02
987.052	1889.55
986.093	1881.39
985.133	1881.05
984.173	1888.53
983.213	1833.5
982.253	1867.02
981.293	1934.37
980.333	1910.6
979.372	1853
978.411	1956.75
977.45	1922.58
976.489	1930.03
975.528	1888.08
974.566	1960.54
973.605	1975.79
972.643	1837.67
971.681	1920.5
970.719	1912.36
969.756	1888.64
968.794	1935.05
967.831	1924.32
966.868	1900.6
965.905	1892.47
964.942	1855.79
963.979	1915.15
963.015	1943.34
962.052	1896.3
961.088	2025.64
960.124	1874.87
959.159	1871.94
958.195	1928.63
957.23	1899.78
956.266	1902.02
955.301	1953.5
954.336	1898.75
953.37	1970.92
952.405	1905.83
951.439	1869.24
950.473	2008.69
949.507	1904.8
948.541	1945.86
947.575	1873.07
946.608	1883.08
945.642	1921.53
944.675	1916.02
943.708	1964.79
942.741	1995.45
941.773	1961.5
940.806	1971.48
939.838	1914.29
938.87	1867.45
937.902	1949.75
936.934	1936.49
935.965	1974.87
934.997	1904.82
934.028	1914.8
933.059	1991.86
932.09	2027.62
931.121	1985.98
930.151	1934.05
929.182	1954.33
928.212	1995.22
927.242	1938.16
926.272	1986.77
925.301	1950.34
924.331	1978.32
923.36	2008.87
922.389	1923.53
921.418	1964.38
920.447	1989.77
919.475	1984.26
918.504	1945.3
917.532	1955.24
916.56	2021.77
915.588	1951.97
914.616	1959.33
913.643	2000.11
912.671	1948.34
911.698	1991.67
910.725	1973.33
909.752	2042.33
908.779	2129.29
907.805	1961.99
906.831	2054.06
905.858	2012.62
904.883	2094.39
903.909	2078.61
902.935	1993.57
901.96	2088.12
900.986	2056.97
900.011	2056.59
899.036	2117.76
898.06	2168.64
897.085	2222.07
896.109	2103.79
895.133	2075.23
894.157	2069.73
893.181	2141.07
892.205	2161.17
891.229	2132.61
890.252	2142.47
889.275	2198.38
888.298	2203.1
887.321	2284.57
886.343	2238.11
885.366	2235.15
884.388	2255.2
883.41	2196
882.432	2310.62
881.454	2190.09
880.475	2228.02
879.497	2222.51
878.518	2183.79
877.539	2290.65
876.56	2160.02
875.58	2246.42
874.601	2189.87
873.621	2181.81
872.641	2209.48
871.661	2193.78
870.681	2267.34
869.701	2228.68
868.72	2330.26
867.739	2261.01
866.758	2316.67
865.777	2334.09
864.796	2244.5
863.815	2351.07
862.833	2358.29
861.851	2406.24
860.869	2433.81
859.887	2565.72
858.905	2544.9
857.922	2580.06
856.939	2666.09
855.956	2680.86
854.973	2578.66
853.99	2611.24
853.007	2633.65
852.023	2630.63
851.039	2470.05
850.055	2533.12
849.071	2436.13
848.087	2445.85
847.102	2437.79
846.118	2356.1
845.133	2355.67
844.148	2352.71
843.163	2298.99
842.177	2318.87
841.192	2247.43
840.206	2267.31
839.22	2271.97
838.234	2263.95
837.248	2276.21
836.261	2220.04
835.274	2285.52
834.288	2254.7
833.301	2261.89
832.313	2203.23
831.326	2243.35
830.339	2235.34
829.351	2326.06
828.363	2242.12
827.375	2218.94
826.387	2253.96
825.398	2311.72
824.409	2313.83
823.421	2305.82
822.432	2267.48
821.443	2345.42
820.453	2271.71
819.464	2291.51
818.474	2273.41
817.484	2298.25
816.494	2360.96
815.504	2196.43
814.513	2291.95
813.523	2349.58
812.532	2265.89
811.541	2326.02
810.55	2237.31
809.559	2204.12
808.567	2299.54
807.575	2205.84
806.583	2321.38
805.591	2288.2
804.599	2315.5
803.607	2257.14
802.614	2324.73
801.621	2271.42
800.628	2250.87
799.635	2300.8
798.642	2325.55
797.649	2234.54
796.655	2292
795.661	2276.49
794.667	2354.04
793.673	2393.84
792.678	2302.9
791.684	2337.67
790.689	2352.32
789.694	2266.46
788.699	2278.61
787.704	2283.22
786.708	2272.76
785.713	2307.49
784.717	2179.04
783.721	2168.6
782.724	2185.78
781.728	2248.1
780.731	2215.08
779.735	2204.64
778.738	2241.86
777.741	2246.46
776.743	2140.77
775.746	2220.58
774.748	2235.21
773.75	2179.68
772.752	2194.31
771.754	2183.9
770.756	2218.55
769.757	2158.06
768.758	2237.77
767.759	2242.36
766.76	2126.85
765.761	2274.07
764.761	2213.62
763.762	2233.22
762.762	2167.81
761.762	2209.91
760.762	2239.5
759.761	2294.07
758.761	2263.67
757.76	2203.3
756.759	2242.86
755.758	2329.85
754.756	2212.08
753.755	2199.19
752.753	2201.29
751.751	2230.83
750.749	2227.92
749.747	2247.47
748.745	2284.47
747.742	2216.73
746.739	2233.77
745.736	2240.84
744.733	2255.39
743.73	2267.43
742.726	2291.93
741.723	2251.66
740.719	2223.85
739.715	2293.16
738.71	2315.15
737.706	2304.77
736.701	2364.07
735.697	2229.28
734.692	2338.33
733.686	2327.95
732.681	2255.41
731.675	2222.68
730.67	2329.16
729.664	2288.97
728.658	2348.18
727.651	2240.93
726.645	2364.71
725.638	2269.91
724.631	2341.5
723.624	2199.56
722.617	2293.48
721.61	2290.58
720.602	2369.56
719.595	2314.55
718.587	2316.6
717.578	2293.86
716.57	2315.75
715.562	2307.89
714.553	2265.33
713.544	2336.78
712.535	2358.65
711.526	2333.45
710.516	2323.11
709.507	2340.02
708.497	2431.2
707.487	2534.71
706.477	2484.75
705.467	2536.26
704.456	2476.42
703.445	2552.64
702.434	2492.82
701.423	2578.9
700.412	2511.68
699.401	2526.05
698.389	2466.28
697.377	2384.29
696.365	2485.13
695.353	2400.7
694.34	2511.39
693.328	2375.13
692.315	2374.7
691.302	2337.24
690.289	2334.34
689.276	2333.91
688.262	2372.95
687.249	2424.31
686.235	2384.41
685.221	2369.18
684.206	2341.63
683.192	2370.77
682.177	2380.19
681.162	2377.29
680.147	2448.28
679.132	2371.49
678.117	2425.22
677.101	2395.24
676.086	2352.96
675.07	2367.29
674.054	2430.82
673.037	2418.08
672.021	2417.63
671.004	2439.32
669.987	2367.57
668.97	2502.33
667.953	2297.89
666.936	2351.52
665.918	2402.68
664.9	2402.24
663.882	2438.63
662.864	2440.64
661.846	2435.28
660.827	2395.56
659.808	2439.29
658.789	2485.46
657.77	2519.35
656.751	2484.55
655.731	2491.45
654.712	2557.18
653.692	2443.95
652.672	2387.13
651.652	2438.15
650.631	2435.25
649.611	2471.55
648.59	2505.38
647.569	2399.63
646.548	2423.67
645.526	2501.55
644.505	2449.69
643.483	2407.65
642.461	2475.7
641.439	2485.03
640.417	2562.82
639.394	2489
638.371	2559.43
637.348	2468.53
636.325	2592.7
635.302	2697.28
634.279	2767.62
633.255	3033.32
632.231	3152.41
631.207	3168.92
630.183	2897.39
629.159	2765.07
628.134	2693.8
627.109	2585.96
626.084	2617.19
625.059	2594.76
624.034	2496.75
623.008	2506.04
621.983	2486.08
620.957	2575.79
619.931	2516.84
618.904	2543.17
617.878	2537.83
616.851	2525.18
615.824	2641.58
614.797	2473.13
613.77	2604.1
612.743	2559.82
611.715	2588.54
610.687	2573.47
609.659	2483.01
608.631	2587.1
607.603	2652.26
606.574	2515.66
605.546	2464.16
604.517	2558.47
603.487	2504.55
602.458	2545.38
601.429	2586.19
600.399	2488.59
599.369	2609.51
598.339	2613.88
597.309	2441.11
596.278	2571.67
595.248	2622.13
594.217	2621.64
593.186	2613.89
592.155	2535.82
591.123	2620.19
590.091	2537.31
589.06	2529.57
588.028	2572.71
586.996	2632.78
585.963	2528.17
584.931	2380.01
583.898	2597.43
582.865	2572.75
581.832	2647.29
580.798	2569.38
579.765	2651.14
578.731	2595.03
577.697	2684.01
576.663	2666.59
575.629	2528.32
574.594	2556.86
573.56	2568.46
572.525	2529.34
571.49	2536.11
570.455	2605.67
569.419	2549.66
568.384	2554.02
567.348	2539.06
566.312	2560.31
565.276	2470.56
564.239	2552.12
563.203	2650.53
562.166	2618.69
561.129	2572.4
560.092	2711.73
559.054	2713.64
558.017	2727.59
556.979	2698.17
555.941	2632.64
554.903	2576.76
553.865	2549.8
552.826	2686.54
551.787	2659.57
550.749	2560.41
549.709	2559.94
548.67	2561.87
547.631	2599.87
546.591	2575.35
545.551	2625.36
544.511	2644.1
543.471	2578.72
542.43	2611.88
541.39	2685.87
540.349	2567.67
539.308	2584.01
538.267	2612.34
537.225	2729.49
536.184	2757.78
535.142	2656.48
534.1	2584.01
533.058	2660.29
532.015	2525.49
530.973	2647.31
529.93	2505.37
528.887	2531.27
527.844	2528.4
526.801	2578.25
525.757	2620.9
524.713	2562.92
523.669	2531.31
522.625	2657.74
521.581	2592.61
520.537	2704.63
519.492	2627.55
518.447	2725.15
517.402	2605.04
516.357	2678.7
515.311	2704.5
514.265	2742.25
513.22	2555.29
512.174	2590.67
511.127	2556.73
510.081	2451.14
509.034	2512.79
507.987	2474.11
506.94	2554.83
505.893	2523.32
504.846	2549.1
503.798	2582.04
502.75	2564.86
501.702	2573.92
500.654	2659.3
499.606	2711.27
