3200.54	54.7273
3199.95	33.6783
3199.35	12.6275
3198.76	16.8341
3198.16	67.3261
3197.57	58.9015
3196.98	50.4793
3196.38	50.4717
3195.79	42.0534
3195.19	50.4564
3194.6	37.8366
3194	33.6275
3193.41	37.8252
3192.81	37.8194
3192.22	42.0153
3191.62	58.8125
3191.03	46.2028
3190.43	37.7966
3189.84	58.7858
3189.24	46.1818
3188.65	58.768
3188.05	92.3357
3187.45	46.1609
3186.86	54.5455
3186.26	54.5373
3185.67	29.3618
3185.07	54.5208
3184.47	33.5462
3183.88	58.6969
3183.28	71.264
3182.69	50.2964
3182.09	29.3351
3181.49	37.7109
3180.9	41.8946
3180.3	33.5106
3179.7	50.2584
3179.1	25.1254
3178.51	37.6824
3177.91	54.4218
3177.31	46.0423
3176.72	50.2203
3176.12	50.2127
3175.52	20.9188
3174.92	50.1975
3174.33	25.095
3173.73	33.4549
3173.13	41.8123
3172.53	62.7089
3171.93	45.9796
3171.34	50.1519
3170.74	33.4295
3170.14	54.3148
3169.54	54.3066
3168.94	33.4144
3168.34	45.9378
3167.74	41.7553
3167.15	33.3992
3166.55	45.9169
3165.95	12.5209
3165.35	37.557
3164.75	50.0684
3164.15	75.0912
3163.55	41.711
3162.95	37.5342
3162.35	33.3587
3161.75	25.0152
3161.15	45.8543
3160.55	20.8397
3159.95	79.1789
3159.35	33.3334
3158.75	41.6605
3158.15	24.9925
3157.55	37.483
3156.95	41.6415
3156.35	41.6352
3155.75	41.6289
3155.15	33.2981
3154.55	45.7779
3153.95	54.0929
3153.35	58.2451
3152.75	41.5973
3152.15	33.2728
3151.54	24.9508
3150.94	41.5784
3150.34	33.2577
3149.74	49.8789
3149.14	37.4035
3148.54	45.7085
3147.94	45.7015
3147.33	37.3865
3146.73	49.8411
3146.13	53.9863
3145.53	45.6738
3144.93	45.6669
3144.32	24.9054
3143.72	24.9016
3143.12	41.4964
3142.52	62.2352
3141.91	58.0774
3141.31	58.0686
3140.71	49.7655
3140.1	41.465
3139.5	24.8752
3138.9	49.7428
3138.29	41.4461
3137.69	41.4398
3137.09	37.2901
3136.48	62.1408
3135.88	28.9946
3135.28	70.4048
3134.67	57.9716
3134.07	49.6824
3133.47	62.0936
3132.86	57.9452
3132.26	53.7981
3131.65	28.9638
3131.05	53.7817
3130.45	62.0464
3129.84	33.0864
3129.24	49.6221
3128.63	57.8836
3128.03	78.5444
3127.42	45.4662
3126.82	66.1225
3126.21	37.1883
3125.61	49.5768
3125	41.3077
3124.4	53.6919
3123.79	53.6837
3123.19	53.6756
3122.58	53.6674
3121.97	57.7869
3121.37	53.6511
3120.76	57.7693
3120.16	57.7605
3119.55	53.6266
3118.94	45.3695
3118.34	74.2297
3117.73	57.7254
3117.13	49.4714
3116.52	41.2199
3115.91	86.5486
3115.31	49.4488
3114.7	53.5614
3114.09	61.7922
3113.48	90.6148
3112.88	57.6552
3112.27	57.6464
3111.66	57.6376
3111.06	57.6289
3110.45	74.083
3109.84	69.9566
3109.23	53.4881
3108.63	69.9353
3108.02	53.4718
3107.41	78.1392
3106.8	65.7914
3106.19	61.67
3105.59	61.6607
3104.98	82.2017
3104.37	49.3135
3103.76	32.8707
3103.15	57.5149
3102.54	53.3986
3101.93	69.8183
3101.33	45.1696
3100.72	57.4799
3100.11	57.4711
3099.5	53.3579
3098.89	82.0766
3098.28	41.032
3097.67	65.6413
3097.06	110.753
3096.45	69.7226
3095.84	57.4099
3095.23	69.7013
3094.62	86.0885
3094.01	73.7789
3093.4	57.3749
3092.79	57.3661
3092.18	69.6483
3091.57	65.5413
3090.96	98.297
3090.35	114.662
3089.74	73.7003
3089.13	102.346
3088.52	85.9574
3087.91	81.8517
3087.3	98.2071
3086.69	102.283
3086.08	126.812
3085.46	98.1622
3084.85	73.6104
3084.24	85.8657
3083.63	122.647
3083.02	114.453
3082.41	134.87
3081.79	134.85
3081.18	126.657
3080.57	142.979
3079.96	138.872
3079.35	122.516
3078.73	114.331
3078.12	138.809
3077.51	130.624
3076.9	151.01
3076.28	122.422
3075.67	106.083
3075.06	122.385
3074.45	154.997
3073.83	122.348
3073.22	126.406
3072.61	110.079
3071.99	142.673
3071.38	126.349
3070.77	97.8033
3070.15	81.4903
3069.54	105.921
3068.93	97.7585
3068.31	122.179
3067.7	89.5846
3067.08	40.7141
3066.47	142.477
3065.86	81.4033
3065.24	134.295
3064.63	73.2405
3064.01	101.707
3063.4	101.692
3062.78	101.676
3062.17	77.2622
3061.55	113.843
3060.94	89.4342
3060.32	65.0331
3059.71	97.5348
3059.09	69.0766
3058.48	101.568
3057.86	69.0555
3057.25	97.4752
3056.63	64.9735
3056.02	73.084
3055.4	69.0133
3054.78	146.123
3054.17	77.1089
3053.55	60.8661
3052.94	56.7997
3052.32	77.0735
3051.7	77.0617
3051.09	81.1052
3050.47	72.9835
3049.85	81.0804
3049.24	101.335
3048.62	101.32
3048	72.9389
3047.39	89.1339
3046.77	93.1712
3046.15	97.2072
3045.53	52.6459
3044.92	60.7359
3044.3	56.6782
3043.68	68.813
3043.06	89.0385
3042.45	80.9317
3041.83	93.0572
3041.21	64.7255
3040.59	60.6709
3039.97	40.4411
3039.35	109.174
3038.74	72.7717
3038.12	88.9295
3037.5	60.6245
3036.88	60.6152
3036.26	96.9695
3035.64	60.5966
3035.02	100.979
3034.41	72.6937
3033.79	80.7584
3033.17	88.8207
3032.55	76.697
3031.93	52.4689
3031.31	88.7799
3030.69	68.5921
3030.07	80.6842
3029.45	100.84
3028.83	68.5606
3028.21	56.453
3027.59	104.825
3026.97	56.4357
3026.35	96.7321
3025.73	104.777
3025.11	84.6147
3024.49	104.745
3023.87	80.5607
3023.25	68.4661
3022.63	108.724
3022	88.5761
3021.38	72.4602
3020.76	96.5988
3020.14	104.633
3019.52	104.617
3018.9	112.647
3018.28	100.562
3017.66	92.5029
3017.03	88.4675
3016.41	88.4539
3015.79	84.4203
3015.17	76.3686
3014.55	100.47
3013.92	64.2907
3013.3	116.509
3012.68	104.44
3012.06	76.3101
3011.43	124.487
3010.81	104.392
3010.19	68.246
3009.57	104.36
3008.94	128.424
3008.32	104.328
3007.7	112.336
3007.07	120.342
3006.45	80.2155
3005.83	104.264
3005.2	104.248
3004.58	124.277
3003.96	120.249
3003.33	144.277
3002.71	92.1629
3002.08	120.194
3001.46	136.199
3000.84	132.173
3000.21	100.116
2999.59	112.112
2998.96	112.095
2998.34	100.069
2997.71	100.054
2997.09	112.043
2996.46	124.029
2995.84	136.011
2995.21	143.989
2994.59	95.9782
2993.96	131.95
2993.34	111.94
2992.71	127.912
2992.09	143.879
2991.46	115.885
2990.84	99.8852
2990.21	119.844
2989.58	127.814
2988.96	79.8713
2988.33	107.81
2987.71	107.793
2987.08	139.71
2986.45	103.769
2985.83	135.677
2985.2	147.626
2984.57	111.7
2983.95	123.648
2983.32	119.641
2982.69	111.648
2982.07	123.591
2981.44	103.641
2980.81	127.539
2980.18	127.519
2979.56	107.578
2978.93	103.578
2978.3	155.343
2977.67	127.441
2977.05	127.421
2976.42	179.159
2975.79	135.344
2975.16	163.183
2974.53	135.302
2973.91	123.345
2973.28	143.217
2972.65	175.016
2972.02	143.173
2971.39	123.269
2970.76	198.79
2970.13	143.107
2969.5	131.161
2968.88	147.037
2968.25	162.907
2967.62	178.773
2966.99	174.774
2966.36	174.747
2965.73	170.749
2965.1	162.782
2964.47	170.696
2963.84	190.515
2963.21	174.612
2962.58	198.392
2961.95	214.231
2961.32	186.431
2960.69	190.369
2960.06	218.097
2959.43	182.38
2958.8	210.102
2958.17	186.288
2957.53	206.074
2956.9	190.193
2956.27	198.087
2955.64	205.979
2955.01	198.026
2954.38	233.635
2953.75	201.924
2953.12	182.1
2952.48	186.03
2951.85	182.044
2951.22	170.145
2950.59	166.162
2949.96	154.27
2949.33	225.437
2948.69	181.903
2948.06	138.383
2947.43	197.66
2946.8	181.819
2946.16	150.175
2945.53	154.103
2944.9	169.883
2944.26	138.255
2943.63	150.083
2943	138.213
2942.37	134.243
2941.73	173.7
2941.1	161.831
2940.47	106.555
2939.83	134.16
2939.2	145.975
2938.56	130.174
2937.93	161.707
2937.3	130.134
2936.66	126.171
2936.03	130.094
2935.39	126.132
2934.76	161.582
2934.13	145.795
2933.49	114.254
2932.86	126.054
2932.22	133.912
2931.59	106.325
2930.95	129.933
2930.32	129.913
2929.68	133.829
2929.05	129.873
2928.41	110.178
2927.78	98.3584
2927.14	118.012
2926.5	110.127
2925.87	110.11
2925.23	165.14
2924.6	129.733
2923.96	117.921
2923.32	121.833
2922.69	125.743
2922.05	125.724
2921.42	125.704
2920.78	145.323
2920.14	129.593
2919.51	109.94
2918.87	168.811
2918.23	125.607
2917.6	133.437
2916.96	137.341
2916.32	149.09
2915.68	113.761
2915.05	164.732
2914.41	152.942
2913.77	125.471
2913.13	117.611
2912.5	141.112
2911.86	148.928
2911.22	129.312
2910.58	156.718
2909.94	125.355
2909.31	141.003
2908.67	148.813
2908.03	129.213
2907.39	156.597
2906.75	156.573
2906.11	148.721
2905.47	148.698
2904.83	109.55
2904.2	144.74
2903.56	156.452
2902.92	136.874
2902.28	132.943
2901.64	152.47
2901	128.993
2900.36	125.065
2899.72	156.307
2899.08	156.282
2898.44	144.539
2897.8	148.422
2897.16	136.684
2896.52	144.472
2895.88	163.969
2895.24	117.103
2894.6	152.21
2893.96	140.48
2893.32	148.261
2892.67	132.634
2892.03	159.917
2891.39	144.293
2890.75	144.27
2890.11	136.451
2889.47	179.308
2888.83	151.998
2888.19	128.594
2887.54	136.366
2886.9	163.614
2886.26	132.429
2885.62	175.247
2884.98	183.007
2884.33	182.979
2883.69	147.917
2883.05	147.894
2882.41	175.111
2881.77	128.395
2881.12	178.947
2880.48	143.913
2879.84	140.002
2879.19	155.534
2878.55	167.173
2877.91	167.147
2877.26	128.256
2876.62	186.525
2875.98	143.757
2875.33	151.504
2874.69	159.249
2874.05	170.875
2873.4	132.019
2872.76	147.528
2872.11	131.978
2871.47	147.482
2870.83	174.623
2870.18	147.437
2869.54	116.379
2868.89	166.784
2868.25	166.758
2867.6	139.59
2866.96	143.445
2866.31	155.052
2865.67	193.785
2865.02	135.628
2864.38	127.858
2863.73	135.586
2863.09	139.438
2862.44	166.526
2861.8	139.395
2861.15	139.374
2860.5	170.319
2859.86	158.682
2859.21	147.048
2858.57	100.596
2857.92	147.002
2857.27	146.98
2856.63	158.559
2855.98	166.267
2855.33	170.108
2854.69	150.754
2854.04	150.73
2853.39	166.164
2852.75	177.729
2852.1	150.66
2851.45	146.774
2850.81	158.337
2850.16	127.422
2849.51	173.731
2848.86	158.263
2848.21	162.098
2847.57	146.637
2846.92	150.473
2846.27	162.023
2845.62	165.854
2844.97	173.542
2844.33	169.659
2843.68	173.488
2843.03	131.059
2842.38	142.601
2841.73	142.579
2841.08	154.115
2840.43	157.944
2839.78	169.474
2839.14	173.299
2838.49	188.674
2837.84	153.996
2837.19	173.218
2836.54	169.343
2835.89	165.468
2835.24	142.357
2834.59	180.804
2833.94	142.313
2833.29	149.982
2832.64	165.339
2831.99	199.914
2831.34	119.161
2830.69	169.106
2830.04	107.596
2829.39	192.106
2828.74	199.759
2828.08	161.319
2827.43	142.092
2826.78	161.268
2826.13	149.726
2825.48	165.057
2824.83	153.517
2824.18	165.005
2823.53	164.98
2822.87	161.118
2822.22	145.75
2821.57	168.737
2820.92	191.717
2820.27	161.017
2819.61	164.825
2818.96	160.967
2818.31	157.11
2817.66	199.231
2817	195.369
2816.35	157.037
2815.7	172.331
2815.05	160.817
2814.39	168.449
2813.74	164.594
2813.09	195.186
2812.43	183.676
2811.78	183.648
2811.13	164.492
2810.47	149.167
2809.82	160.616
2809.16	130.003
2808.51	179.681
2807.86	164.364
2807.2	187.269
2806.55	129.922
2805.89	202.493
2805.24	183.361
2804.58	164.236
2803.93	156.572
2803.28	168.003
2802.62	148.888
2801.97	194.67
2801.31	160.291
2800.66	194.609
2800	228.916
2799.34	194.548
2798.69	179.262
2798.03	213.555
2797.38	152.515
2796.72	179.178
2796.07	179.15
2795.41	205.799
2794.75	160.041
2794.1	148.587
2793.44	163.801
2792.79	201.862
2792.13	163.75
2791.47	194.184
2790.82	224.609
2790.16	201.736
2789.5	182.676
2788.84	171.232
2788.19	163.596
2787.53	224.434
2786.87	148.332
2786.22	216.759
2785.56	174.901
2784.9	167.27
2784.24	220.458
2783.59	228.024
2782.93	201.39
2782.27	227.953
2781.61	197.529
2780.95	197.498
2780.29	216.454
2779.64	205.03
2778.98	201.201
2778.32	212.557
2777.66	239.089
2777	178.34
2776.34	223.839
2775.68	182.078
2775.02	204.805
2774.36	227.526
2773.71	208.533
2773.05	185.755
2772.39	185.726
2771.73	216.015
2771.07	193.246
2770.41	189.427
2769.75	189.398
2769.09	208.305
2768.43	185.552
2767.77	193.095
2767.11	189.279
2766.45	200.605
2765.79	177.867
2765.12	189.19
2764.46	200.51
2763.8	181.566
2763.14	204.23
2762.48	170.165
2761.82	234.413
2761.16	200.354
2760.5	211.661
2759.83	200.291
2759.17	181.367
2758.51	226.674
2757.85	181.31
2757.19	200.166
2756.53	177.478
2755.86	241.634
2755.2	241.596
2754.54	218.912
2753.88	256.615
2753.21	249.029
2752.55	188.629
2751.89	188.599
2751.23	203.655
2750.56	237.56
2749.9	180.97
2749.24	222.408
2748.57	252.525
2747.91	188.422
2747.25	199.696
2746.58	229.803
2745.92	195.867
2745.25	214.666
2744.59	210.867
2743.93	203.305
2743.26	274.795
2742.6	210.768
2741.93	188.156
2741.27	203.177
2740.61	221.955
2739.94	263.295
2739.28	233.168
2738.61	191.769
2737.95	210.537
2737.28	236.817
2736.62	206.713
2735.95	206.68
2735.29	232.949
2734.62	221.642
2733.95	274.192
2733.29	229.083
2732.62	244.067
2731.96	217.749
2731.29	228.976
2730.62	232.693
2729.96	243.914
2729.29	221.364
2728.63	210.075
2727.96	202.541
2727.29	255.011
2726.63	228.724
2725.96	254.931
2725.29	209.911
2724.62	224.869
2723.96	239.823
2723.29	209.812
2722.62	239.747
2721.96	198.51
2721.29	224.693
2720.62	250.867
2719.95	232.109
2719.28	265.761
2718.62	239.522
2717.95	202.065
2717.28	250.67
2716.61	243.15
2715.94	276.773
2715.27	224.375
2714.61	257.991
2713.94	216.828
2713.27	239.221
2712.6	216.76
2711.93	224.199
2711.26	257.788
2710.59	246.541
2709.92	197.949
2709.25	209.121
2708.58	224.023
2707.91	223.988
2707.24	227.685
2706.57	238.845
2705.9	242.539
2705.23	257.424
2704.56	220.082
2703.89	279.721
2703.22	220.012
2702.55	253.534
2701.88	242.31
2701.21	242.272
2700.54	245.961
2699.87	204.935
2699.2	253.335
2698.53	230.945
2697.86	212.287
2697.19	242.044
2696.51	271.791
2695.84	219.632
2695.17	223.32
2694.5	230.727
2693.83	249.295
2693.15	238.095
2692.48	230.618
2691.81	226.863
2691.14	230.546
2690.47	219.356
2689.79	289.95
2689.12	245.304
2688.45	222.969
2687.77	282.382
2687.1	263.763
2686.43	289.722
2685.76	267.394
2685.08	222.793
2684.41	222.758
2683.74	267.268
2683.06	222.688
2682.39	244.918
2681.71	230.038
2681.04	278.228
2680.37	263.348
2679.69	248.472
2679.02	296.637
2678.34	285.468
2677.67	244.648
2676.99	266.847
2676.32	292.744
2675.65	251.943
2674.97	248.199
2674.3	281.494
2673.62	255.527
2672.95	251.784
2672.27	262.851
2671.59	248.003
2670.92	240.562
2670.24	270.127
2669.57	273.784
2668.89	258.944
2668.22	281.095
2667.54	255.165
2666.86	273.612
2666.19	221.812
2665.51	247.652
2664.83	277.178
2664.16	277.134
2663.48	247.534
2662.8	288.129
2662.13	306.55
2661.45	299.116
2660.77	280.608
2660.1	299.022
2659.42	306.357
2658.74	313.69
2658.06	295.191
2657.39	298.833
2656.71	261.899
2656.03	265.546
2655.35	269.192
2654.68	265.462
2654	287.539
2653.32	269.064
2652.64	254.281
2651.96	294.772
2651.28	272.621
2650.6	316.78
2649.93	327.778
2649.25	290.903
2648.57	294.539
2647.89	268.725
2647.21	290.766
2646.53	272.32
2645.85	264.918
2645.17	242.803
2644.49	290.582
2643.81	264.792
2643.13	264.751
2642.45	275.738
2641.77	312.454
2641.09	294.028
2640.41	301.331
2639.73	268.216
2639.05	282.868
2638.37	242.42
2637.69	290.123
2637.01	264.374
2636.33	304.717
2635.65	297.327
2634.96	286.27
2634.28	322.92
2633.6	330.207
2632.92	267.792
2632.24	330.103
2631.56	289.711
2630.88	326.331
2630.19	344.61
2629.51	289.573
2628.83	271.203
2628.15	333.454
2627.46	300.427
2626.78	296.717
2626.1	329.633
2625.42	325.919
2624.73	329.529
2624.05	325.816
2623.37	336.745
2622.69	314.734
2622	322.002
2621.32	321.951
2620.64	296.294
2619.95	325.507
2619.27	336.426
2618.58	329.06
2617.9	318.041
2617.22	350.886
2616.53	350.831
2615.85	372.698
2615.16	339.759
2614.48	361.622
2613.79	314.087
2613.11	339.598
2612.43	354.148
2611.74	321.238
2611.06	328.487
2610.37	302.89
2609.69	310.14
2609	313.739
2608.31	331.927
2607.63	306.345
2606.94	375.578
2606.26	335.415
2605.57	302.555
2604.89	331.664
2604.2	313.391
2603.51	309.698
2602.83	313.292
2602.14	353.308
2601.45	353.252
2600.77	349.555
2600.08	353.14
2599.39	345.804
2598.71	305.715
2598.02	287.472
2597.33	312.895
2596.65	320.121
2595.96	352.804
2595.27	298.2
2594.58	341.784
2593.9	327.188
2593.21	261.709
2592.52	294.376
2591.83	327.033
2591.14	326.981
2590.46	337.827
2589.77	355.933
2589.08	326.825
2588.39	341.297
2587.7	323.091
2587.01	384.745
2586.32	297.585
2585.64	319.309
2584.95	333.77
2584.26	388.128
2583.57	369.932
2582.88	322.733
2582.19	340.81
2581.5	380.631
2580.81	344.326
2580.12	369.639
2579.43	384.073
2578.74	315.18
2578.05	358.596
2577.36	311.458
2576.67	347.619
2575.98	369.287
2575.29	340.269
2574.6	347.454
2573.91	347.398
2573.22	332.871
2572.52	347.288
2571.83	314.68
2571.14	365.26
2570.45	318.196
2569.76	350.683
2569.07	339.783
2568.38	383.099
2567.68	379.424
2566.99	339.621
2566.3	375.691
2565.61	343.125
2564.92	332.237
2564.22	418.84
2563.53	357.402
2562.84	346.516
2562.14	393.378
2561.45	368.057
2560.76	339.135
2560.07	367.94
2559.37	331.814
2558.68	425.52
2557.99	385.792
2557.29	371.311
2556.6	400.087
2555.91	382.004
2555.21	353.117
2554.52	353.061
2553.82	349.403
2553.13	374.558
2552.44	327.686
2551.74	360.037
2551.05	345.581
2550.35	359.923
2549.66	352.668
2548.96	363.406
2548.27	374.141
2547.57	338.112
2546.88	374.022
2546.18	402.729
2545.49	395.474
2544.79	359.465
2544.1	409.724
2543.4	373.724
2542.7	373.665
2542.01	384.382
2541.31	369.954
2540.62	373.486
2539.92	369.836
2539.22	373.367
2538.53	351.771
2537.83	398.371
2537.13	376.777
2536.44	430.534
2535.74	430.465
2535.04	329.971
2534.35	369.365
2533.65	304.767
2532.95	412.267
2532.25	319.008
2531.56	358.378
2530.86	419.236
2530.16	336.768
2529.46	354.625
2528.76	383.221
2528.07	336.607
2527.37	379.518
2526.67	400.936
2525.97	411.61
2525.27	329.235
2524.57	357.808
2523.88	414.991
2523.18	379.155
2522.48	382.671
2521.78	411.216
2521.08	396.85
2520.38	411.085
2519.68	400.297
2518.98	425.248
2518.28	439.472
2517.58	378.672
2516.88	371.468
2516.18	392.836
2515.48	442.762
2514.78	406.991
2514.08	389.078
2513.38	392.585
2512.68	399.659
2511.98	392.46
2511.28	338.888
2510.58	438.701
2509.88	417.235
2509.17	413.602
2508.47	427.796
2507.77	417.035
2507.07	413.404
2506.37	413.338
2505.67	420.398
2504.97	359.775
2504.26	416.702
2503.56	370.343
2502.86	441.492
2502.16	423.622
2501.45	398.639
2500.75	359.43
2500.05	391.396
2499.35	405.564
2498.64	437.512
2497.94	433.885
2497.24	433.816
2496.53	387.528
2495.83	394.575
2495.13	447.825
2494.42	458.414
2493.72	419.257
2493.02	440.505
2492.31	394.26
2491.61	440.364
2490.9	454.497
2490.2	408.272
2489.5	433.054
2488.79	408.141
2488.09	454.206
2487.38	450.586
2486.68	407.946
2485.97	432.708
2485.27	443.277
2484.56	446.752
2483.86	457.316
2483.15	418.253
2482.45	453.626
2481.74	396.859
2481.04	425.138
2480.33	442.781
2479.62	378.96
2478.92	442.639
2478.21	439.028
2477.51	453.118
2476.8	438.888
2476.09	438.817
2475.39	463.515
2474.68	435.139
2473.97	459.83
2473.27	473.902
2472.56	427.858
2471.85	431.325
2471.14	452.465
2470.44	438.256
2469.73	431.118
2469.02	480.514
2468.31	455.708
2467.61	452.103
2466.9	473.22
2466.19	406.056
2465.48	466.007
2464.77	476.522
2464.07	462.329
2463.36	426.968
2462.65	416.315
2461.94	419.776
2461.23	433.817
2460.52	454.906
2459.81	451.307
2459.1	451.235
2458.4	422.965
2457.69	465.187
2456.98	458.065
2456.27	436.853
2455.56	500.187
2454.85	461.367
2454.14	447.207
2453.43	422.49
2452.72	482.266
2452.01	454.031
2451.3	464.516
2450.59	439.812
2449.88	443.259
2449.16	443.188
2448.45	457.184
2447.74	467.66
2447.03	467.585
2446.32	485.085
2445.61	481.493
2444.9	488.444
2444.19	470.798
2443.47	470.722
2442.76	505.77
2442.05	530.271
2441.34	505.608
2440.63	470.42
2439.91	438.755
2439.2	494.836
2438.49	515.81
2437.78	498.185
2437.06	519.152
2436.35	452.431
2435.64	497.945
2434.93	476.829
2434.21	480.258
2433.5	490.695
2432.79	459.077
2432.07	480.026
2431.36	462.433
2430.64	458.856
2429.93	493.804
2429.22	486.721
2428.5	504.148
2427.79	504.067
2427.07	496.986
2426.36	458.414
2425.65	423.352
2424.93	496.747
2424.22	517.653
2423.5	475.605
2422.79	506.997
2422.07	464.964
2421.36	517.32
2420.64	524.227
2419.92	506.671
2419.21	538.033
2418.49	572.878
2417.78	495.949
2417.06	481.901
2416.35	516.738
2415.63	464.291
2414.91	513.082
2414.2	530.448
2413.48	519.895
2412.76	547.721
2412.05	495.311
2411.33	523.132
2410.61	495.152
2409.9	484.613
2409.18	526.365
2408.46	522.795
2407.74	564.528
2407.03	543.532
2406.31	543.444
2405.59	574.704
2404.87	546.752
2404.16	543.182
2403.44	553.539
2402.72	462.948
2402	494.196
2401.28	473.238
2400.56	532.308
2399.85	553.093
2399.13	486.922
2398.41	514.663
2397.69	538.919
2396.97	552.737
2396.25	455.326
2395.53	486.53
2394.81	500.35
2394.09	462.055
2393.37	493.242
2392.65	524.419
2391.93	552.114
2391.21	562.441
2390.49	503.338
2389.77	520.611
2389.05	527.467
2388.33	506.564
2387.61	492.606
2386.89	548.023
2386.17	534.063
2385.45	520.107
2384.73	526.957
2384	533.805
2383.28	582.238
2382.56	505.911
2381.84	592.444
2381.12	575.029
2380.4	516.057
2379.67	505.585
2378.95	508.966
2378.23	585.043
2377.51	501.879
2376.79	543.326
2376.06	560.539
2375.34	553.53
2374.62	522.309
2373.9	556.81
2373.17	549.804
2372.45	639.606
2371.73	615.305
2371	539.169
2370.28	563.272
2369.56	580.456
2368.83	573.454
2368.11	566.453
2367.38	535.281
2366.66	566.27
2365.94	569.631
2365.21	503.956
2364.49	559.093
2363.76	586.608
2363.04	589.964
2362.31	586.419
2361.59	520.794
2360.86	603.471
2360.14	537.865
2359.41	572.251
2358.69	558.371
2357.96	568.62
2357.24	578.865
2356.51	537.43
2355.79	537.344
2355.06	537.257
2354.33	606.038
2353.61	574.954
2352.88	595.515
2352.15	509.376
2351.43	581.558
2350.7	560.82
2349.98	598.57
2349.25	581.276
2348.52	543.354
2347.79	550.143
2347.07	563.805
2346.34	543.09
2345.61	543.002
2344.88	584.148
2344.16	618.41
2343.43	590.83
2342.7	576.996
2341.97	594.072
2341.25	573.376
2340.52	611.044
2339.79	638.404
2339.06	545.644
2338.33	562.711
2337.6	559.19
2336.87	579.68
2336.14	610.451
2335.42	589.779
2334.69	610.254
2333.96	579.304
2333.23	613.483
2332.5	517.436
2331.77	650.973
2331.04	575.504
2330.31	667.887
2329.58	612.987
2328.85	588.92
2328.12	571.708
2327.39	643.495
2326.66	629.701
2325.93	643.286
2325.2	612.392
2324.47	625.975
2323.73	625.874
2323	612.094
2322.27	598.319
2321.54	642.661
2320.81	604.961
2320.08	587.776
2319.35	621.849
2318.61	604.667
2317.88	614.816
2317.15	583.98
2316.42	659.005
2315.69	590.619
2314.95	614.417
2314.22	668.924
2313.49	668.815
2312.76	627.765
2312.02	617.43
2311.29	596.866
2310.56	593.359
2309.82	640.997
2309.09	586.349
2308.36	589.662
2307.62	627.053
2306.89	637.173
2306.16	620.036
2305.42	616.529
2304.69	609.618
2303.95	606.114
2303.22	653.68
2302.48	646.766
2301.75	639.854
2301.02	643.153
2300.28	656.658
2299.55	595.318
2298.81	653.043
2298.08	639.334
2297.34	673.232
2296.6	625.528
2295.87	615.23
2295.13	672.904
2294.4	642.214
2293.66	703.263
2292.93	658.989
2292.19	686.053
2291.45	601.048
2290.72	621.321
2289.98	634.799
2289.24	627.907
2288.51	644.773
2287.77	665.026
2287.03	678.488
2286.3	624.108
2285.56	691.833
2284.82	718.847
2284.08	681.437
2283.35	664.378
2282.61	606.655
2281.87	687.882
2281.13	708.099
2280.4	680.884
2279.66	707.869
2278.92	670.503
2278.18	727.953
2277.44	616.121
2276.7	693.869
2275.97	629.457
2275.23	717.329
2274.49	679.999
2273.75	683.271
2273.01	652.722
2272.27	693.193
2271.53	703.223
2270.79	689.587
2270.05	679.335
2269.31	713.017
2268.57	743.309
2267.83	706.029
2267.09	672.138
2266.35	685.537
2265.61	692.178
2264.87	685.314
2264.13	641.322
2263.39	695.215
2262.65	722.096
2261.91	705.11
2261.17	704.995
2260.42	704.88
2259.68	660.929
2258.94	711.394
2258.2	734.875
2257.46	707.792
2256.72	694.197
2255.97	721.039
2255.23	690.602
2254.49	737.645
2253.75	680.274
2253	723.936
2252.26	690.152
2251.52	690.04
2250.78	723.582
2250.03	683.085
2249.29	760.355
2248.55	703.046
2247.8	709.658
2247.06	722.993
2246.32	743.048
2245.57	773.182
2244.83	773.056
2244.09	722.522
2243.34	698.884
2242.6	729.005
2241.85	705.374
2241.11	728.767
2240.36	715.217
2239.62	694.957
2238.88	758.621
2238.13	708.155
2237.39	755.018
2236.64	751.54
2235.89	791.672
2235.15	754.649
2234.4	781.353
2233.66	771.167
2232.91	797.86
2232.17	757.508
2231.42	740.628
2230.67	723.754
2229.93	787.289
2229.18	803.909
2228.44	817.174
2227.69	800.298
2226.94	729.859
2226.2	779.952
2225.45	756.396
2224.7	786.39
2223.95	776.224
2223.21	799.514
2222.46	729.145
2221.71	765.811
2220.96	799.122
2220.22	722.101
2219.47	732.011
2218.72	782.021
2217.97	781.893
2217.22	724.971
2216.48	734.873
2215.73	801.549
2214.98	764.686
2214.23	781.255
2213.48	731.055
2212.73	794.35
2211.98	787.546
2211.23	764.062
2210.48	813.976
2209.73	727.122
2208.98	767.022
2208.23	820.246
2207.48	730.099
2206.73	786.645
2205.98	819.843
2205.23	813.045
2204.48	799.586
2203.73	809.448
2202.98	772.68
2202.23	772.554
2201.48	819.039
2200.73	775.63
2199.98	785.488
2199.23	838.604
2198.48	815.176
2197.72	761.815
2196.97	788.3
2196.22	771.543
2195.47	804.667
2194.72	784.589
2193.97	830.996
2193.21	761.068
2192.46	767.589
2191.71	817.299
2190.96	823.808
2190.2	846.922
2189.45	840.142
2188.7	796.842
2187.94	783.433
2187.19	859.644
2186.44	819.681
2185.68	819.547
2184.93	779.603
2184.18	829.229
2183.42	829.093
2182.67	792.483
2181.91	785.723
2181.16	825.371
2180.41	845.121
2179.65	874.805
2178.9	864.723
2178.14	881.144
2177.39	874.375
2176.63	831.183
2175.88	854.223
2175.12	834.221
2174.37	774.506
2173.61	814.091
2172.86	860.281
2172.1	856.831
2171.34	879.845
2170.59	869.779
2169.83	833.264
2169.08	836.433
2168.32	839.601
2167.56	839.464
2166.81	872.37
2166.05	835.885
2165.29	872.084
2164.54	885.152
2163.78	881.705
2163.02	835.336
2162.27	894.62
2161.51	802.056
2160.75	887.727
2159.99	864.484
2159.23	854.445
2158.48	857.603
2157.72	854.165
2156.96	886.998
2156.2	876.962
2155.44	929.559
2154.69	863.491
2153.93	850.168
2153.17	873.092
2152.41	843.301
2151.65	853.043
2150.89	882.541
2150.13	902.151
2149.37	859.207
2148.61	885.397
2147.85	928.034
2147.09	848.913
2146.33	921.149
2145.57	822.32
2144.81	953.734
2144.05	891.101
2143.29	887.667
2142.53	907.244
2141.77	939.961
2141.01	956.237
2140.25	900.226
2139.49	919.788
2138.73	893.361
2137.97	939.189
2137.2	906.201
2136.44	929.031
2135.68	905.903
2134.92	846.683
2134.16	905.605
2133.4	934.982
2132.63	898.747
2131.87	934.674
2131.11	885.335
2130.35	881.911
2129.58	878.488
2128.82	927.505
2128.06	947.013
2127.29	910.818
2126.53	930.323
2125.77	943.271
2125	890.72
2124.24	923.315
2123.48	1001.73
2122.71	929.557
2121.95	942.495
2121.19	883.443
2120.42	961.813
2119.66	922.404
2118.89	918.981
2118.13	1046.35
2117.36	961.18
2116.6	974.097
2115.83	915.108
2115.07	950.902
2114.3	983.417
2113.54	842.79
2112.77	953.698
2112.01	894.761
2111.24	995.829
2110.48	927.111
2109.71	1018.35
2108.94	917.016
2108.18	956.019
2107.41	946.074
2106.64	972.013
2105.88	922.934
2105.11	948.867
2104.34	906.329
2103.58	964.853
2102.81	1013.58
2102.04	1039.48
2101.28	938.311
2100.51	964.217
2099.74	957.544
2098.97	970.411
2098.21	1015.83
2097.44	1012.41
2096.67	979.696
2095.9	986.043
2095.13	969.611
2094.36	956.439
2093.6	972.544
2092.83	965.88
2092.06	1024.25
2091.29	1004.57
2090.52	949.149
2089.75	994.492
2088.98	1026.82
2088.21	968.173
2087.44	1026.48
2086.67	1013.32
2085.9	1026.14
2085.13	977.274
2084.36	967.374
2083.59	960.723
2082.82	983.28
2082.05	979.873
2081.28	1067.3
2080.51	1021.72
2079.74	982.631
2078.97	1053.8
2078.2	1008.24
2077.43	1014.56
2076.65	1020.87
2075.88	985.06
2075.11	984.897
2074.34	978.256
2073.57	1016.96
2072.8	1055.65
2072.02	1084.61
2071.25	942.001
2070.48	1022.76
2069.71	986.994
2068.93	1058.01
2068.16	1041.66
2067.39	983.271
2066.61	983.108
2065.84	1070.25
2065.07	1040.97
2064.29	1014.94
2063.52	1060.02
2062.75	1063.08
2061.97	1024.13
2061.2	1101.49
2060.43	1033.48
2059.65	1030.08
2058.88	1097.71
2058.1	1055.57
2057.33	1036.03
2056.55	1000.36
2055.78	1090.53
2055	1035.51
2054.23	1041.79
2053.45	1051.29
2052.68	1009.2
2051.9	1050.95
2051.13	1028.21
2050.35	1011.93
2049.57	1050.42
2048.8	1043.81
2048.02	1008.2
2047.25	1037.02
2046.47	1098.03
2045.69	1055.99
2044.92	1091.23
2044.14	1094.26
2043.36	1026.51
2042.59	1081.03
2041.81	1000.43
2041.03	1080.67
2040.25	1064.42
2039.48	1064.24
2038.7	1076.92
2037.92	1092.82
2037.14	1137.63
2036.37	1098.88
2035.59	1079.42
2034.81	1076.03
2034.03	1107.97
2033.25	1085.31
2032.47	1094.76
2031.69	1110.63
2030.92	1107.23
2030.14	1065.33
2029.36	1039.49
2028.58	1141.97
2027.8	1135.36
2027.02	1083.87
2026.24	1064.45
2025.46	1144.42
2024.68	1067.3
2023.9	1108.79
2023.12	1102.19
2022.34	1130.84
2021.56	1175.5
2020.78	1168.9
2020	1111.07
2019.21	1155.7
2018.43	1117.1
2017.65	1104.12
2016.87	1103.93
2016.09	1164.53
2015.31	1122.76
2014.53	1135.36
2013.74	1147.97
2012.96	1157.37
2012.18	1160.37
2011.4	1150.59
2010.62	1166.38
2009.83	1121.45
2009.05	1201.13
2008.27	1146.63
2007.49	1216.7
2006.7	1139.87
2005.92	1088.6
2005.14	1177.79
2004.35	1065.9
2003.57	1097.63
2002.79	1189.96
2002	1173.82
2001.22	1103.46
2000.43	1128.79
1999.65	1141.35
1998.87	1166.66
1998.08	1220.65
1997.3	1137.6
1996.51	1220.24
1995.73	1108.55
1994.94	1229.39
1994.16	1140.02
1993.37	1171.67
1992.59	1254.25
1991.8	1152.19
1991.02	1164.72
1990.23	1151.8
1989.44	1154.79
1988.66	1189.59
1987.87	1237.09
1987.09	1176.47
1986.3	1214.43
1985.51	1236.48
1984.73	1182.24
1983.94	1226.53
1983.15	1194.56
1982.37	1165.77
1981.58	1175.1
1980.79	1190.79
1980	1181.06
1979.22	1142.77
1978.43	1212.41
1977.64	1304.23
1976.85	1234.21
1976.06	1157.87
1975.28	1211.6
1974.49	1268.48
1973.7	1189
1972.91	1249.04
1972.12	1236.15
1971.33	1220.1
1970.54	1178.71
1969.76	1197.52
1968.97	1225.83
1968.18	1219.29
1967.39	1244.42
1966.6	1247.37
1965.81	1168.03
1965.02	1246.96
1964.23	1246.75
1963.44	1224.4
1962.65	1195.72
1961.86	1274.59
1961.07	1242.76
1960.28	1242.55
1959.48	1286.6
1958.69	1251.62
1957.9	1260.89
1957.11	1194.33
1956.32	1213.08
1955.53	1219.2
1954.74	1212.68
1953.94	1263
1953.15	1256.47
1952.36	1246.79
1951.57	1170.84
1950.78	1284.24
1949.98	1290.34
1949.19	1198.65
1948.4	1255.21
1947.61	1232.93
1946.81	1346.23
1946.02	1336.54
1945.23	1304.8
1944.43	1251.02
1943.64	1225.6
1942.85	1278.95
1942.05	1272.44
1941.26	1281.67
1940.46	1316.09
1939.67	1268.65
1938.88	1303.06
1938.08	1290.26
1937.29	1352.97
1936.49	1330.72
1935.7	1327.35
1934.9	1286.25
1934.11	1245.16
1933.31	1241.81
1932.52	1288.75
1931.72	1285.39
1930.93	1373.16
1930.13	1325.8
1929.33	1297.31
1928.54	1312.8
1927.74	1306.3
1926.95	1274.68
1926.15	1315.28
1925.35	1286.81
1924.56	1387.01
1923.76	1352.27
1922.96	1326.95
1922.17	1285.95
1921.37	1367.27
1920.57	1345.09
1919.77	1310.39
1918.98	1404.2
1918.18	1382.03
1917.38	1325.39
1916.58	1318.91
1915.78	1334.35
1914.99	1406.15
1914.19	1387.13
1913.39	1349.33
1912.59	1320.93
1911.79	1339.49
1910.99	1354.91
1910.19	1417.26
1909.39	1373.23
1908.59	1419.91
1907.8	1400.91
1907	1344.4
1906.2	1375.43
1905.4	1381.46
1904.6	1324.97
1903.8	1437.23
1903	1362.02
1902.2	1346.17
1901.39	1370.93
1900.59	1389.43
1899.79	1389.2
1898.99	1295.33
1898.19	1320.08
1897.39	1413.47
1896.59	1338.36
1895.79	1335.01
1894.99	1422.11
1894.18	1434.35
1893.38	1384.22
1892.58	1390.23
1891.78	1405.58
1890.98	1314.97
1890.17	1401.99
1889.37	1420.44
1888.57	1323.66
1887.76	1395.06
1886.96	1401.05
1886.16	1366.57
1885.36	1391.24
1884.55	1375.45
1883.75	1440.56
1882.94	1399.87
1882.14	1436.96
1881.34	1390.08
1880.53	1389.84
1879.73	1342.98
1878.92	1432.89
1878.12	1354.96
1877.32	1410.66
1876.51	1391.78
1875.71	1397.76
1874.9	1493.8
1874.1	1453.18
1873.29	1502.61
1872.49	1368.89
1871.68	1477.28
1870.87	1439.8
1870.07	1448.86
1869.26	1414.5
1868.46	1380.14
1867.65	1469.84
1866.84	1450.99
1866.04	1441.45
1865.23	1512.49
1864.42	1434.77
1863.62	1450.02
1862.81	1452.87
1862	1480.5
1861.2	1486.45
1860.39	1541.93
1859.58	1510.71
1858.77	1488.79
1857.96	1352.38
1857.16	1463.54
1856.35	1469.48
1855.54	1398.09
1854.73	1515.38
1853.92	1484.2
1853.12	1545.78
1852.31	1421.88
1851.5	1511.27
1850.69	1461.57
1849.88	1433.52
1849.07	1390.03
1848.26	1439.22
1847.45	1457.5
1846.64	1494.3
1845.83	1552.7
1845.02	1586.39
1844.21	1388.63
1843.4	1453.19
1842.59	1493.05
1841.78	1508.22
1840.97	1455.54
1840.16	1538.54
1839.35	1525.95
1838.54	1522.61
1837.72	1596.32
1836.91	1488.21
1836.1	1568.06
1835.29	1540.07
1834.48	1509.02
1833.67	1518
1832.85	1545.45
1832.04	1465.16
1831.23	1578.78
1830.42	1547.75
1829.6	1424.43
1828.79	1553.38
1827.98	1516.21
1827.17	1552.85
1826.35	1552.59
1825.54	1469.33
1824.73	1601.24
1823.91	1548.73
1823.1	1563.84
1822.29	1591.22
1821.47	1508.02
1820.66	1590.68
1819.84	1501.38
1819.03	1556.38
1818.21	1531.56
1817.4	1592.68
1816.58	1531.05
1815.77	1469.43
1814.95	1493.72
1814.14	1511.87
1813.32	1551.48
1812.51	1545.08
1811.69	1563.21
1810.88	1584.4
1810.06	1620.9
1809.25	1547.11
1808.43	1583.6
1807.61	1574.15
1806.8	1524.89
1805.98	1653.21
1805.16	1515.19
1804.35	1576.14
1803.53	1603.42
1802.71	1511.36
1801.89	1569.23
1801.08	1669.89
1800.26	1541.18
1799.44	1528.69
1798.62	1580.4
1797.81	1595.41
1796.99	1595.14
1796.17	1649.87
1795.35	1643.48
1794.53	1615.71
1793.71	1633.76
1792.9	1657.91
1792.08	1605.74
1791.26	1666.51
1790.44	1550.26
1789.62	1653.74
1788.8	1604.65
1787.98	1586.08
1787.16	1576.66
1786.34	1686.17
1785.52	1667.59
1784.7	1691.69
1783.88	1627.41
1783.06	1621.04
1782.24	1590.3
1781.42	1617.44
1780.6	1735.95
1779.78	1641.26
1778.95	1680.56
1778.13	1637.66
1777.31	1582.6
1776.49	1688.83
1775.67	1636.83
1774.85	1743.02
1774.02	1663.65
1773.2	1675.53
1772.38	1666.12
1771.56	1744.88
1770.74	1695.95
1769.91	1634.89
1769.09	1661.96
1768.27	1676.87
1767.44	1646.21
1766.62	1639.86
1765.8	1672.98
1764.97	1775.91
1764.15	1690.62
1763.33	1702.48
1762.5	1623.3
1761.68	1741.34
1760.85	1722.84
1760.03	1801.4
1759.21	1782.9
1758.38	1718.94
1757.56	1751.99
1756.73	1812.3
1755.91	1915.02
1755.08	1696.57
1754.26	1829.56
1753.43	1705.08
1752.6	1807.74
1751.78	1795.32
1750.95	1910.05
1750.13	1855.25
1749.3	1870.06
1748.47	1890.92
1747.65	1872.45
1746.82	1899.36
1745.99	1968.58
1745.17	2004.53
1744.34	2137.2
1743.51	2085.46
1742.69	2124.39
1741.86	2190.5
1741.03	2298.88
1740.2	2374
1739.38	2455.13
1738.55	2484.91
1737.72	2556.94
1736.89	2634.98
1736.06	2782.4
1735.23	2712.53
1734.4	2929.28
1733.58	2922.75
1732.75	2997.65
1731.92	3039.35
1731.09	3056.93
1730.26	3222.19
1729.43	3143.28
1728.6	3245.2
1727.77	3316.95
1726.94	3301.33
1726.11	3409.19
1725.28	3212.88
1724.45	3368.89
1723.62	3380.36
1722.79	3373.77
1721.96	3379.21
1721.13	3309.44
1720.3	3317.9
1719.46	3362.45
1718.63	3139.36
1717.8	3105.75
1716.97	3165.35
1716.14	3083.66
1715.31	2878.8
1714.47	2866.29
1713.64	2745.64
1712.81	2664.08
1711.98	2627.59
1711.14	2338.91
1710.31	2449.59
1709.48	2257.08
1708.65	2241.69
1707.81	2121.29
1706.98	2105.93
1706.15	2042.59
1705.31	2051.24
1704.48	1966.93
1703.64	2008.57
1702.81	1945.28
1701.98	1989.9
1701.14	2004.55
1700.31	1953.28
1699.47	1922.99
1698.64	1940.63
1697.8	1889.4
1696.97	1868.12
1696.13	1906.72
1695.3	1927.34
1694.46	1974.89
1693.63	1851.89
1692.79	1833.63
1691.95	1878.18
1691.12	1898.79
1690.28	1949.29
1689.45	2044.61
1688.61	1873.91
1687.77	2020.01
1686.94	1786.63
1686.1	1878.93
1685.26	1851.73
1684.42	1902.18
1683.59	1886.92
1682.75	1844.81
1681.91	1895.24
1681.07	1891.93
1680.24	1858.79
1679.4	2001.66
1678.56	1876.05
1677.72	1890.64
1676.88	1890.32
1676.04	1910.86
1675.21	1955.24
1674.37	1847.63
1673.53	1865.19
1672.69	1969.14
1671.85	1903.28
1671.01	1861.26
1670.17	1866.9
1669.33	1890.4
1668.49	1904.96
1667.65	1895.7
1666.81	1928.11
1665.97	1898.03
1665.13	1778.73
1664.29	1921.17
1663.45	1825.7
1662.61	1849.17
1661.77	1985.59
1660.92	1851.51
1660.08	1943.31
1659.24	1880.59
1658.4	1853.53
1657.56	1882.91
1656.72	1921.2
1655.87	1790.24
1655.03	1926.48
1654.19	1813.37
1653.35	1866.47
1652.5	1925.49
1651.66	1939.99
1650.82	1892.21
1649.98	1927.47
1649.13	1962.72
1648.29	1903.1
1647.45	1920.55
1646.6	1831.33
1645.76	1911.01
1644.91	1984.74
1644.07	1945.9
1643.23	1853.77
1642.38	1957.08
1641.54	1980.42
1640.69	2006.72
1639.85	1967.91
1639	1923.19
1638.16	2029.36
1637.31	1975.77
1636.47	1866.02
1635.62	1969.18
1634.78	1968.85
1633.93	1995.11
1633.08	2006.59
1632.24	2053.52
1631.39	2047.27
1630.55	2061.68
1629.7	2046.56
1628.85	2025.55
1628.01	2028.15
1627.16	2139.97
1626.31	2033.36
1625.46	2018.26
1624.62	2206.72
1623.77	2094.26
1622.92	2182.38
1622.07	2202.64
1621.23	2287.76
1620.38	2417.07
1619.53	2646.53
1618.68	2843.5
1617.83	3231.9
1616.98	3490.56
1616.13	4126.11
1615.29	4552.37
1614.44	4795.96
1613.59	5180.75
1612.74	5085.68
1611.89	5037.73
1611.04	4780.9
1610.19	4450.63
1609.34	4305.75
1608.49	3943.32
1607.64	3631
1606.79	3327.6
1605.94	3177.14
1605.09	3050.23
1604.24	2679.51
1603.38	2661.43
1602.53	2531.74
1601.68	2490.2
1600.83	2621.89
1599.98	2377.79
1599.13	2365.64
1598.27	2312.42
1597.42	2247.47
1596.57	2191.35
1595.72	2188.04
1594.87	2184.73
1594.01	2099.33
1593.16	2151.74
1592.31	2089.82
1591.45	2104.11
1590.6	2150.63
1589.75	2038.94
1588.89	2070.81
1588.04	2155.38
1587.19	1993.97
1586.33	2078.52
1585.48	2037.19
1584.62	2127.56
1583.77	2042.34
1582.92	2068.32
1582.06	2059.19
1581.21	2026.67
1580.35	2046.79
1579.5	2081.52
1578.64	1999.32
1577.78	2104.18
1576.93	2106.74
1576.07	2027.5
1575.22	2027.15
1574.36	2099.82
1573.51	2090.7
1572.65	2043.63
1571.79	2060.79
1570.94	2112.97
1570.08	2045.49
1569.22	2027.63
1568.37	2079.79
1567.51	2015.27
1566.65	2064.5
1565.79	2116.62
1564.94	2116.26
1564.08	2072.18
1563.22	2013.54
1562.36	2039.41
1561.5	1986.63
1560.65	2032.89
1559.79	2087.87
1558.93	1985.61
1558.07	2060.95
1557.21	2080.97
1556.35	2080.61
1555.49	2048.25
1554.63	2123.53
1553.77	1980.65
1552.91	2070.45
1552.05	2020.67
1551.19	1973.81
1550.33	2037.42
1549.47	1976.04
1548.61	2091.92
1547.75	2030.55
1546.89	2004.06
1546.03	2053.09
1545.17	1927.88
1544.31	2032.06
1543.45	2133.29
1542.58	2060.38
1541.72	2100.64
1540.86	2149.6
1540	1981
1539.14	2119.86
1538.28	2070.2
1537.41	2020.56
1536.55	1979.64
1535.69	2014.07
1534.82	2155.7
1533.96	1969.92
1533.1	2018.82
1532.24	2079.29
1531.37	2003.65
1530.51	2113.31
1529.64	2060.85
1528.78	2109.69
1527.92	2008.06
1527.05	2059.78
1526.19	2157.77
1525.32	2154.51
1524.46	2177.27
1523.59	2116.18
1522.73	2063.79
1521.86	2089.44
1521	2126.64
1520.13	2085.83
1519.27	2172.13
1518.4	1995.59
1517.54	2084.75
1516.67	2055.52
1515.8	1971.46
1514.94	2072.13
1514.07	2097.74
1513.21	2085.84
1512.34	2073.94
1511.47	2085.12
1510.6	2093.41
1509.74	2081.52
1508.87	2069.63
1508	2089.44
1507.14	2086.2
1506.27	2172.27
1505.4	2010.59
1504.53	2188.8
1503.66	2104.92
1502.8	2113.19
1501.93	2127.22
1501.06	2190.17
1500.19	2137.99
1499.32	2065.7
1498.45	2099.86
1497.58	2053.48
1496.71	2090.51
1495.84	2130.4
1494.97	1966.18
1494.1	2003.2
1493.23	2126.42
1492.36	2137.54
1491.49	2194.62
1490.62	2047.77
1489.75	2122.08
1488.88	2130.32
1488.01	2144.31
1487.14	2026.26
1486.27	2080.43
1485.4	2114.5
1484.52	2254.7
1483.65	2059.28
1482.78	2070.39
1481.91	2187.58
1481.04	2190.07
1480.17	2069.32
1479.29	2094.75
1478.42	2168.88
1477.55	2119.81
1476.67	2082.21
1475.8	2233.62
1474.93	2175.97
1474.06	2098.3
1473.18	2183.8
1472.31	2192.01
1471.43	2157.3
1470.56	2185.53
1469.69	2190.87
1468.81	2096.12
1467.94	2192.97
1467.06	2126.84
1466.19	2137.91
1465.31	2226.12
1464.44	2208.59
1463.56	2145.36
1462.69	2176.41
1461.81	2278.84
1460.94	2321.27
1460.06	2232.37
1459.19	2289.07
1458.31	2200.21
1457.43	2288.28
1456.56	2313.55
1455.68	2267.52
1454.8	2267.13
1453.93	2315.2
1453.05	2329.06
1452.17	2271.65
1451.3	2228.51
1450.42	2299.35
1449.54	2239.13
1448.66	2321.34
1447.78	2255.44
1446.91	2200.95
1446.03	2311.59
1445.15	2265.65
1444.27	2307.94
1443.39	2244.95
1442.51	2264.47
1441.64	2335.19
1440.76	2243.78
1439.88	2237.7
1439	2322.6
1438.12	2282.4
1437.24	2378.63
1436.36	2196.37
1435.48	2272.69
1434.6	2181.4
1433.72	2203.74
1432.84	2251.63
1431.96	2188.78
1431.08	2216.79
1430.2	2219.24
1429.31	2295.47
1428.43	2195.78
1427.55	2232.27
1426.67	2175.16
1425.79	2191.8
1424.91	2182.91
1424.02	2094.66
1423.14	2170.82
1422.26	2147.77
1421.38	2147.4
1420.49	2251.83
1419.61	2208.95
1418.73	2228.39
1417.85	2185.54
1416.96	2253.09
1416.08	2261.19
1415.2	2314.56
1414.31	2254.74
1413.43	2319.41
1412.54	2256.79
1411.66	2270.53
1410.78	2459.55
1409.89	2329.1
1409.01	2359.78
1408.12	2370.67
1407.24	2265.73
1406.35	2358.55
1405.47	2222.58
1404.58	2281.49
1403.7	2295.21
1402.81	2145.21
1401.92	2218.21
1401.04	2175.5
1400.15	2175.12
1399.27	2169.1
1398.38	2233.59
1397.49	2224.74
1396.61	2303.29
1395.72	2226.79
1394.83	2279.94
1393.94	2248.55
1393.06	2253.8
1392.17	2135.1
1391.28	2219.21
1390.39	2238.54
1389.51	2142.43
1388.62	2220.87
1387.73	2161.38
1386.84	2149.75
1385.95	2163.44
1385.06	2196.82
1384.17	2266.74
1383.29	2162.31
1382.4	2350.3
1381.51	2214.96
1380.62	2242.68
1379.73	2259.15
1378.84	2303.71
1377.95	2247.13
1377.06	2249.54
1376.17	2229.49
1375.28	2223.49
1374.39	2315.73
1373.5	2250.78
1372.6	2236.36
1371.71	2247.19
1370.82	2263.63
1369.93	2296.89
1369.04	2302.09
1368.15	2240.01
1367.26	2228.41
1366.36	2250.44
1365.47	2264.06
1364.58	2258.06
1363.69	2123.22
1362.79	2215.26
1361.9	2248.48
1361.01	2222.89
1360.11	2236.5
1359.22	2163.34
1358.33	2134.98
1357.43	2198.96
1356.54	2254.51
1355.65	2296.07
1354.75	2220.17
1353.86	2281.29
1352.96	2152.31
1352.07	2224.6
1351.17	2199.06
1350.28	2243.38
1349.39	2195.5
1348.49	2206.29
1347.59	2191.94
1346.7	2172.01
1345.8	2202.34
1344.91	2218.7
1344.01	2293.65
1343.12	2265.35
1342.22	2172.91
1341.32	2141.85
1340.43	2266.95
1339.53	2155.04
1338.63	2171.39
1337.74	2274.12
1336.84	2279.3
1335.94	2281.68
1335.04	2292.43
1334.15	2286.45
1333.25	2210.87
1332.35	2204.92
1331.45	2246.29
1330.55	2282.07
1329.66	2281.67
1328.76	2217.29
1327.86	2297.56
1326.96	2202.6
1326.06	2405.2
1325.16	2240.75
1324.26	2248.7
1323.36	2284.44
1322.46	2345.16
1321.56	2333.64
1320.66	2277.68
1319.76	2416.14
1318.86	2285.21
1317.96	2318.13
1317.06	2353.8
1316.16	2372.82
1315.26	2391.83
1314.36	2469.09
1313.46	2452.01
1312.55	2545.87
1311.65	2489.97
1310.75	2492.31
1309.85	2558.39
1308.95	2591.2
1308.04	2651.7
1307.14	2595.83
1306.24	2678.47
1305.34	2683.54
1304.43	2638.77
1303.53	2657.69
1302.63	2679.36
1301.72	2606.94
1300.82	2670.12
1299.92	2617.09
1299.01	2613.86
1298.11	2660.42
1297.21	2886.68
1296.3	2803.24
1295.4	2913.31
1294.49	2979.13
1293.59	2868.08
1292.68	3019.52
1291.78	3021.75
1290.87	3035.03
1289.97	3122.85
1289.06	3078.13
1288.16	3124.52
1287.25	3143.29
1286.34	3054.44
1285.44	3128.39
1284.53	3064.4
1283.62	3143.84
1282.72	3044.02
1281.81	3015.92
1280.9	2987.83
1280	2888.09
1279.09	2939.94
1278.18	2950.44
1277.27	2894.83
1276.37	2762.14
1275.46	2830.49
1274.55	2829.99
1273.64	2790.96
1272.73	2751.94
1271.82	2743.2
1270.92	2712.46
1270.01	2656.97
1269.1	2708.76
1268.19	2647.79
1267.28	2683.06
1266.37	2605.63
1265.46	2583.19
1264.55	2486.57
1263.64	2639.97
1262.73	2515.9
1261.82	2515.46
1260.91	2468.34
1260	2440.46
1259.09	2440.03
1258.18	2379.23
1257.27	2441.91
1256.35	2422.28
1255.44	2364.26
1254.53	2352.87
1253.62	2251.01
1252.71	2352.04
1251.79	2354.37
1250.88	2288.19
1249.97	2348.06
1249.06	2259.99
1248.14	2333.54
1247.23	2311.22
1246.32	2269.74
1245.41	2414.43
1244.49	2362
1243.58	2268.54
1242.66	2309.18
1241.75	2308.78
1240.84	2305.64
1239.92	2305.23
1239.01	2288.42
1238.09	2268.88
1237.18	2249.35
1236.26	2224.36
1235.35	2338.72
1234.43	2300.06
1233.52	2184.95
1232.6	2239.17
1231.69	2211.48
1230.77	2336.65
1229.86	2232.53
1228.94	2341.29
1228.02	2245.38
1227.11	2296.82
1226.19	2217.32
1225.27	2214.2
1224.36	2205.63
1223.44	2199.79
1222.52	2215.75
1221.6	2201.74
1220.69	2234.04
1219.77	2190.07
1218.85	2282.28
1217.93	2265.54
1217.01	2216.13
1216.1	2253.85
1215.18	2209.91
1214.26	2223.12
1213.34	2247.21
1212.42	2230.5
1211.5	2257.3
1210.58	2205.24
1209.66	2278.25
1208.74	2253.38
1207.82	2206.78
1206.9	2306.93
1205.98	2200.57
1205.06	2202.9
1204.14	2205.23
1203.22	2291.73
1202.3	2207.16
1201.38	2252.91
1200.46	2219.95
1199.54	2279.25
1198.61	2232.73
1197.69	2275.73
1196.77	2231.94
1195.85	2199.01
1194.93	2293.5
1194	2276.84
1193.08	2181.58
1192.16	2308.54
1191.24	2281.05
1190.31	2294.18
1189.39	2285.65
1188.47	2301.5
1187.54	2330.87
1186.62	2211.36
1185.7	2281.33
1184.77	2356.69
1183.85	2294.05
1182.92	2304.46
1182	2439.27
1181.07	2409.1
1180.15	2478.96
1179.23	2481.22
1178.3	2402.41
1177.37	2553.29
1176.45	2463.69
1175.52	2460.56
1174.6	2481.72
1173.67	2532.58
1172.75	2426.85
1171.82	2415.63
1170.89	2434.09
1169.97	2460.64
1169.04	2287.56
1168.11	2319.52
1167.19	2340.68
1166.26	2210.85
1165.33	2304.81
1164.4	2290.92
1163.48	2309.38
1162.55	2300.89
1161.62	2176.57
1160.69	2200.42
1159.76	2261.96
1158.83	2304.64
1157.91	2312.31
1156.98	2244.61
1156.05	2187.7
1155.12	2257.27
1154.19	2254.18
1153.26	2294.12
1152.33	2315.22
1151.4	2293.31
1150.47	2268.71
1149.54	2359.68
1148.61	2262.53
1147.68	2272.87
1146.75	2218.75
1145.82	2180.75
1144.89	2277.03
1143.96	2324.95
1143.02	2313.8
1142.09	2399.27
1141.16	2278.1
1140.23	2385.01
1139.3	2306.79
1138.36	2397.57
1137.43	2314.02
1136.5	2391.35
1135.57	2407.01
1134.63	2395.86
1133.7	2542.81
1132.77	2395.01
1131.83	2477.62
1130.9	2453.08
1129.97	2506.19
1129.03	2564.64
1128.1	2526.72
1127.17	2649.37
1126.23	2592.71
1125.3	2624.35
1124.36	2666.68
1123.43	2658.18
1122.49	2695.14
1121.56	2662.58
1120.62	2795.75
1119.69	2720.43
1118.75	2733.3
1117.81	2754.19
1116.88	2638.85
1115.94	2683.78
1115.01	2731.36
1114.07	2632.1
1113.13	2652.99
1112.2	2556.45
1111.26	2745.42
1110.32	2747.6
1109.38	2693.77
1108.45	2674.62
1107.51	2652.82
1106.57	2593.7
1105.63	2633.22
1104.69	2702.03
1103.76	2589.65
1102.82	2661.11
1101.88	2634.01
1100.94	2620.22
1100	2555.86
1099.06	2448.93
1098.12	2592.21
1097.18	2535.87
1096.24	2463.58
1095.3	2484.42
1094.36	2561.11
1093.42	2542.04
1092.48	2456.51
1091.54	2602.27
1090.6	2500.81
1089.66	2481.77
1088.72	2433.51
1087.78	2435.73
1086.84	2443.26
1085.9	2384.41
1084.95	2426.46
1084.01	2407.45
1083.07	2393.75
1082.13	2406.59
1081.19	2326.57
1080.24	2342.07
1079.3	2307.18
1078.36	2381.01
1077.41	2362.03
1076.47	2348.35
1075.53	2387.69
1074.58	2379.31
1073.64	2362.99
1072.7	2248.68
1071.75	2293.3
1070.81	2343.19
1069.86	2334.83
1068.92	2358.24
1067.98	2368.4
1067.03	2315.06
1066.09	2187.67
1065.14	2269.27
1064.19	2221.27
1063.25	2363.64
1062.3	2334.14
1061.36	2317.87
1060.41	2291.03
1059.46	2290.62
1058.52	2311.34
1057.57	2318.85
1056.63	2347.49
1055.68	2315.38
1054.73	2254.26
1053.78	2280.25
1052.84	2351.08
1051.89	2345.39
1050.94	2310.68
1049.99	2336.64
1049.05	2388.96
1048.1	2377.98
1047.15	2356.47
1046.2	2334.97
1045.25	2313.47
1044.3	2381.55
1043.35	2383.76
1042.4	2285.89
1041.45	2375.01
1040.5	2429.87
1039.55	2368.89
1038.6	2389.52
1037.65	2331.21
1036.7	2315.01
1035.75	2361.94
1034.8	2458.82
1033.85	2361.09
1032.9	2363.3
1031.95	2457.5
1031	2372.96
1030.05	2443.48
1029.1	2390.5
1028.14	2426.84
1027.19	2434.29
1026.24	2357.71
1025.29	2404.54
1024.33	2404.11
1023.38	2353.82
1022.43	2358.65
1021.48	2342.48
1020.52	2389.27
1019.57	2386.22
1018.62	2401.53
1017.66	2374.88
1016.71	2382.32
1015.75	2274.46
1014.8	2368.37
1013.85	2333.89
1012.89	2443.47
1011.94	2364.47
1010.98	2335.25
1010.03	2363.63
1009.07	2389.37
1008.12	2365.39
1007.16	2359.74
1006.2	2377.62
1005.25	2324.89
1004.29	2415.99
1003.34	2493.99
1002.38	2375.92
1001.42	2409.46
1000.47	2456.06
999.508	2437.34
998.551	2366.38
997.594	2373.79
996.636	2428.19
995.679	2412.09
994.721	2375.12
993.763	2471.25
992.805	2335.13
991.846	2324.28
990.888	2360.37
989.929	2346.91
988.97	2343.88
988.011	2356.49
987.052	2361.28
986.093	2373.89
985.133	2415.15
984.173	2380.85
983.213	2349.17
982.253	2314.9
981.293	2327.5
980.333	2433.8
979.372	2305.84
978.411	2357.47
977.45	2328.43
976.489	2408.64
975.528	2387.4
974.566	2329.77
973.605	2337.15
972.643	2362.72
971.681	2398.68
970.719	2273.53
969.756	2413.4
968.794	2410.37
967.831	2448.89
966.868	2292.67
965.905	2354.56
964.942	2294.44
963.979	2340.73
963.015	2355.88
962.052	2347.67
961.088	2279.82
960.124	2336.46
959.159	2369.74
958.195	2296.73
957.23	2433.68
956.266	2409.92
955.301	2303.26
954.336	2390.92
953.37	2421.57
952.405	2374.52
951.439	2459.53
950.473	2360.73
949.507	2393.95
948.541	2385.75
947.575	2385.32
946.608	2421.1
945.642	2356.01
944.675	2347.83
943.708	2365.51
942.741	2463.3
941.773	2343.98
940.806	2454.66
939.838	2283.72
938.87	2342.71
937.902	2388.77
936.934	2491.62
935.965	2320.79
934.997	2446.84
934.028	2299.31
933.059	2275.67
932.09	2324.28
931.121	2473.45
930.151	2336.33
929.182	2374.58
928.212	2338.07
927.242	2378.88
926.272	2411.95
925.301	2468.2
924.331	2400.78
923.36	2444.13
922.389	2345.84
921.418	2360.86
920.447	2414.49
919.475	2478.39
918.504	2441.92
917.532	2454.34
916.56	2425.61
915.588	2450.89
914.616	2445.3
913.643	2401.16
912.671	2529.24
911.698	2469.68
910.725	2507.77
909.752	2502.18
908.779	2473.47
907.805	2552.64
906.831	2446.9
905.858	2474.7
904.883	2528.15
903.909	2530.26
902.935	2588.82
901.96	2631.96
900.986	2634.05
900.011	2656.65
899.036	2510.03
898.06	2663.38
897.085	2668.02
896.109	2598.35
895.133	2654.25
894.157	2533.37
893.181	2617.43
892.205	2619.52
891.229	2665.13
890.252	2656.97
889.275	2717.91
888.298	2776.27
887.321	2675.99
886.343	2716.43
885.366	2761.97
884.388	2830.51
883.41	2663.83
882.432	2791.14
881.454	2624.53
880.475	2693.04
879.497	2764.08
878.518	2835.1
877.539	2724.78
876.56	2754.92
875.58	2677.84
874.601	2628.86
873.621	2735.56
872.641	2712.1
871.661	2798.34
870.681	2744.28
869.701	2664.73
868.72	2768.78
867.739	2742.78
866.758	2811.1
865.777	2739.24
864.796	2825.37
863.815	2796.83
862.833	2979.69
861.851	2996.98
860.869	3144.09
859.887	3217.34
858.905	3344
857.922	3396.82
856.939	3279.19
855.956	3451.55
854.973	3420.41
853.99	3399.45
853.007	3345.44
852.023	3144.05
851.039	3153.64
850.055	3043.81
849.071	3028.02
848.087	3106.21
847.102	2960.9
846.118	2990.83
845.133	2832.9
844.148	2931.37
843.163	2819.18
842.177	2798.38
841.192	2858.75
840.206	2837.94
839.22	2746.14
838.234	2702.54
837.248	2773.02
836.261	2785.19
835.274	2782.15
834.288	2720.84
833.301	2776.07
832.313	2704.66
831.326	2678.85
830.339	2718.87
829.351	2743.68
828.363	2808.98
827.375	2856.54
826.387	2699.18
825.398	2777.1
824.409	2728.55
823.421	2730.58
822.432	2798.33
821.443	2739.69
820.453	2850.38
819.464	2738.7
818.474	2745.78
817.484	2851.35
816.494	2727.1
815.504	2746.8
814.513	2786.69
813.523	2778.61
812.532	2679.7
811.541	2787.69
810.55	2779.62
809.559	2663.11
808.567	2647.49
807.575	2715.08
806.583	2762.47
805.591	2835.05
804.599	2832.01
803.607	2735.77
802.614	2760.46
801.621	2674.34
800.628	2734.28
799.635	2653.22
798.642	2720.7
797.649	2667.36
796.655	2878.21
795.661	2804.73
794.667	2894.76
793.673	2760.96
792.678	2770.52
791.684	2775.04
790.689	2746.89
789.694	2691.11
788.699	2678.06
787.704	2647.43
786.708	2702.19
785.713	2533.47
784.717	2658.53
783.721	2537.57
782.724	2519.54
781.728	2566.75
780.731	2634.01
779.735	2538.23
778.738	2630.55
777.741	2665.17
776.743	2622.07
775.746	2689.26
774.748	2688.77
773.75	2540.46
772.752	2600.11
771.754	2559.57
770.756	2576.63
769.757	2501.05
768.758	2575.69
767.759	2535.17
766.76	2557.23
765.761	2619.31
764.761	2556.3
763.762	2450.8
762.762	2550.36
761.762	2539.9
760.762	2631.91
759.761	2546.47
758.761	2565.99
757.76	2635.47
756.759	2492.62
755.758	2607.03
754.756	2656.49
753.755	2566.14
752.753	2620.58
751.751	2655.03
750.749	2552.26
749.747	2733.88
748.745	2576.26
747.742	2673.04
746.739	2645.13
745.736	2629.69
744.733	2544.47
743.73	2676.07
742.726	2633.23
741.723	2630.26
740.719	2689.54
739.715	2484.88
738.71	2658.68
737.706	2600.95
736.701	2695.04
735.697	2555.22
734.692	2691.57
733.686	2693.56
732.681	2700.53
731.675	2695.06
730.67	2662.25
729.664	2646.85
728.658	2678.67
727.651	2670.73
726.645	2677.69
725.638	2731.83
724.631	2594.77
723.624	2668.77
722.617	2581.41
721.61	2707.5
720.602	2662.34
719.595	2634.56
718.587	2663.85
717.578	2757.59
716.57	2623.2
715.562	2711.96
714.553	2590.02
713.544	2668.84
712.535	2767.45
711.526	2680.25
710.516	2694.61
709.507	2773.36
708.497	2928.82
707.487	2784.72
706.477	2930.22
705.467	2843.08
704.456	3008.31
703.445	3141.33
702.434	3066.56
701.423	2994.3
700.412	2870.14
699.401	2807.82
698.389	2864.14
697.377	2942.68
696.365	2722.28
695.353	2716.84
694.34	2689.18
693.328	2789.92
692.315	2670.92
691.302	2677.83
690.289	2669.93
689.276	2800.2
688.262	2762.69
687.249	2648.73
686.235	2766.6
685.221	2699.53
684.206	2664.53
683.192	2659.11
682.177	2818.78
681.162	2734.5
680.147	2699.52
679.132	2708.87
678.117	2747.77
677.101	2737.41
676.086	2727.07
675.07	2645.36
674.054	2733.44
673.037	2772.3
672.021	2759.49
671.004	2702.43
669.987	2736.35
668.97	2757.97
667.953	2828.73
666.936	2697.98
665.918	2702.4
664.9	2746.12
663.882	2627.73
662.864	2681.27
661.846	2717.6
660.827	2643.46
659.808	2699.42
658.789	2750.45
657.77	2688.61
656.751	2754.34
655.731	2756.28
654.712	2741.07
653.692	2735.66
652.672	2823.39
651.652	2783.66
650.631	2699.85
649.611	2706.7
648.59	2718.45
647.569	2727.74
646.548	2751.72
645.526	2736.52
644.505	2797.2
643.483	2735.52
642.461	2801.06
641.439	2741.85
640.417	2844.05
639.394	2806.85
638.371	2808.78
637.348	2862.03
636.325	2956.8
635.302	3095.52
634.279	3287.92
633.255	3673.2
632.231	3577.29
631.207	3542.45
630.183	3290.38
629.159	3082.33
628.134	2808.48
627.109	2834.8
626.084	2926.96
625.059	2877.65
624.034	2852.73
623.008	2939.97
621.983	2834.62
620.957	2807.29
619.931	2892.05
618.904	2937.8
617.878	2798.43
616.851	2980.54
615.824	2748.7
614.797	2862.6
613.77	2830.44
612.743	2820.18
611.715	2788.03
610.687	2896.97
609.659	2835.64
608.631	2849.71
607.603	2776.25
606.574	2797.61
605.546	2799.52
604.517	2820.87
603.487	2805.78
602.458	2795.54
601.429	2833.88
600.399	2801.79
599.369	2837.69
598.339	2907.54
597.309	2831.78
596.278	2860.37
595.248	2910.78
594.217	2827.79
593.186	2853.94
592.155	2783.1
591.123	2811.67
590.091	2811.15
589.06	2735.52
588.028	2858.56
586.996	2821.7
585.963	2796.97
584.931	2840.03
583.898	2822.56
582.865	2817.2
581.832	2746.5
580.798	2898.41
579.765	2810.79
578.731	2819.95
577.697	2831.51
576.663	3007.47
575.629	2842.55
574.594	2740.52
573.56	2909.15
572.525	2860.3
571.49	2850.11
570.455	2827.85
569.419	2829.74
568.384	2747.14
567.348	2816.62
566.312	2806.44
565.276	2839.7
564.239	2853.65
563.203	2898.94
562.166	2876.7
561.129	2866.53
560.092	2856.35
559.054	2942.58
558.017	2886.62
556.979	2907.76
555.941	2926.49
554.903	2868.16
553.865	2764.09
552.826	2886.35
551.787	2753.44
550.749	2827.52
549.709	2776.47
548.67	2763.93
547.631	2799.49
546.591	2868.71
545.551	2740.76
544.511	2771.5
543.471	2840.68
542.43	2835.34
541.39	2882.86
540.349	2875.12
539.308	2922.62
538.267	2960.49
537.225	2979.15
536.184	2824.98
535.142	2882.05
534.1	2869.52
533.058	2866.59
532.015	2902.03
530.973	2695.27
529.93	2654.01
528.887	2718.24
527.844	2748.89
526.801	2762.76
525.757	2740.68
524.713	2824.01
523.669	2739.66
522.625	2727.18
521.581	2891.85
520.537	2853.02
519.492	2917.1
518.447	2930.91
517.402	2858.61
516.357	2743.27
515.311	2828.85
514.265	2847.45
513.22	2837.36
512.174	2726.89
511.127	2752.67
510.081	2737.82
509.034	2651.32
507.987	2617.4
506.94	2690.93
505.893	2616.42
504.846	2697.09
503.798	2593.97
502.75	2765.27
501.702	2728.98
500.654	2850.1
499.606	2775.65
