3200.54	4.20979
3199.95	12.6294
3199.35	25.2549
3198.76	8.41704
3198.16	33.6631
3197.57	4.20725
3196.98	12.6198
3196.38	21.0299
3195.79	12.616
3195.19	0
3194.6	12.6122
3194	46.2378
3193.41	25.2168
3192.81	12.6065
3192.22	12.6046
3191.62	8.40178
3191.03	12.6008
3190.43	20.9981
3189.84	29.3929
3189.24	33.5868
3188.65	25.1863
3188.05	4.19708
3187.45	16.7858
3186.86	12.5874
3186.26	29.3662
3185.67	12.5836
3185.07	12.5817
3184.47	25.1596
3183.88	8.38527
3183.28	12.576
3182.69	8.38273
3182.09	29.3351
3181.49	20.9505
3180.9	-4.18946
3180.3	12.5665
3179.7	-16.7528
3179.1	20.9378
3178.51	29.3085
3177.91	16.7452
3177.31	4.18566
3176.72	12.5551
3176.12	-16.7376
3175.52	8.36752
3174.92	16.7325
3174.33	16.73
3173.73	16.7274
3173.13	12.5437
3172.53	8.36119
3171.93	4.17996
3171.34	0
3170.74	16.7148
3170.14	12.5342
3169.54	12.5323
3168.94	41.7679
3168.34	12.5285
3167.74	20.8776
3167.15	12.5247
3166.55	8.34853
3165.95	20.8682
3165.35	12.519
3164.75	0
3164.15	25.0304
3163.55	20.8555
3162.95	4.17047
3162.35	12.5095
3161.75	16.6768
3161.15	20.8429
3160.55	37.5115
3159.95	33.3385
3159.35	16.6667
3158.75	0
3158.15	-4.16541
3157.55	4.16478
3156.95	12.4925
3156.35	4.16352
3155.75	8.32578
3155.15	12.4868
3154.55	0
3153.95	20.805
3153.35	41.6036
3152.75	41.5973
3152.15	24.9546
3151.54	4.15847
3150.94	12.4735
3150.34	37.4149
3149.74	0
3149.14	29.0916
3148.54	16.6213
3147.94	33.2375
3147.33	4.15406
3146.73	24.9206
3146.13	0
3145.53	41.5216
3144.93	16.6061
3144.32	4.1509
3143.72	8.30055
3143.12	8.29929
3142.52	29.0431
3141.91	8.29677
3141.31	12.4433
3140.71	41.4712
3140.1	8.29299
3139.5	24.8752
3138.9	12.4357
3138.29	24.8676
3137.69	24.8639
3137.09	20.7167
3136.48	16.5709
3135.88	12.4263
3135.28	0
3134.67	16.5633
3134.07	33.1216
3133.47	12.4187
3132.86	12.4168
3132.26	24.8299
3131.65	28.9638
3131.05	0
3130.45	12.4093
3129.84	24.8148
3129.24	37.2165
3128.63	41.3454
3128.03	8.26783
3127.42	8.26657
3126.82	12.398
3126.21	16.5281
3125.61	28.9198
3125	16.5231
3124.4	8.26029
3123.79	37.1657
3123.19	8.25778
3122.58	8.25652
3121.97	12.3829
3121.37	12.381
3120.76	20.6319
3120.16	28.8803
3119.55	28.8759
3118.94	24.747
3118.34	16.4955
3117.73	20.6162
3117.13	8.24523
3116.52	4.12199
3115.91	16.4854
3115.31	12.3622
3114.7	12.3603
3114.09	32.9558
3113.48	16.4754
3112.88	8.23645
3112.27	28.8232
3111.66	20.5849
3111.06	16.4654
3110.45	16.4629
3109.84	12.3453
3109.23	24.6868
3108.63	16.4554
3108.02	-4.11321
3107.41	32.9007
3106.8	24.6718
3106.19	-8.22267
3105.59	8.22142
3104.98	36.9908
3104.37	8.21892
3103.76	24.653
3103.15	16.4328
3102.54	12.3227
3101.93	16.4278
3101.33	8.21266
3100.72	24.6342
3100.11	24.6305
3099.5	12.3134
3098.89	8.20766
3098.28	24.6192
3097.67	0
3097.06	24.6117
3096.45	36.912
3095.84	45.1077
3095.23	16.4003
3094.62	32.7956
3094.01	53.2848
3093.4	-4.09821
3092.79	40.9758
3092.18	32.7756
3091.57	12.289
3090.96	40.9571
3090.35	40.9508
3089.74	16.3778
3089.13	28.6568
3088.52	32.7457
3087.91	49.111
3087.3	8.18392
3086.69	73.6441
3086.08	44.9979
3085.46	49.0811
3084.85	57.2525
3084.24	49.0661
3083.63	69.4997
3083.02	32.7008
3082.41	81.7394
3081.79	61.2952
3081.18	69.4573
3080.57	73.5318
3079.96	77.6051
3079.35	44.9224
3078.73	65.3317
3078.12	73.487
3077.51	77.5577
3076.9	57.1391
3076.28	81.6148
3075.67	69.362
3075.06	44.8745
3074.45	57.1042
3073.83	61.1738
3073.22	28.5434
3072.61	24.462
3071.99	61.1457
3071.38	44.8334
3070.77	40.7514
3070.15	52.9687
3069.54	44.8128
3068.93	73.3189
3068.31	36.6538
3067.7	65.1524
3067.08	44.7855
3066.47	48.8494
3065.86	48.842
3065.24	36.6259
3064.63	24.4135
3064.01	36.6147
3063.4	16.2707
3062.78	48.8047
3062.17	44.7308
3061.55	32.5265
3060.94	60.9779
3060.32	12.1937
3059.71	28.4476
3059.09	28.4433
3058.48	24.3762
3057.86	28.4346
3057.25	36.5532
3056.63	32.4868
3056.02	48.7227
3055.4	60.894
3054.78	24.3539
3054.17	24.3502
3053.55	12.1732
3052.94	-16.2285
3052.32	24.339
3051.7	8.11176
3051.09	28.3868
3050.47	0
3049.85	44.5942
3049.24	24.3204
3048.62	24.3167
3048	12.1565
3047.39	20.2577
3046.77	0
3046.15	4.0503
3045.53	24.2981
3044.92	24.2944
3044.3	-8.09689
3043.68	16.1913
3043.06	36.4248
3042.45	20.2329
3041.83	24.2758
3041.21	24.2721
3040.59	32.3578
3039.97	16.1764
3039.35	40.4349
3038.74	52.5573
3038.12	4.04225
3037.5	20.2082
3036.88	32.3281
3036.26	12.1212
3035.64	12.1193
3035.02	20.1958
3034.41	4.03854
3033.79	16.1517
3033.17	44.4103
3032.55	16.1467
3031.93	-4.03607
3031.31	20.1772
3030.69	16.1393
3030.07	24.2053
3029.45	0
3028.83	0
3028.21	16.1294
3027.59	44.3492
3026.97	12.0934
3026.35	-4.03051
3025.73	32.2391
3025.11	52.3805
3024.49	0
3023.87	28.1963
3023.25	36.2468
3022.63	12.0804
3022	40.2618
3021.38	40.2557
3020.76	12.0749
3020.14	24.146
3019.52	4.02372
3018.9	20.1155
3018.28	-4.02248
3017.66	12.0656
3017.03	28.1487
3016.41	12.0619
3015.79	44.2202
3015.17	32.1552
3014.55	24.1127
3013.92	20.0908
3013.3	44.1931
3012.68	28.1185
3012.06	16.0653
3011.43	32.1256
3010.81	20.0754
3010.19	56.2026
3009.57	28.097
3008.94	40.1324
3008.32	36.1136
3007.7	28.0841
3007.07	36.1025
3006.45	8.02155
3005.83	24.061
3005.2	12.0286
3004.58	24.0536
3003.96	56.1164
3003.33	16.0308
3002.71	56.0992
3002.08	72.1164
3001.46	40.0585
3000.84	32.0419
3000.21	56.0647
2999.59	24.0241
2998.96	28.0238
2998.34	32.0222
2997.71	36.0195
2997.09	68.0264
2996.46	40.0094
2995.84	36.0029
2995.21	39.9971
2994.59	47.9891
2993.96	35.9863
2993.34	23.9872
2992.71	31.978
2992.09	47.9596
2991.46	19.9801
2990.84	23.9724
2990.21	63.9167
2989.58	47.9302
2988.96	31.9485
2988.33	31.9436
2987.71	23.954
2987.08	39.9173
2986.45	55.8756
2985.83	39.905
2985.2	43.8887
2984.57	39.8927
2983.95	47.8639
2983.32	67.7968
2982.69	39.8743
2982.07	47.8418
2981.44	39.8621
2980.81	31.8847
2980.18	27.8949
2979.56	31.8749
2978.93	67.7238
2978.3	31.8651
2977.67	71.6855
2977.05	59.7288
2976.42	55.7383
2975.79	43.7876
2975.16	67.6614
2974.53	55.7126
2973.91	39.7886
2973.28	59.6737
2972.65	63.6421
2972.02	83.5174
2971.39	63.6225
2970.76	71.5643
2970.13	71.5533
2969.5	79.4914
2968.88	59.6094
2968.25	63.5736
2967.62	75.482
2966.99	67.5261
2966.36	79.4303
2965.73	75.4471
2965.1	83.3761
2964.47	67.4846
2963.84	83.3504
2963.21	75.4007
2962.58	107.132
2961.95	103.148
2961.32	71.3992
2960.69	87.2523
2960.06	55.5156
2959.43	111.014
2958.8	103.069
2958.17	79.2714
2957.53	55.4814
2956.9	87.1717
2956.27	83.1965
2955.64	87.1448
2955.01	95.0524
2954.38	98.9977
2953.75	67.3081
2953.12	95.0085
2952.48	71.2454
2951.85	98.9367
2951.22	31.6549
2950.59	83.0812
2949.96	83.0684
2949.33	83.0556
2948.69	83.0428
2948.06	75.1224
2947.43	71.1576
2946.8	67.194
2946.16	59.2797
2945.53	55.3192
2944.9	59.2614
2944.26	55.3021
2943.63	82.9404
2943	47.3872
2942.37	39.4833
2941.73	31.5817
2941.1	31.5769
2940.47	31.572
2939.83	43.4048
2939.2	39.4528
2938.56	55.2254
2937.93	39.4406
2937.3	47.3215
2936.66	19.7142
2936.03	23.6534
2935.39	27.5914
2934.76	23.6461
2934.13	31.5233
2933.49	23.6388
2932.86	11.8176
2932.22	15.7544
2931.59	11.8139
2930.95	39.3737
2930.32	47.2412
2929.68	31.4893
2929.05	55.0977
2928.41	31.4795
2927.78	11.803
2927.14	23.6024
2926.5	27.5318
2925.87	23.5951
2925.23	35.3871
2924.6	31.4504
2923.96	23.5841
2923.32	27.5106
2922.69	7.85895
2922.05	27.5021
2921.42	51.0674
2920.78	39.2766
2920.14	35.3434
2919.51	3.92644
2918.87	23.555
2918.23	27.4766
2917.6	19.6231
2916.96	19.6201
2916.32	27.4639
2915.68	39.228
2915.05	39.222
2914.41	54.9023
2913.77	23.5259
2913.13	3.92038
2912.5	39.1977
2911.86	39.1917
2911.22	31.3485
2910.58	23.5077
2909.94	15.6694
2909.31	15.667
2908.67	46.9936
2908.03	35.2398
2907.39	39.1492
2906.75	23.4859
2906.11	31.3097
2905.47	35.218
2904.83	35.2125
2904.2	11.7357
2903.56	19.5565
2902.92	31.2855
2902.28	66.4714
2901.64	15.6379
2901	27.3621
2900.36	31.2661
2899.72	15.6307
2899.08	46.8847
2898.44	23.4387
2897.8	23.4351
2897.16	19.5262
2896.52	19.5232
2895.88	11.7121
2895.24	39.0343
2894.6	23.417
2893.96	39.0222
2893.32	27.3113
2892.67	54.6142
2892.03	54.6057
2891.39	7.79961
2890.75	19.496
2890.11	38.986
2889.47	42.8779
2888.83	50.6661
2888.19	38.9679
2887.54	62.3389
2886.9	50.6425
2886.26	42.8447
2885.62	27.2606
2884.98	42.8315
2884.33	46.718
2883.69	19.4628
2883.05	27.2437
2882.41	15.5654
2881.77	27.2353
2881.12	23.3409
2880.48	19.4477
2879.84	15.5558
2879.19	31.1067
2878.55	42.7651
2877.91	38.8714
2877.26	38.8653
2876.62	50.5171
2875.98	27.1973
2875.33	54.3862
2874.69	38.8412
2874.05	19.4176
2873.4	19.4146
2872.76	15.5293
2872.11	54.344
2871.47	31.0489
2870.83	19.4026
2870.18	42.679
2869.54	19.3965
2868.89	38.7871
2868.25	27.1467
2867.6	50.4075
2866.96	-7.7538
2866.31	34.8867
2865.67	15.5028
2865.02	23.2506
2864.38	-7.74899
2863.73	27.1172
2863.09	42.6062
2862.44	19.3635
2861.8	50.3372
2861.15	30.9719
2860.5	23.2253
2859.86	30.9623
2859.21	11.6091
2858.57	19.3454
2857.92	58.0273
2857.27	30.9431
2856.63	15.4691
2855.98	15.4667
2855.33	27.0626
2854.69	15.4619
2854.04	61.8381
2853.39	30.9142
2852.75	57.9552
2852.1	23.1785
2851.45	19.3124
2850.81	3.86188
2850.16	15.4451
2849.51	15.4427
2848.86	-3.86008
2848.21	11.5784
2847.57	27.0122
2846.92	11.5748
2846.27	23.1461
2845.62	38.5708
2844.97	38.5648
2844.33	34.7029
2843.68	34.6975
2843.03	11.5641
2842.38	23.1245
2841.73	15.4139
2841.08	46.2346
2840.43	23.1137
2839.78	46.2203
2839.14	0
2838.49	11.5515
2837.84	26.9492
2837.19	34.6436
2836.54	57.7304
2835.89	38.481
2835.24	3.8475
2834.59	11.5407
2833.94	46.1556
2833.29	26.9199
2832.64	19.2255
2831.99	38.445
2831.34	11.5317
2830.69	15.3732
2830.04	26.899
2829.39	15.3684
2828.74	57.6227
2828.08	23.0455
2827.43	15.3613
2826.78	26.878
2826.13	11.5174
2825.48	7.67705
2824.83	53.731
2824.18	-15.3493
2823.53	42.2041
2822.87	15.3445
2822.22	30.6843
2821.57	38.3494
2820.92	19.1717
2820.27	7.66749
2819.61	3.83315
2818.96	22.9953
2818.31	22.9917
2817.66	38.3136
2817	45.9691
2816.35	26.8112
2815.7	0
2815.05	11.4869
2814.39	38.2838
2813.74	3.82778
2813.09	26.7903
2812.43	26.7861
2811.78	34.4339
2811.13	7.65079
2810.47	42.0728
2809.82	30.5936
2809.16	45.8833
2808.51	34.4071
2807.86	30.5793
2807.2	26.7527
2806.55	19.1061
2805.89	42.0269
2805.24	34.3803
2804.58	30.5555
2803.93	38.1884
2803.28	49.6372
2802.62	30.5412
2801.97	53.4387
2801.31	49.6139
2800.66	11.4476
2800	34.3374
2799.34	41.9614
2798.69	0
2798.03	3.81348
2797.38	38.1289
2796.72	26.686
2796.07	26.6819
2795.41	49.5443
2794.75	22.863
2794.1	22.8595
2793.44	53.3304
2792.79	30.4698
2792.13	19.0406
2791.47	49.4979
2790.82	30.4555
2790.16	19.0317
2789.5	30.446
2788.84	34.2464
2788.19	19.0228
2787.53	30.4318
2786.87	7.60675
2786.22	34.225
2785.56	34.2197
2784.9	45.6191
2784.24	15.204
2783.59	34.2037
2782.93	34.1983
2782.27	45.5906
2781.61	45.5835
2780.95	7.59606
2780.29	34.1769
2779.64	11.3905
2778.98	34.1663
2778.32	26.5696
2777.66	26.5655
2777	49.3281
2776.34	53.1143
2775.68	56.8993
2775.02	18.9635
2774.36	41.7131
2773.71	22.749
2773.05	37.9092
2772.39	34.1129
2771.73	37.8973
2771.07	30.3131
2770.41	18.9427
2769.75	37.8795
2769.09	30.2989
2768.43	45.4412
2767.77	60.5788
2767.11	30.2847
2766.45	41.6349
2765.79	18.922
2765.12	11.3514
2764.46	49.1818
2763.8	15.1305
2763.14	22.6922
2762.48	0
2761.82	22.6851
2761.16	22.6815
2760.5	30.2373
2759.83	26.4535
2759.17	26.4494
2758.51	34.001
2757.85	15.1092
2757.19	26.437
2756.53	52.8657
2755.86	52.8574
2755.2	-3.77494
2754.54	41.5178
2753.88	33.9638
2753.21	33.9585
2752.55	22.6354
2751.89	33.9478
2751.23	37.7139
2750.56	18.854
2749.9	0
2749.24	37.6962
2748.57	33.9213
2747.91	45.2213
2747.25	0
2746.58	30.1381
2745.92	45.2
2745.25	26.3625
2744.59	22.5929
2743.93	22.5894
2743.26	52.7003
2742.6	45.1646
2741.93	18.8156
2741.27	37.6254
2740.61	52.6673
2739.94	33.8522
2739.28	18.8039
2738.61	45.1222
2737.95	33.8363
2737.28	56.385
2736.62	3.75841
2735.95	37.5782
2735.29	71.3874
2734.62	18.7832
2733.95	11.2682
2733.29	45.0656
2732.62	41.3037
2731.96	22.5257
2731.29	37.537
2730.62	15.0124
2729.96	30.0202
2729.29	18.7597
2728.63	30.0108
2727.96	18.7538
2727.29	30.0013
2726.63	33.7462
2725.96	71.2308
2725.29	18.742
2724.62	29.9825
2723.96	26.2306
2723.29	29.9731
2722.62	33.7145
2721.96	14.9819
2721.29	37.4488
2720.62	14.9771
2719.95	18.7185
2719.28	52.4036
2718.62	11.2276
2717.95	29.9355
2717.28	22.4481
2716.61	26.1853
2715.94	22.441
2715.27	22.4375
2714.61	18.695
2713.94	44.8609
2713.27	52.3296
2712.6	29.8979
2711.93	22.4199
2711.26	26.1524
2710.59	44.8257
2709.92	37.3489
2709.25	14.9372
2708.58	37.3372
2707.91	33.5982
2707.24	41.058
2706.57	7.46391
2705.9	29.851
2705.23	22.3847
2704.56	33.5718
2703.89	41.0257
2703.22	29.8322
2702.55	37.2844
2701.88	44.7342
2701.21	26.0909
2700.54	48.4468
2699.87	37.2609
2699.2	33.5296
2698.53	22.3495
2697.86	29.7947
2697.19	40.9613
2696.51	48.4012
2695.84	48.3935
2695.17	22.332
2694.5	22.3285
2693.83	22.3249
2693.15	29.7619
2692.48	44.6358
2691.81	18.5953
2691.14	52.0588
2690.47	22.3074
2689.79	11.1519
2689.12	40.884
2688.45	48.3099
2687.77	44.5867
2687.1	33.4348
2686.43	37.1439
2685.76	37.138
2685.08	33.419
2684.41	29.7011
2683.74	44.5446
2683.06	7.42293
2682.39	29.687
2681.71	51.9442
2681.04	37.0971
2680.37	55.6369
2679.69	48.2111
2679.02	33.3716
2678.34	25.9516
2677.67	18.534
2676.99	44.4745
2676.32	29.645
2675.65	14.8202
2674.97	51.8624
2674.3	25.9271
2673.62	55.5493
2672.95	62.946
2672.27	44.4255
2671.59	44.4185
2670.92	29.6076
2670.24	33.3034
2669.57	29.5983
2668.89	25.8944
2668.22	44.3835
2667.54	25.8863
2666.86	11.0924
2666.19	29.575
2665.51	18.4815
2664.83	14.7828
2664.16	48.0366
2663.48	48.0291
2662.8	44.3275
2662.13	-7.38676
2661.45	18.464
2660.77	22.1533
2660.1	40.6079
2659.42	40.6015
2658.74	44.2856
2658.06	18.4494
2657.39	29.5144
2656.71	47.9534
2656.03	14.7526
2655.35	62.6885
2654.68	58.9916
2654	33.1775
2653.32	22.1149
2652.64	44.2227
2651.96	29.4772
2651.28	55.261
2650.6	29.4679
2649.93	36.829
2649.25	14.7293
2648.57	44.1809
2647.89	25.7681
2647.21	18.4029
2646.53	29.44
2645.85	44.153
2645.17	29.4307
2644.49	44.139
2643.81	29.4214
2643.13	44.1251
2642.45	62.5007
2641.77	33.0834
2641.09	66.1563
2640.41	33.0729
2639.73	33.0677
2639.05	33.0625
2638.37	22.0382
2637.69	55.0867
2637.01	3.67187
2636.33	25.699
2635.65	25.6949
2634.96	36.7013
2634.28	25.6868
2633.6	51.3655
2632.92	11.0052
2632.24	44.0137
2631.56	47.6739
2630.88	32.9998
2630.19	43.9928
2629.51	10.9965
2628.83	40.314
2628.15	54.9649
2627.46	32.9737
2626.78	65.937
2626.1	51.2763
2625.42	40.2821
2624.73	47.5986
2624.05	51.2519
2623.37	43.9233
2622.69	36.5969
2622	62.2049
2621.32	29.2683
2620.64	51.2114
2619.95	25.6016
2619.27	51.1952
2618.58	36.5622
2617.9	40.2121
2617.22	43.8608
2616.53	40.1993
2615.85	36.5391
2615.16	40.1866
2614.48	51.1385
2613.79	65.7391
2613.11	65.7287
2612.43	47.4632
2611.74	21.9026
2611.06	36.4986
2610.37	43.7914
2609.69	72.9741
2609	58.37
2608.31	36.4755
2607.63	47.4106
2606.94	58.3423
2606.26	32.8123
2605.57	61.969
2604.89	72.8932
2604.2	43.729
2603.51	61.9396
2602.83	61.9298
2602.14	36.4235
2601.45	36.4177
2600.77	36.412
2600.08	65.5311
2599.39	58.2407
2598.71	47.313
2598.02	50.9444
2597.33	32.7448
2596.65	65.4792
2595.96	61.8317
2595.27	54.5487
2594.58	36.36
2593.9	29.0834
2593.21	43.6182
2592.52	50.8798
2591.83	54.5055
2591.14	36.3312
2590.46	25.4278
2589.77	36.3197
2589.08	36.3139
2588.39	72.6163
2587.7	50.8234
2587.01	47.1857
2586.32	39.92
2585.64	58.0562
2584.95	47.1632
2584.26	58.0378
2583.57	21.7607
2582.88	29.0097
2582.19	25.3794
2581.5	36.2506
2580.81	54.3673
2580.12	39.863
2579.43	32.61
2578.74	43.4731
2578.05	65.1993
2577.36	21.7297
2576.67	43.4524
2575.98	32.5841
2575.29	28.9591
2574.6	47.051
2573.91	39.8061
2573.22	57.8906
2572.52	57.8814
2571.83	68.7232
2571.14	54.2465
2570.45	54.2379
2569.76	39.7682
2569.07	46.9913
2568.38	43.3697
2567.68	32.5221
2566.99	50.5819
2566.3	43.349
2565.61	50.5658
2564.92	39.7239
2564.22	39.7176
2563.53	57.7619
2562.84	7.21909
2562.14	36.0897
2561.45	61.3428
2560.76	43.2939
2560.07	46.8943
2559.37	14.4267
2558.68	32.4549
2557.99	43.2664
2557.29	46.8644
2556.6	43.2526
2555.91	50.4533
2555.21	43.2388
2554.52	36.0266
2553.82	32.4188
2553.13	54.0228
2552.44	54.0142
2551.74	50.4052
2551.05	21.5988
2550.35	21.5954
2549.66	17.9933
2548.96	21.5885
2548.27	53.9626
2547.57	46.7602
2546.88	71.9273
2546.18	50.3411
2545.49	50.3331
2544.79	46.7304
2544.1	57.5052
2543.4	17.9675
2542.7	39.5222
2542.01	53.8854
2541.31	28.7343
2540.62	43.0946
2539.92	32.3158
2539.22	46.6709
2538.53	35.895
2537.83	53.8339
2537.13	53.8253
2536.44	64.5801
2535.74	32.2849
2535.04	53.7996
2534.35	57.3771
2533.65	78.881
2532.95	21.5096
2532.25	43.0123
2531.56	25.0865
2530.86	68.0811
2530.16	28.6611
2529.46	46.5669
2528.76	57.304
2528.07	68.0377
2527.37	50.125
2526.67	71.5958
2525.97	32.213
2525.27	21.4719
2524.57	35.7808
2523.88	57.2401
2523.18	42.9232
2522.48	42.9164
2521.78	32.1821
2521.08	46.4779
2520.38	46.4705
2519.68	46.4631
2518.98	39.3086
2518.28	60.74
2517.58	39.2961
2516.88	53.5771
2516.18	42.8548
2515.48	57.1306
2514.78	57.1215
2514.08	53.5429
2513.38	32.1206
2512.68	49.9574
2511.98	53.5172
2511.28	74.9122
2510.58	28.5334
2509.88	35.6611
2509.17	42.7865
2508.47	35.6497
2507.77	42.7728
2507.07	57.0213
2506.37	42.7591
2505.67	46.315
2504.97	56.994
2504.26	49.8618
2503.56	39.1708
2502.86	49.8458
2502.16	56.9576
2501.45	42.7114
2500.75	39.1458
2500.05	49.814
2499.35	49.806
2498.64	60.4691
2497.94	53.3466
2497.24	67.5615
2496.53	35.553
2495.83	42.6568
2495.13	71.0833
2494.42	31.9824
2493.72	39.0833
2493.02	56.8394
2492.31	0
2491.61	46.1672
2490.9	42.6091
2490.2	28.4015
2489.5	46.1451
2488.79	49.6868
2488.09	60.3243
2487.38	31.9313
2486.68	63.8524
2485.97	31.9211
2485.27	42.5546
2484.56	49.6391
2483.86	56.7213
2483.15	56.7123
2482.45	49.6153
2481.74	49.6074
2481.04	42.5138
2480.33	53.1337
2479.62	49.5836
2478.92	67.2812
2478.21	35.4055
2477.51	49.5598
2476.8	49.5518
2476.09	35.3885
2475.39	67.2274
2474.68	81.3675
2473.97	49.5201
2473.27	74.2683
2472.56	67.1843
2471.85	45.9609
2471.14	53.0233
2470.44	53.0148
2469.73	49.4726
2469.02	31.7987
2468.31	42.3915
2467.61	77.7052
2466.9	81.2243
2466.19	52.9639
2465.48	45.8947
2464.77	49.4171
2464.07	45.88
2463.36	56.4586
2462.65	63.5058
2461.94	24.6927
2461.23	42.3236
2460.52	31.7376
2459.81	31.7325
2459.1	59.9296
2458.4	52.8706
2457.69	49.338
2456.98	73.9951
2456.27	73.9832
2455.56	63.404
2454.85	56.3501
2454.14	42.2558
2453.43	56.332
2452.72	35.2019
2452.01	52.7944
2451.3	28.1525
2450.59	70.3699
2449.88	52.769
2449.16	38.691
2448.45	49.2352
2447.74	42.1949
2447.03	49.2194
2446.32	42.1813
2445.61	45.6891
2444.9	49.1957
2444.19	49.1879
2443.47	52.6928
2442.76	70.2458
2442.05	45.6525
2441.34	59.6898
2440.63	31.5954
2439.91	28.0803
2439.2	24.5663
2438.49	45.6158
2437.78	38.5918
2437.06	70.1557
2436.35	28.0578
2435.64	14.0266
2434.93	63.1097
2434.21	52.583
2433.5	42.0596
2432.79	49.0617
2432.07	45.5499
2431.36	63.059
2430.64	56.0435
2429.93	56.0345
2429.22	52.5239
2428.5	63.0185
2427.79	77.0102
2427.07	52.4986
2426.36	41.9921
2425.65	59.4792
2424.93	62.9679
2424.22	62.9578
2423.5	55.9535
2422.79	48.9514
2422.07	69.9194
2421.36	66.4127
2420.64	41.9381
2419.92	52.4142
2419.21	66.3807
2418.49	52.3974
2417.78	69.8519
2417.06	45.3965
2416.35	55.8636
2415.63	76.8001
2414.91	55.8456
2414.2	45.3673
2413.48	55.8277
2412.76	52.33
2412.05	45.3454
2411.33	52.3132
2410.61	73.2267
2409.9	52.2963
2409.18	48.8021
2408.46	55.7648
2407.74	62.7253
2407.03	59.231
2406.31	24.3853
2405.59	69.6611
2404.87	52.2375
2404.16	45.2652
2403.44	66.1461
2402.72	66.1355
2402	48.7236
2401.28	55.6751
2400.56	41.7496
2399.85	59.1358
2399.13	73.0383
2398.41	55.6393
2397.69	34.7689
2396.97	66.0503
2396.25	62.5639
2395.53	62.5538
2394.81	66.0184
2394.09	72.956
2393.37	55.5766
2392.65	55.5676
2391.93	45.1414
2391.21	41.6623
2390.49	52.0694
2389.77	41.6488
2389.05	52.0527
2388.33	13.8785
2387.61	65.9121
2386.89	34.685
2386.17	69.3588
2385.45	48.5433
2384.73	69.3365
2384	62.3927
2383.28	45.0542
2382.56	69.3029
2381.84	65.8272
2381.12	27.7122
2380.4	69.2694
2379.67	65.7953
2378.95	62.3224
2378.23	51.9269
2377.51	69.2247
2376.79	44.9888
2376.06	44.9816
2375.34	69.1912
2374.62	69.1801
2373.9	72.6273
2373.17	24.2052
2372.45	55.3173
2371.73	55.3083
2371	48.387
2370.28	55.2905
2369.56	58.7367
2368.83	69.0908
2368.11	65.6257
2367.38	51.8014
2366.66	75.9631
2365.94	44.88
2365.21	58.6798
2364.49	65.5727
2363.76	41.4076
2363.04	34.5008
2362.31	34.4952
2361.59	72.4283
2360.86	41.3809
2360.14	41.3742
2359.41	55.1567
2358.69	79.275
2357.96	55.1389
2357.24	55.13
2356.51	51.676
2355.79	62.0012
2355.06	72.323
2354.33	79.1981
2353.61	72.2997
2352.88	61.9611
2352.15	51.6259
2351.43	75.7058
2350.7	79.1341
2349.98	58.481
2349.25	68.7901
2348.52	75.6568
2347.79	61.891
2347.07	65.3189
2346.34	79.0574
2345.61	54.9876
2344.88	41.234
2344.16	54.9698
2343.43	72.1362
2342.7	48.083
2341.97	51.5092
2341.25	54.9342
2340.52	58.3582
2339.79	65.2133
2339.06	51.4758
2338.33	82.348
2337.6	37.7367
2336.87	72.0312
2336.14	58.3015
2335.42	48.0053
2334.69	65.1394
2333.96	58.2732
2333.23	34.2728
2332.5	37.694
2331.77	61.6711
2331.04	65.0867
2330.31	68.5013
2329.58	51.3676
2328.85	51.3593
2328.12	61.6212
2327.39	61.6112
2326.66	75.2904
2325.93	41.0608
2325.2	85.5296
2324.47	41.0475
2323.73	71.8215
2323	68.3904
2322.27	109.407
2321.54	68.3682
2320.81	82.0286
2320.08	37.5903
2319.35	44.4178
2318.61	81.9887
2317.88	54.6503
2317.15	68.3018
2316.42	78.5343
2315.69	64.8657
2314.95	61.4417
2314.22	61.4318
2313.49	78.4834
2312.76	44.353
2312.02	81.8692
2311.29	81.8559
2310.56	47.7415
2309.82	30.686
2309.09	44.317
2308.36	78.3944
2307.62	57.9343
2306.89	68.1469
2306.16	74.9494
2305.42	68.1248
2304.69	74.9251
2303.95	34.0513
2303.22	34.0458
2302.48	68.0806
2301.75	74.8765
2301.02	68.0585
2300.28	47.6332
2299.55	74.84
2298.81	61.2228
2298.08	78.2165
2297.34	64.6031
2296.6	61.193
2295.87	78.1784
2295.13	74.7672
2294.4	57.7652
2293.66	78.1403
2292.93	64.5402
2292.19	64.5297
2291.45	67.915
2290.72	44.1376
2289.98	57.709
2289.24	64.4878
2288.51	71.2644
2287.77	61.0739
2287.03	74.6337
2286.3	54.2702
2285.56	57.6527
2284.82	74.5973
2284.08	71.195
2283.35	71.1834
2282.61	54.2261
2281.87	60.9945
2281.13	67.7607
2280.4	81.2996
2279.66	77.8994
2278.92	47.4093
2278.18	74.4883
2277.44	88.0173
2276.7	67.6946
2275.97	91.3728
2275.23	77.8235
2274.49	60.8954
2273.75	50.7379
2273.01	81.1675
2272.27	57.4843
2271.53	84.5219
2270.79	60.8459
2270.05	50.6967
2269.31	77.7222
2268.57	47.3015
2267.83	84.4532
2267.09	57.4188
2266.35	74.2946
2265.61	64.1531
2264.87	70.8945
2264.13	81.0091
2263.39	60.747
2262.65	57.3628
2261.91	77.5958
2261.17	37.105
2260.42	40.4716
2259.68	53.9534
2258.94	77.5453
2258.2	94.3876
2257.46	77.5201
2256.72	70.7677
2255.97	70.7561
2255.23	53.9007
2254.49	84.2061
2253.75	77.4569
2253	67.3429
2252.26	80.7983
2251.52	57.2228
2250.78	70.6755
2250.03	87.4887
2249.29	63.9236
2248.55	53.8217
2247.8	87.446
2247.06	87.4317
2246.32	63.882
2245.57	67.2332
2244.83	63.8612
2244.09	60.4902
2243.34	84.0004
2242.6	87.3462
2241.85	90.6909
2241.11	60.4507
2240.36	80.5878
2239.62	80.5747
2238.88	77.2048
2238.13	77.1922
2237.39	83.8909
2236.64	87.2323
2235.89	83.8636
2235.15	80.4959
2234.4	46.9483
2233.66	60.3522
2232.91	73.7518
2232.17	73.7397
2231.42	77.079
2230.67	53.6114
2229.93	73.7036
2229.18	80.3909
2228.44	70.3305
2227.69	103.804
2226.94	70.3076
2226.2	73.6435
2225.45	73.6315
2224.7	73.6195
2223.95	66.9159
2223.21	93.6669
2222.46	90.3069
2221.71	66.8831
2220.96	63.5286
2220.22	73.5474
2219.47	96.933
2218.72	86.8912
2217.97	100.243
2217.22	76.8402
2216.48	63.4663
2215.73	86.8345
2214.98	83.481
2214.23	80.1287
2213.48	63.4248
2212.73	53.4017
2211.98	70.0782
2211.23	70.0668
2210.48	60.0474
2209.73	66.7084
2208.98	70.0324
2208.23	66.6866
2207.48	76.6771
2206.73	73.3313
2205.98	69.9866
2205.23	69.9752
2204.48	73.2954
2203.73	89.9387
2202.98	59.9493
2202.23	86.5793
2201.48	76.5768
2200.73	93.2087
2199.98	79.8801
2199.23	76.5393
2198.48	73.1995
2197.72	73.1875
2196.97	66.5232
2196.22	73.1636
2195.47	73.1516
2194.72	79.7887
2193.97	79.7756
2193.21	96.3798
2192.46	86.3953
2191.71	96.3482
2190.96	79.7234
2190.2	63.104
2189.45	99.6216
2188.7	66.4035
2187.94	66.3927
2187.19	46.4673
2186.44	82.9636
2185.68	79.6321
2184.93	102.841
2184.18	69.6552
2183.42	82.9093
2182.67	79.5799
2181.91	59.6751
2181.16	59.6654
2180.41	86.1692
2179.65	99.4097
2178.9	86.141
2178.14	69.564
2177.39	62.9285
2176.63	102.656
2175.88	102.639
2175.12	59.5872
2174.37	92.676
2173.61	86.0422
2172.86	62.8667
2172.1	66.1646
2171.34	69.4614
2170.59	69.45
2169.83	99.1981
2169.08	72.7333
2168.32	85.9435
2167.56	102.454
2166.81	79.3064
2166.05	99.1167
2165.29	95.7971
2164.54	105.69
2163.78	75.9521
2163.02	85.8448
2162.27	72.626
2161.51	102.32
2160.75	99.003
2159.99	102.286
2159.23	85.7744
2158.48	85.7603
2157.72	79.1504
2156.96	72.5426
2156.2	92.3118
2155.44	82.4077
2154.69	75.8027
2153.93	82.3807
2153.17	85.6618
2152.41	102.118
2151.65	115.276
2150.89	85.6196
2150.13	118.531
2149.37	111.927
2148.61	65.8288
2147.85	85.5634
2147.09	105.291
2146.33	88.8251
2145.57	115.125
2144.81	98.6621
2144.05	72.3403
2143.29	98.6297
2142.53	95.3264
2141.77	78.8778
2141.01	88.723
2140.25	88.7084
2139.49	91.9788
2138.73	78.826
2137.97	88.6647
2137.2	82.0834
2136.44	91.9183
2135.68	91.9032
2134.92	82.0429
2134.16	78.7483
2133.4	59.0515
2132.63	91.8428
2131.87	72.1503
2131.11	75.4174
2130.35	65.5696
2129.58	85.2265
2128.82	75.3802
2128.06	88.4753
2127.29	75.3554
2126.53	81.8946
2125.77	91.7069
2125	85.1424
2124.24	72.0317
2123.48	62.1989
2122.71	65.4618
2121.95	94.904
2121.19	98.1604
2120.42	107.959
2119.66	85.0443
2118.89	104.653
2118.13	101.366
2117.36	81.733
2116.6	98.0634
2115.83	91.5108
2115.07	98.0311
2114.3	91.4807
2113.54	62.0659
2112.77	101.249
2112.01	88.1699
2111.24	104.48
2110.48	133.844
2109.71	71.8066
2108.94	130.536
2108.18	114.2
2107.41	55.4595
2106.64	110.901
2105.88	107.621
2105.11	101.082
2104.34	74.984
2103.58	104.308
2102.81	91.2548
2102.04	101.015
2101.28	91.2247
2100.51	104.24
2099.74	97.7085
2098.97	84.6668
2098.21	84.6528
2097.44	91.1495
2096.67	91.1345
2095.9	91.1195
2095.13	104.119
2094.36	97.5958
2093.6	113.843
2092.83	94.3115
2092.06	84.5412
2091.29	97.5314
2090.52	110.517
2089.75	100.749
2088.98	110.481
2088.21	97.467
2087.44	87.7059
2086.67	103.931
2085.9	90.9242
2085.13	97.4027
2084.36	103.879
2083.59	74.6507
2082.82	94.1093
2082.05	110.317
2081.28	94.0782
2080.51	97.3062
2079.74	77.8321
2078.97	68.0919
2078.2	113.468
2077.43	90.7592
2076.65	129.635
2075.88	97.2098
2075.11	93.954
2074.34	116.613
2073.57	90.6842
2072.8	100.384
2072.02	100.367
2071.25	119.773
2070.48	97.0975
2069.71	93.8454
2068.93	87.3588
2068.16	109.989
2067.39	87.33
2066.61	100.251
2065.84	97.0012
2065.07	84.0538
2064.29	87.2722
2063.52	93.7213
2062.75	96.9371
2061.97	113.075
2061.2	77.524
2060.43	113.037
2059.65	109.789
2058.88	106.543
2058.1	87.1568
2057.33	129.1
2056.55	109.717
2055.78	96.7928
2055	93.5509
2054.23	90.3101
2053.45	103.194
2052.68	103.177
2051.9	109.608
2051.13	119.259
2050.35	112.794
2049.57	106.331
2048.8	112.757
2048.02	125.623
2047.25	103.058
2046.47	122.361
2045.69	93.3653
2044.92	83.6929
2044.14	83.6791
2043.36	102.973
2042.59	112.608
2041.81	102.938
2041.03	86.8399
2040.25	128.63
2039.48	102.887
2038.7	115.729
2037.92	128.567
2037.14	99.6225
2036.37	83.5405
2035.59	109.227
2034.81	96.361
2034.03	128.46
2033.25	99.54
2032.47	99.5235
2031.69	121.976
2030.92	118.747
2030.14	105.892
2029.36	102.666
2028.58	105.857
2027.8	125.082
2027.02	125.062
2026.24	105.804
2025.46	144.254
2024.68	99.3586
2023.9	89.7284
2023.12	99.3256
2022.34	102.513
2021.56	102.496
2020.78	124.896
2020	112.067
2019.21	102.445
2018.43	118.432
2017.65	112.012
2016.87	111.993
2016.09	115.174
2015.31	105.558
2014.53	115.136
2013.74	127.907
2012.96	127.886
2012.18	137.455
2011.4	105.471
2010.62	131.018
2009.83	108.631
2009.05	127.78
2008.27	99.0129
2007.49	102.19
2006.7	111.752
2005.92	102.156
2005.14	82.9879
2004.35	89.3567
2003.57	102.105
2002.79	118.039
2002	118.02
2001.22	130.757
2000.43	117.98
1999.65	130.713
1998.87	114.754
1998.08	117.922
1997.3	108.342
1996.51	121.068
1995.73	117.863
1994.94	82.8088
1994.16	152.852
1993.37	117.804
1992.59	120.968
1991.8	120.948
1991.02	108.198
1990.23	111.362
1989.44	120.887
1988.66	120.867
1987.87	130.388
1987.09	130.366
1986.3	104.911
1985.51	101.715
1984.73	130.301
1983.94	101.681
1983.15	108.019
1982.37	123.883
1981.58	120.686
1980.79	107.965
1980	136.521
1979.22	117.452
1978.43	149.171
1977.64	130.106
1976.85	145.948
1976.06	123.718
1975.28	133.213
1974.49	142.704
1973.7	152.192
1972.91	120.466
1972.12	107.767
1971.33	120.425
1970.54	145.754
1969.76	133.057
1968.97	123.533
1968.18	126.679
1967.39	126.658
1966.6	145.633
1965.81	126.616
1965.02	123.43
1964.23	132.902
1963.44	126.553
1962.65	139.185
1961.86	135.999
1961.07	142.3
1960.28	107.498
1959.48	110.641
1958.69	132.747
1957.9	135.885
1957.11	120.065
1956.32	123.204
1955.53	138.976
1954.74	110.531
1953.94	142.087
1953.15	142.063
1952.36	142.04
1951.57	119.925
1950.78	123.06
1949.98	113.575
1949.19	107.247
1948.4	126.152
1947.61	145.051
1946.81	132.416
1946.02	129.241
1945.23	122.916
1944.43	144.954
1943.64	119.725
1942.85	138.605
1942.05	132.283
1941.26	148.006
1940.46	88.1592
1939.67	103.885
1938.88	144.785
1938.08	125.879
1937.29	106.979
1936.49	138.42
1935.7	122.67
1934.9	113.215
1934.11	138.351
1933.31	135.184
1932.52	125.732
1931.72	106.854
1930.93	153.97
1930.13	150.802
1929.33	150.777
1928.54	138.189
1927.74	138.166
1926.95	119.305
1926.15	125.564
1925.35	144.374
1924.56	156.902
1923.76	112.951
1922.96	109.795
1922.17	134.868
1921.37	122.302
1920.57	109.74
1919.77	147.34
1918.98	122.24
1918.18	147.291
1917.38	128.466
1916.58	144.109
1915.78	137.82
1914.99	125.27
1914.19	118.987
1913.39	131.489
1912.59	150.248
1911.79	128.316
1910.99	131.423
1910.19	115.758
1909.39	137.636
1908.59	146.995
1907.8	134.462
1907	128.187
1906.2	121.914
1905.4	134.395
1904.6	140.622
1903.8	109.355
1903	137.451
1902.2	153.045
1901.39	131.16
1900.59	165.483
1899.79	137.359
1898.99	171.67
1898.19	143.555
1897.39	146.651
1896.59	168.464
1895.79	143.483
1894.99	146.577
1894.18	152.789
1893.38	171.469
1892.58	152.738
1891.78	152.712
1890.98	143.338
1890.17	137.083
1889.37	133.945
1888.57	130.808
1887.76	158.812
1886.96	168.126
1886.16	127.63
1885.36	158.732
1884.55	149.37
1883.75	149.345
1882.94	152.431
1882.14	161.736
1881.34	143.05
1880.53	158.573
1879.73	136.785
1878.92	167.844
1878.12	118.093
1877.32	155.359
1876.51	142.906
1875.71	149.095
1874.9	177.02
1874.1	127.309
1873.29	139.706
1872.49	152.099
1871.68	145.866
1870.87	142.739
1870.07	124.1
1869.26	164.404
1868.46	133.362
1867.65	186.056
1866.84	136.418
1866.04	185.993
1865.23	154.968
1864.42	142.547
1863.62	117.736
1862.81	157.988
1862	167.253
1861.2	154.838
1860.39	170.293
1859.58	176.456
1858.77	167.141
1857.96	164.018
1857.16	136.143
1856.35	145.401
1855.54	148.47
1854.73	163.908
1853.92	136.052
1853.12	163.853
1852.31	176.189
1851.5	191.612
1850.69	151.41
1849.88	148.295
1849.07	154.448
1848.26	151.334
1847.45	148.22
1846.64	148.196
1845.83	151.257
1845.02	163.578
1844.21	175.893
1843.4	169.693
1842.59	154.241
1841.78	191.226
1840.97	172.691
1840.16	144.913
1839.35	157.219
1838.54	154.111
1837.72	154.085
1836.91	157.14
1836.1	172.517
1835.29	157.087
1834.48	166.3
1833.67	181.667
1832.85	157.008
1832.04	123.123
1831.23	175.42
1830.42	175.391
1829.6	159.979
1828.79	150.724
1827.98	172.227
1827.17	153.748
1826.35	159.871
1825.54	169.066
1824.73	165.964
1823.91	172.082
1823.1	199.704
1822.29	193.527
1821.47	190.423
1820.66	153.541
1819.84	171.937
1819.03	178.047
1818.21	168.809
1817.4	190.262
1816.58	144.207
1815.77	150.318
1814.95	156.427
1814.14	180.934
1813.32	183.97
1812.51	183.939
1811.69	183.908
1810.88	177.747
1810.06	186.91
1809.25	153.179
1808.43	162.342
1807.61	183.752
1806.8	186.783
1805.98	174.506
1805.16	192.842
1804.35	211.173
1803.53	189.717
1802.71	186.626
1801.89	171.3
1801.08	189.621
1800.26	171.242
1799.44	183.443
1798.62	186.468
1797.81	204.775
1796.99	195.573
1796.17	210.817
1795.35	164.959
1794.53	177.148
1793.71	152.688
1792.9	174.035
1792.08	149.584
1791.26	186.185
1790.44	158.688
1789.62	167.815
1788.8	167.787
1787.98	176.909
1787.16	195.177
1786.34	182.947
1785.52	185.965
1784.7	192.03
1783.88	170.664
1783.06	182.824
1782.24	210.212
1781.42	188.854
1780.6	185.777
1779.78	179.655
1778.95	179.625
1778.13	203.946
1777.31	176.521
1776.49	191.705
1775.67	188.631
1774.85	182.515
1774.02	170.318
1773.2	197.658
1772.38	215.866
1771.56	191.511
1770.74	194.518
1769.91	203.602
1769.09	221.797
1768.27	215.684
1767.44	191.349
1766.62	218.648
1765.8	194.321
1764.97	248.931
1764.15	212.466
1763.33	218.5
1762.5	212.394
1761.68	233.594
1760.85	266.919
1760.03	197.123
1759.21	227.411
1758.38	230.404
1757.56	251.583
1756.73	215.173
1755.91	269.678
1755.08	257.514
1754.26	239.296
1753.43	266.513
1752.6	260.412
1751.78	299.725
1750.95	278.485
1750.13	314.756
1749.3	341.937
1748.47	338.853
1747.65	311.571
1746.82	384.105
1745.99	335.657
1745.17	365.835
1744.34	429.254
1743.51	438.248
1742.69	504.655
1741.86	546.869
1741.03	501.463
1740.2	601.05
1739.38	670.404
1738.55	712.561
1737.72	718.478
1736.89	769.667
1736.06	778.59
1735.23	841.821
1734.4	898.996
1733.58	913.925
1732.75	916.786
1731.92	1001.06
1731.09	982.798
1730.26	1054.97
1729.43	1018.63
1728.6	1072.69
1727.77	1117.7
1726.94	1147.63
1726.11	1150.45
1725.28	1144.23
1724.45	1162.1
1723.62	1201.04
1722.79	1107.53
1721.96	1161.51
1721.13	1188.39
1720.3	1137.05
1719.46	1085.73
1718.63	1106.59
1717.8	1076.34
1716.97	1007.02
1716.14	949.743
1715.31	883.472
1714.47	868.299
1713.64	750.996
1712.81	681.789
1711.98	615.608
1711.14	594.486
1710.31	567.367
1709.48	480.229
1708.65	429.132
1707.81	402.055
1706.98	428.986
1706.15	341.931
1705.31	377.859
1704.48	347.811
1703.64	308.78
1702.81	302.733
1701.98	308.675
1701.14	281.655
1700.31	269.624
1699.47	254.602
1698.64	278.517
1697.8	269.486
1696.97	263.453
1696.13	260.415
1695.3	248.4
1694.46	239.38
1693.63	245.323
1692.79	248.273
1691.95	236.268
1691.12	221.276
1690.28	245.156
1689.45	212.233
1688.61	245.073
1687.77	268.936
1686.94	239.014
1686.1	215.076
1685.26	268.799
1684.42	253.823
1683.59	235.866
1682.75	226.87
1681.91	253.693
1681.07	229.777
1680.24	247.639
1679.4	250.58
1678.56	238.607
1677.72	250.495
1676.88	241.507
1676.04	217.618
1675.21	256.328
1674.37	244.364
1673.53	226.445
1672.69	229.385
1671.85	256.153
1671.01	208.461
1670.17	229.268
1669.33	214.344
1668.49	208.354
1667.65	238.079
1666.81	199.357
1665.97	229.073
1665.13	237.957
1664.29	217.099
1663.45	205.168
1662.61	219.998
1661.77	214.015
1660.92	199.119
1660.08	207.999
1659.24	234.702
1658.4	213.869
1657.56	249.471
1656.72	219.735
1655.87	237.511
1655.03	225.597
1654.19	240.397
1653.35	228.487
1652.5	234.382
1651.66	204.678
1650.82	207.609
1649.98	219.435
1649.13	198.644
1648.29	222.324
1647.45	263.78
1646.6	219.285
1645.76	237.024
1644.91	222.172
1644.07	266.561
1643.23	245.787
1642.38	230.941
1641.54	233.862
1640.69	233.822
1639.85	245.619
1639	239.659
1638.16	221.869
1637.31	233.662
1636.47	254.323
1635.62	233.582
1634.78	248.323
1633.93	257.148
1633.08	251.193
1632.24	298.426
1631.39	239.291
1630.55	245.157
1629.7	274.647
1628.85	301.174
1628.01	301.123
1627.16	301.071
1626.31	324.629
1625.46	348.179
1624.62	354.02
1623.77	389.355
1622.92	430.577
1622.07	462.938
1621.23	468.755
1620.38	536.471
1619.53	683.736
1618.68	822.111
1617.83	1019.36
1616.98	1301.97
1616.13	1504.96
1615.29	1837.44
1614.44	2060.88
1613.59	2131.17
1612.74	2183.78
1611.89	2106.9
1611.04	1874.11
1610.19	1732.6
1609.34	1505.84
1608.49	1308.56
1607.64	1123.11
1606.79	1117.04
1605.94	934.625
1605.09	834.553
1604.24	681.631
1603.38	658.013
1602.53	587.411
1601.68	543.262
1600.83	405.175
1599.98	455.01
1599.13	393.296
1598.27	387.359
1597.42	346.216
1596.57	331.489
1595.72	343.165
1594.87	331.376
1594.01	304.93
1593.16	301.947
1592.31	257.93
1591.45	272.538
1590.6	281.281
1589.75	295.88
1588.89	272.398
1588.04	289.922
1587.19	269.376
1586.33	272.257
1585.48	245.868
1584.62	254.605
1583.77	269.191
1582.92	283.772
1582.06	260.324
1581.21	254.43
1580.35	301.17
1579.5	277.731
1578.64	268.914
1577.78	280.558
1576.93	251.29
1576.07	248.325
1575.22	262.887
1574.36	251.16
1573.51	277.397
1572.65	259.832
1571.79	262.707
1570.94	280.172
1570.08	250.945
1569.22	236.314
1568.37	236.274
1567.51	239.149
1566.65	242.024
1565.79	250.729
1564.94	247.771
1564.08	183.61
1563.22	236.03
1562.36	262.21
1561.5	256.34
1560.65	253.383
1559.79	232.956
1558.93	230.004
1558.07	218.321
1557.21	244.477
1556.35	215.336
1555.49	250.212
1554.63	221.08
1553.77	247.218
1552.91	203.556
1552.05	247.133
1551.19	220.928
1550.33	217.983
1549.47	220.851
1548.61	226.624
1547.75	212.061
1546.89	243.973
1546.03	214.892
1545.17	194.53
1544.31	214.818
1543.45	214.781
1542.58	237.959
1541.72	237.918
1540.86	208.868
1540	234.936
1539.14	237.795
1538.28	217.458
1537.41	214.522
1536.55	228.977
1535.69	249.223
1534.82	211.513
1533.96	228.859
1533.1	228.819
1532.24	211.404
1531.37	220.054
1530.51	234.491
1529.64	231.556
1528.78	219.94
1527.92	243.05
1527.05	225.65
1526.19	219.826
1525.32	240.032
1524.46	231.317
1523.59	234.168
1522.73	222.565
1521.86	199.407
1521	251.383
1520.13	213.783
1519.27	222.412
1518.4	236.813
1517.54	225.223
1516.67	248.279
1515.8	216.485
1514.94	199.132
1514.07	265.464
1513.21	199.063
1512.34	216.336
1511.47	216.299
1510.6	187.426
1509.74	247.937
1508.87	239.247
1508	224.795
1507.14	233.401
1506.27	230.48
1505.4	210.276
1504.53	285.12
1503.66	247.637
1502.8	224.562
1501.93	238.916
1501.06	253.265
1500.19	224.446
1499.32	207.145
1498.45	238.751
1497.58	218.578
1496.71	241.544
1495.84	273.128
1494.97	232.837
1494.1	229.923
1493.23	224.136
1492.36	232.716
1491.49	206.823
1490.62	224.02
1489.75	252.696
1488.88	235.426
1488.01	209.551
1487.14	223.865
1486.27	206.609
1485.4	241.002
1484.52	235.223
1483.65	226.578
1482.78	226.539
1481.91	209.297
1481.04	235.06
1480.17	240.752
1479.29	234.979
1478.42	232.073
1477.55	277.867
1476.67	257.77
1475.8	243.407
1474.93	269.133
1474.06	229.01
1473.18	246.143
1472.31	268.993
1471.43	240.335
1470.56	234.572
1469.69	268.853
1468.81	280.246
1467.94	288.774
1467.06	283.007
1466.19	282.958
1465.31	320.059
1464.44	285.717
1463.56	271.384
1462.69	279.906
1461.81	279.857
1460.94	291.23
1460.06	291.179
1459.19	336.796
1458.31	265.395
1457.43	333.826
1456.56	328.063
1455.68	359.38
1454.8	325.097
1453.93	313.636
1453.05	299.328
1452.17	310.677
1451.3	341.97
1450.42	324.815
1449.54	327.608
1448.66	281.979
1447.78	324.646
1446.91	341.674
1446.03	296.066
1445.15	321.631
1444.27	295.963
1443.39	298.757
1442.51	290.171
1441.64	321.408
1440.76	312.821
1439.88	312.766
1439	324.083
1438.12	318.343
1437.24	298.394
1436.36	275.612
1435.48	315.336
1434.6	278.356
1433.72	281.148
1432.84	264.063
1431.96	261.178
1431.08	289.517
1430.2	258.249
1429.31	261.042
1428.43	238.301
1427.55	263.788
1426.67	243.89
1425.79	243.848
1424.91	269.32
1424.02	263.604
1423.14	243.721
1422.26	266.346
1421.38	235.137
1420.49	260.589
1419.61	254.879
1418.73	300.139
1417.85	243.467
1416.96	260.407
1416.08	288.662
1415.2	280.124
1414.31	288.562
1413.43	333.769
1412.54	311.086
1411.66	390.204
1410.78	330.767
1409.89	350.496
1409.01	356.087
1408.12	333.42
1407.24	358.788
1406.35	322.006
1405.47	310.653
1404.58	276.716
1403.7	271.021
1402.81	273.797
1401.92	310.437
1401.04	242.663
1400.15	220.051
1399.27	273.606
1398.38	276.379
1397.49	276.33
1396.61	265.006
1395.72	236.772
1394.83	219.822
1393.94	298.68
1393.06	253.552
1392.17	256.325
1391.28	275.994
1390.39	267.498
1389.51	264.636
1388.62	267.405
1387.73	239.216
1386.84	233.546
1385.95	284.145
1385.06	272.844
1384.17	244.673
1383.29	247.443
1382.4	264.268
1381.51	267.032
1380.62	227.641
1379.73	210.742
1378.84	269.702
1377.95	272.464
1377.06	297.692
1376.17	272.369
1375.28	297.588
1374.39	263.853
1373.5	224.517
1372.6	283.403
1371.71	260.91
1370.82	288.914
1369.93	255.21
1369.04	271.989
1368.15	280.352
1367.26	283.106
1366.36	269.044
1365.47	277.403
1364.58	285.76
1363.69	266.102
1362.79	249.252
1361.9	277.21
1361.01	268.762
1360.11	260.318
1359.22	271.467
1358.33	232.246
1357.43	243.396
1356.54	218.179
1355.65	257.294
1354.75	240.472
1353.86	220.86
1352.96	276.726
1352.07	285.062
1351.17	237.51
1350.28	240.262
1349.39	256.98
1348.49	251.349
1347.59	254.097
1346.7	226.135
1345.8	284.713
1344.91	231.638
1344.01	259.5
1343.12	270.614
1342.22	242.674
1341.32	248.209
1340.43	262.107
1339.53	250.91
1338.63	242.504
1337.74	256.396
1336.84	220.128
1335.94	242.377
1335.04	270.189
1334.15	225.582
1333.25	256.172
1332.35	239.423
1331.45	272.783
1330.55	267.169
1329.66	286.6
1328.76	258.73
1327.86	239.214
1326.96	297.574
1326.06	269.716
1325.16	305.81
1324.26	319.655
1323.36	308.482
1322.46	302.871
1321.56	322.265
1320.66	283.321
1319.76	341.592
1318.86	310.989
1317.96	358.13
1317.06	369.17
1316.16	327.477
1315.26	352.392
1314.36	410.589
1313.46	385.554
1312.55	368.846
1311.65	396.51
1310.75	443.569
1309.85	496.156
1308.95	460.042
1308.04	490.441
1307.14	518.058
1306.24	479.189
1305.34	498.491
1304.43	484.559
1303.53	490.011
1302.63	470.549
1301.72	476.002
1300.82	470.384
1299.92	492.433
1299.01	489.581
1298.11	583.522
1297.21	613.835
1296.3	633.079
1295.4	663.373
1294.49	696.419
1293.59	734.98
1292.68	723.801
1291.78	740.246
1290.87	784.302
1289.97	759.314
1289.06	784.027
1288.16	778.369
1287.25	769.953
1286.34	813.965
1285.44	764.165
1284.53	786.097
1283.62	744.593
1282.72	755.491
1281.81	661.628
1280.9	694.587
1280	672.418
1279.09	650.258
1278.18	619.84
1277.27	572.907
1276.37	594.837
1275.46	583.719
1274.55	597.381
1273.64	514.703
1272.73	539.38
1271.82	517.274
1270.92	508.93
1270.01	489.587
1269.1	517.001
1268.19	442.673
1267.28	434.348
1266.37	439.769
1265.46	450.684
1264.55	401.148
1263.64	398.33
1262.73	370.794
1261.82	431.144
1260.91	381.646
1260	354.127
1259.09	365.044
1258.18	332.049
1257.27	331.99
1256.35	356.621
1255.44	315.417
1254.53	323.588
1253.62	290.63
1252.71	263.166
1251.79	296.009
1250.88	284.996
1249.97	306.864
1249.06	284.895
1248.14	276.628
1247.23	279.318
1246.32	254.627
1245.41	281.957
1244.49	268.223
1243.58	279.121
1242.66	270.864
1241.75	284.494
1240.84	284.444
1239.92	267.986
1239.01	237.864
1238.09	256.958
1237.18	254.179
1236.26	281.461
1235.35	245.893
1234.43	254.045
1233.52	254
1232.6	262.147
1231.69	226.608
1230.77	232.028
1229.86	207.423
1228.94	229.217
1228.02	242.818
1227.11	226.408
1226.19	210.004
1225.27	234.509
1224.36	253.552
1223.44	226.249
1222.52	218.032
1221.6	234.344
1220.69	256.098
1219.77	223.365
1218.85	215.155
1217.93	217.84
1217.01	223.247
1216.1	239.539
1215.18	220.446
1214.26	214.965
1213.34	206.765
1212.42	233.93
1211.5	214.851
1210.58	220.252
1209.66	231.087
1208.74	214.737
1207.82	222.853
1206.9	203.793
1205.98	230.924
1205.06	230.883
1204.14	222.695
1203.22	214.51
1202.3	206.327
1201.38	209.005
1200.46	217.11
1199.54	252.346
1198.61	236.024
1197.69	246.832
1196.77	230.516
1195.85	244.033
1194.93	227.724
1194	254.789
1193.08	265.584
1192.16	254.699
1191.24	254.654
1190.31	224.814
1189.39	257.272
1188.47	246.395
1187.54	251.766
1186.62	289.615
1185.7	254.383
1184.77	286.807
1183.85	284.051
1182.92	300.229
1182	313.698
1181.07	332.569
1180.15	329.807
1179.23	329.748
1178.3	348.606
1177.37	356.65
1176.45	351.184
1175.52	337.617
1174.6	351.06
1173.67	348.298
1172.75	326.64
1171.82	342.776
1170.89	299.539
1169.97	310.278
1169.04	288.642
1168.11	285.894
1167.19	258.877
1166.26	258.831
1165.33	215.654
1164.4	258.739
1163.48	274.862
1162.55	207.457
1161.62	234.358
1160.69	210.077
1159.76	258.51
1158.83	236.926
1157.91	215.349
1156.98	204.545
1156.05	228.727
1155.12	231.377
1154.19	225.956
1153.26	225.916
1152.33	225.876
1151.4	225.835
1150.47	233.86
1149.54	223.068
1148.61	220.341
1147.68	225.675
1146.75	276.672
1145.82	295.422
1144.89	255.092
1143.96	246.993
1143.02	263.054
1142.09	246.905
1141.16	254.911
1140.23	284.376
1139.3	270.914
1138.36	260.139
1137.43	276.181
1136.5	292.217
1135.57	286.804
1134.63	292.113
1133.7	308.138
1132.77	286.651
1131.83	334.814
1130.9	350.822
1129.97	356.115
1129.03	366.76
1128.1	412.197
1127.17	374.658
1126.23	417.402
1125.3	411.978
1124.36	500.17
1123.43	435.899
1122.49	494.644
1121.56	489.21
1120.62	475.759
1119.69	467.657
1118.75	472.918
1117.81	496.876
1116.88	475.42
1115.94	520.733
1115.01	504.62
1114.07	453.811
1113.13	453.73
1112.2	453.649
1111.26	506.929
1110.32	464.158
1109.38	448.073
1108.45	442.66
1107.51	442.581
1106.57	469.159
1105.63	429.097
1104.69	421.027
1103.76	423.616
1102.82	428.868
1101.88	396.832
1100.94	426.053
1100	399.353
1099.06	362.016
1098.12	415.179
1097.18	385.835
1096.24	361.822
1095.3	417.617
1094.36	337.758
1093.42	366.947
1092.48	380.174
1091.54	337.577
1090.6	348.147
1089.66	342.771
1088.72	286.92
1087.78	297.494
1086.84	302.752
1085.9	292.077
1084.95	278.751
1084.01	281.356
1083.07	310.498
1082.13	260.029
1081.19	289.164
1080.24	275.85
1079.3	254.586
1078.36	262.494
1077.41	286.306
1076.47	275.653
1075.53	275.604
1074.58	238.461
1073.64	254.313
1072.7	241.025
1071.75	238.333
1070.81	225.052
1069.86	246.19
1068.92	254.086
1067.98	240.809
1067.03	222.246
1066.09	248.659
1065.14	238.036
1064.19	230.06
1063.25	248.526
1062.3	274.916
1061.36	259.009
1060.41	253.678
1059.46	229.855
1058.52	221.889
1057.57	240.337
1056.63	235.013
1055.68	224.41
1054.73	253.406
1053.78	253.361
1052.84	248.038
1051.89	237.441
1050.94	245.312
1049.99	224.17
1049.05	237.314
1048.1	260.998
1047.15	237.229
1046.2	231.915
1045.25	252.953
1044.3	258.177
1043.35	247.595
1042.4	289.687
1041.45	268.571
1040.5	252.727
1039.55	255.314
1038.6	289.48
1037.65	276.272
1036.7	278.853
1035.75	284.064
1034.8	291.902
1033.85	318.143
1032.9	304.942
1031.95	268.09
1031	323.228
1030.05	273.249
1029.1	265.319
1028.14	241.634
1027.19	301.988
1026.24	299.309
1025.29	262.504
1024.33	262.457
1023.38	288.651
1022.43	254.492
1021.48	275.432
1020.52	306.855
1019.57	262.222
1018.62	238.58
1017.66	267.371
1016.71	296.152
1015.75	280.377
1014.8	272.467
1013.85	269.799
1012.89	261.893
1011.94	222.57
1010.98	259.182
1010.03	251.282
1009.07	230.301
1008.12	279.975
1007.16	274.692
1006.2	245.871
1005.25	251.057
1004.29	245.783
1003.34	282.338
1002.38	290.129
1001.42	326.663
1000.47	284.799
999.508	258.624
998.551	266.413
997.594	232.417
996.636	255.874
995.679	250.607
994.721	237.512
993.763	253.127
992.805	258.299
991.846	232.167
990.888	247.774
989.929	213.83
988.97	271.15
988.011	224.18
987.052	250.202
986.093	255.369
985.133	231.875
984.173	237.043
983.213	250.022
982.253	242.166
981.293	255.139
980.333	221.255
979.372	208.202
978.411	231.583
977.45	247.151
976.489	195.084
975.528	218.455
974.566	221.016
973.605	246.974
972.643	239.131
971.681	233.891
970.719	239.045
969.756	228.611
968.794	210.388
967.831	220.738
966.868	244.066
965.905	241.426
964.942	199.855
963.979	241.34
963.015	215.35
962.052	238.659
961.088	217.866
960.124	212.641
959.159	217.788
958.195	215.157
957.23	253.995
956.266	269.497
955.301	243.54
954.336	225.363
953.37	243.452
952.405	225.282
951.439	220.063
950.473	220.024
949.507	256.217
948.541	248.408
947.575	235.428
946.608	237.972
945.642	258.618
944.675	230.129
943.708	240.428
942.741	242.97
941.773	211.914
940.806	201.541
939.838	229.922
938.87	276.373
937.902	206.597
936.934	242.707
935.965	237.5
934.997	242.62
934.028	229.673
933.059	232.212
932.09	239.909
931.121	232.128
930.151	244.98
929.182	226.888
928.212	239.736
927.242	242.27
926.272	273.148
925.301	267.946
924.331	239.563
923.36	260.123
922.389	270.376
921.418	244.582
920.447	257.408
919.475	265.083
918.504	270.181
917.532	262.414
916.56	239.217
915.588	264.891
914.616	262.272
913.643	272.508
912.671	262.177
911.698	280.119
910.725	272.36
909.752	246.621
908.779	282.536
907.805	292.757
906.831	287.569
905.858	320.89
904.883	287.465
903.909	279.715
902.935	277.098
901.96	295.005
900.986	346.248
900.011	333.363
899.036	317.92
898.06	335.806
897.085	345.997
896.109	327.997
895.133	358.682
894.157	379.11
893.181	409.774
892.205	381.533
891.229	358.423
890.252	391.634
889.275	355.734
888.298	399.168
887.321	388.863
886.343	399.024
885.366	419.411
884.388	419.335
883.41	401.364
882.432	467.747
881.454	421.663
880.475	401.146
879.497	424.064
878.518	403.555
877.539	370.284
876.56	418.728
875.58	428.863
874.601	380.292
873.621	400.637
872.641	413.322
871.661	400.492
870.681	431.025
869.701	418.197
868.72	410.472
867.739	423.143
866.758	417.969
865.777	456.116
864.796	458.581
863.815	499.253
862.833	527.177
861.851	570.368
860.869	626.272
859.887	651.613
858.905	755.835
857.922	760.787
856.939	753.017
855.956	808.838
854.973	684.081
853.99	671.244
853.007	699.086
852.023	686.251
851.039	637.843
850.055	594.535
849.071	558.863
848.087	454.629
847.102	556.121
846.118	474.775
845.133	472.15
844.148	464.45
843.163	403.466
842.177	428.763
841.192	418.539
840.206	360.132
839.22	408.244
838.234	410.705
837.248	400.491
836.261	377.61
835.274	405.414
834.288	359.739
833.301	390.069
832.313	407.725
831.326	359.543
830.339	382.261
829.351	367.006
828.363	379.592
827.375	387.113
826.387	369.335
825.398	397.09
824.409	379.316
823.421	384.304
822.432	389.289
821.443	394.273
820.453	351.244
819.464	409.289
818.474	361.22
817.484	406.614
816.494	391.39
815.504	363.548
814.513	360.957
813.523	403.795
812.532	411.291
811.541	355.715
810.55	363.217
809.559	365.673
808.567	355.52
807.575	337.809
806.583	380.596
805.591	362.886
804.599	355.261
803.607	360.235
802.614	362.688
801.621	337.44
800.628	362.556
799.635	322.213
798.642	344.806
797.649	344.743
796.655	387.451
795.661	410.019
794.667	397.37
793.673	379.696
792.678	407.281
791.684	364.475
790.689	366.922
789.694	296.499
788.699	321.568
787.704	329.045
786.708	303.871
785.713	311.348
784.717	258.573
783.721	296.175
782.724	306.159
781.728	288.54
780.731	275.944
779.735	270.878
778.738	268.321
777.741	255.736
776.743	260.703
775.746	273.186
774.748	255.596
773.75	268.076
772.752	263.017
771.754	267.978
770.756	240.385
769.757	255.362
768.758	257.819
767.759	242.756
766.76	240.21
765.761	260.179
764.761	260.132
763.762	230.075
762.762	217.531
761.762	262.489
760.762	267.44
759.761	232.406
758.761	272.34
757.76	274.788
756.759	224.785
755.758	242.224
754.756	264.65
753.755	242.136
752.753	254.57
751.751	257.019
750.749	269.447
749.747	256.925
748.745	286.806
747.742	249.351
746.739	254.291
745.736	271.693
744.733	276.628
743.73	321.427
742.726	293.965
741.723	266.513
740.719	256.503
739.715	253.966
738.71	276.324
737.706	286.229
736.701	266.269
735.697	253.78
734.692	313.435
733.686	258.661
732.681	273.534
731.675	266.025
730.67	278.405
729.664	280.84
728.658	290.728
727.651	240.986
726.645	258.33
725.638	295.535
724.631	297.964
723.624	248.258
722.617	263.105
721.61	253.13
720.602	267.971
719.595	272.883
718.587	282.755
717.578	282.703
716.57	242.981
715.562	285.078
714.553	285.026
713.544	282.495
712.535	282.444
711.526	302.209
710.516	334.35
709.507	329.336
708.497	358.985
707.487	386.148
706.477	376.177
705.467	430.545
704.456	400.779
703.445	472.436
702.434	459.984
701.423	504.407
700.412	440.039
699.401	378.166
698.389	373.154
697.377	279.197
696.365	321.141
695.353	279.094
694.34	261.757
693.328	266.647
692.315	293.751
691.302	261.613
690.289	234.421
689.276	244.247
688.262	261.469
687.249	254.022
686.235	286.03
685.221	283.513
684.206	315.504
683.192	280.944
682.177	275.964
681.162	285.768
680.147	317.735
679.132	283.2
678.117	290.534
677.101	268.326
676.086	228.896
675.07	282.992
674.054	273.098
673.037	258.289
672.021	243.485
671.004	287.702
669.987	270.439
668.97	263.015
667.953	258.051
666.936	277.661
665.918	270.24
664.9	284.928
663.882	299.611
662.864	260.269
661.846	292.136
660.827	267.537
659.808	304.298
658.789	282.16
657.77	269.842
656.751	294.319
655.731	255.03
654.712	267.242
653.692	272.095
652.672	249.987
651.652	294.048
650.631	296.444
649.611	284.142
648.59	293.886
647.569	318.318
646.548	296.226
645.526	257.008
644.505	261.855
643.483	298.509
642.461	256.866
641.439	300.845
640.417	295.898
639.394	325.184
638.371	295.789
637.348	359.281
636.325	393.426
635.302	461.763
634.279	649.768
633.255	718.032
632.231	810.69
631.207	671.381
630.183	519.919
629.159	453.93
628.134	387.966
627.109	300.069
626.084	319.527
625.059	329.222
624.034	285.273
623.008	265.719
621.983	275.419
620.957	333.853
619.931	287.499
618.904	280.138
617.878	272.78
616.851	277.6
615.824	253.202
614.797	304.273
613.77	309.085
612.743	277.395
611.715	282.209
610.687	284.589
609.659	294.265
608.631	255.306
607.603	282.001
606.574	281.949
605.546	272.176
604.517	269.696
603.487	281.792
602.458	291.455
601.429	286.545
600.399	257.357
599.369	320.423
598.339	288.813
597.309	274.2
596.278	286.28
595.248	291.078
594.217	286.174
593.186	264.298
592.155	286.068
591.123	300.558
590.091	278.692
589.06	268.949
588.028	300.392
586.996	283.382
585.963	290.594
584.931	283.277
583.898	280.803
582.865	304.954
581.832	302.478
580.798	295.164
579.765	297.528
578.731	316.821
577.697	307.09
576.663	282.857
575.629	335.982
574.594	316.586
573.56	302.03
572.525	285.064
571.49	289.841
570.455	268.054
569.419	289.734
568.384	299.336
567.348	304.108
566.312	291.986
565.276	282.281
564.239	299.114
563.203	301.471
562.166	296.592
561.129	289.305
560.092	344.691
559.054	310.887
558.017	308.42
556.979	332.454
555.941	329.983
554.903	303.432
553.865	308.191
552.826	279.246
551.787	279.195
550.749	310.426
549.709	307.963
548.67	319.933
547.631	283.798
546.591	353.479
545.551	302.926
544.511	310.081
543.471	331.653
542.43	302.757
541.39	331.529
540.349	302.645
539.308	297.785
538.267	340.949
537.225	328.883
536.184	302.42
535.142	295.164
534.1	326.3
533.058	302.251
532.015	311.789
530.973	309.333
529.93	302.083
528.887	292.438
527.844	280.401
526.801	304.31
525.757	297.067
524.713	330.545
523.669	282.587
522.625	311.267
521.581	375.845
520.537	327.906
519.492	337.417
518.447	301.466
517.402	325.331
516.357	310.92
515.311	301.297
514.265	353.839
513.22	313.137
512.174	291.569
511.127	313.02
510.081	312.962
509.034	243.635
507.987	315.234
506.94	300.849
505.893	303.18
504.846	310.284
503.798	303.067
502.75	276.766
501.702	317.267
500.654	298.128
499.606	305.226
