3200.54	96.8252
3199.95	79.986
3199.35	84.1831
3198.76	84.1704
3198.16	75.7419
3197.57	96.7667
3196.98	75.719
3196.38	100.943
3195.79	75.6961
3195.19	75.6847
3194.6	96.6936
3194	105.086
3193.41	84.0559
3192.81	58.8303
3192.22	92.4336
3191.62	92.4196
3191.03	113.407
3190.43	104.99
3189.84	109.174
3189.24	96.562
3188.65	71.3611
3188.05	104.927
3187.45	117.5
3186.86	75.5246
3186.26	75.5131
3185.67	96.4744
3185.07	83.8781
3184.47	75.4789
3183.88	109.009
3183.28	71.264
3182.69	92.2101
3182.09	113.15
3181.49	92.1822
3180.9	92.1682
3180.3	134.043
3179.7	92.1403
3179.1	83.7512
3178.51	79.5516
3177.91	100.471
3177.31	92.0845
3176.72	133.921
3176.12	104.61
3175.52	87.859
3174.92	121.311
3174.33	87.8324
3173.73	66.9098
3173.13	104.531
3172.53	58.5283
3171.93	112.859
3171.34	75.2279
3170.74	87.7526
3170.14	112.808
3169.54	62.6614
3168.94	146.188
3168.34	62.6424
3167.74	100.213
3167.15	70.9732
3166.55	112.705
3165.95	66.7781
3165.35	95.979
3164.75	87.6197
3164.15	79.263
3163.55	108.449
3162.95	83.4094
3162.35	83.3968
3161.75	95.8917
3161.15	95.8772
3160.55	87.5268
3159.95	108.35
3159.35	91.6669
3158.75	133.313
3158.15	91.6391
3157.55	120.779
3156.95	133.253
3156.35	58.2893
3155.75	95.7464
3155.15	104.056
3154.55	112.364
3153.95	112.347
3153.35	99.8487
3152.75	108.153
3152.15	87.3411
3151.54	120.596
3150.94	91.4725
3150.34	87.3014
3149.74	103.914
3149.14	99.7427
3148.54	99.7276
3147.94	132.95
3147.33	103.851
3146.73	87.2219
3146.13	107.973
3145.53	137.021
3144.93	107.94
3144.32	103.773
3143.72	99.6066
3143.12	112.04
3142.52	120.321
3141.91	112.006
3141.31	141.024
3140.71	132.708
3140.1	111.955
3139.5	99.5008
3138.9	111.921
3138.29	107.76
3137.69	107.743
3137.09	107.727
3136.48	120.139
3135.88	124.263
3135.28	128.385
3134.67	115.943
3134.07	70.3834
3133.47	124.187
3132.86	136.585
3132.26	153.118
3131.65	124.131
3131.05	111.701
3130.45	124.093
3129.84	136.481
3129.24	111.65
3128.63	161.247
3128.03	144.687
3127.42	119.865
3126.82	157.041
3126.21	132.225
3125.61	103.285
3125	136.316
3124.4	128.035
3123.79	173.44
3123.19	115.609
3122.58	148.617
3121.97	160.978
3121.37	136.191
3120.76	132.044
3120.16	152.653
3119.55	119.629
3118.94	140.233
3118.34	144.335
3117.73	160.806
3117.13	119.556
3116.52	90.6837
3115.91	136.005
3115.31	111.26
3114.7	98.8826
3114.09	119.465
3113.48	102.971
3112.88	131.783
3112.27	156.469
3111.66	102.924
3111.06	98.7923
3110.45	164.629
3109.84	135.798
3109.23	156.35
3108.63	127.529
3108.02	168.642
3107.41	139.828
3106.8	139.807
3106.19	160.342
3105.59	131.543
3104.98	115.082
3104.37	131.503
3103.76	143.809
3103.15	172.545
3102.54	160.196
3101.93	139.637
3101.33	164.253
3100.72	156.017
3100.11	139.573
3099.5	147.76
3098.89	147.738
3098.28	131.303
3097.67	168.206
3097.06	180.486
3096.45	168.154
3095.84	176.33
3095.23	164.003
3094.62	168.078
3094.01	139.36
3093.4	143.437
3092.79	168.001
3092.18	176.169
3091.57	163.853
3090.96	180.211
3090.35	176.089
3089.74	151.495
3089.13	159.66
3088.52	167.822
3087.91	184.166
3087.3	163.678
3086.69	171.836
3086.08	151.356
3085.46	155.423
3084.85	151.31
3084.24	159.465
3083.63	147.176
3083.02	179.854
3082.41	155.305
3081.79	187.972
3081.18	212.458
3080.57	171.574
3079.96	200.139
3079.35	183.774
3078.73	224.578
3078.12	216.378
3077.51	200.017
3076.9	269.37
3076.28	257.087
3075.67	232.567
3075.06	179.498
3074.45	216.18
3073.83	203.913
3073.22	199.804
3072.61	212.004
3071.99	191.59
3071.38	203.788
3070.77	215.982
3070.15	232.247
3069.54	199.621
3068.93	175.151
3068.31	203.632
3067.7	191.385
3067.08	219.856
3066.47	187.256
3065.86	199.438
3065.24	236.033
3064.63	199.377
3064.01	150.527
3063.4	170.842
3062.78	211.487
3062.17	150.458
3061.55	199.225
3060.94	174.803
3060.32	178.841
3059.71	191.006
3059.09	174.723
3058.48	207.198
3057.86	174.67
3057.25	174.643
3056.63	170.555
3056.02	203.011
3055.4	215.159
3054.78	154.241
3054.17	162.334
3053.55	170.425
3052.94	190.685
3052.32	166.317
3051.7	214.962
3051.09	190.597
3050.47	182.459
3049.85	162.161
3049.24	182.403
3048.62	186.428
3048	174.243
3047.39	162.062
3046.77	166.088
3046.15	166.062
3045.53	190.335
3044.92	186.257
3044.3	210.519
3043.68	133.578
3043.06	210.455
3042.45	198.283
3041.83	194.206
3041.21	218.449
3040.59	137.521
3039.97	149.632
3039.35	194.087
3038.74	161.715
3038.12	214.239
3037.5	193.998
3036.88	210.133
3036.26	210.101
3035.64	189.87
3035.02	234.271
3034.41	165.58
3033.79	185.744
3033.17	165.529
3032.55	189.724
3031.93	185.659
3031.31	181.595
3030.69	193.672
3030.07	238.019
3029.45	221.848
3028.83	169.385
3028.21	217.747
3027.59	201.587
3026.97	213.65
3026.35	169.281
3025.73	173.285
3025.11	225.639
3024.49	205.461
3023.87	201.402
3023.25	185.261
3022.63	233.554
3022	245.597
3021.38	193.227
3020.76	225.397
3020.14	197.192
3019.52	241.423
3018.9	205.178
3018.28	241.349
3017.66	197.071
3017.03	201.062
3016.41	205.052
3015.79	265.321
3015.17	245.183
3014.55	208.977
3013.92	220.999
3013.3	196.86
3012.68	224.948
3012.06	204.832
3011.43	188.738
3010.81	216.815
3010.19	252.912
3009.57	228.79
3008.94	224.741
3008.32	248.783
3007.7	212.636
3007.07	216.615
3006.45	228.614
3005.83	216.549
3005.2	228.544
3004.58	228.509
3003.96	212.441
3003.33	244.47
3002.71	184.326
3002.08	280.453
3001.46	240.351
3000.84	232.304
3000.21	228.264
2999.59	260.261
2998.96	224.19
2998.34	244.17
2997.71	216.117
2997.09	272.105
2996.46	244.057
2995.84	260.021
2995.21	255.981
2994.59	259.941
2993.96	251.904
2993.34	239.872
2992.71	255.824
2992.09	255.785
2991.46	171.829
2990.84	283.674
2990.21	291.62
2989.58	227.668
2988.96	235.62
2988.33	263.535
2987.71	231.556
2987.08	227.528
2986.45	283.369
2985.83	267.363
2985.2	243.383
2984.57	251.324
2983.95	251.286
2983.32	267.199
2982.69	235.259
2982.07	271.104
2981.44	310.924
2980.81	243.121
2980.18	255.039
2979.56	290.859
2978.93	266.912
2978.3	310.685
2977.67	270.812
2977.05	282.716
2976.42	250.822
2975.79	310.494
2975.16	298.506
2974.53	274.583
2973.91	274.541
2973.28	298.368
2972.65	306.278
2972.02	286.345
2971.39	326.065
2970.76	329.991
2970.13	294.164
2969.5	274.245
2968.88	290.099
2968.25	333.761
2967.62	321.792
2966.99	266.132
2966.36	341.55
2965.73	309.73
2965.1	289.831
2964.47	297.726
2963.84	337.371
2963.21	329.382
2962.58	361.074
2961.95	297.543
2961.32	309.397
2960.69	345.043
2960.06	333.094
2959.43	333.043
2958.8	265.6
2958.17	313.122
2957.53	360.629
2956.9	372.461
2956.27	305.054
2955.64	316.89
2955.01	304.96
2954.38	312.833
2953.75	308.825
2953.12	296.902
2952.48	328.52
2951.85	292.853
2951.22	348.203
2950.59	320.456
2949.96	320.407
2949.33	316.402
2948.69	320.308
2948.06	312.351
2947.43	359.741
2946.8	316.207
2946.16	308.254
2945.53	355.623
2944.9	323.962
2944.26	323.913
2943.63	363.358
2943	311.966
2942.37	359.298
2941.73	343.451
2941.1	303.927
2940.47	295.987
2939.83	323.563
2939.2	378.747
2938.56	347.131
2937.93	335.245
2937.3	319.42
2936.66	350.913
2936.03	311.437
2935.39	366.572
2934.76	346.81
2934.13	303.412
2933.49	299.425
2932.86	256.048
2932.22	299.333
2931.59	342.604
2930.95	338.614
2930.32	307.068
2929.68	330.637
2929.05	314.844
2928.41	287.251
2927.78	322.615
2927.14	350.102
2926.5	294.984
2925.87	310.668
2925.23	365.667
2924.6	275.191
2923.96	302.663
2923.32	322.267
2922.69	318.288
2922.05	318.238
2921.42	333.902
2920.78	353.489
2920.14	314.164
2919.51	341.6
2918.87	317.993
2918.23	325.794
2917.6	321.819
2916.96	298.225
2916.32	298.179
2915.68	298.133
2915.05	333.387
2914.41	321.57
2913.77	364.651
2913.13	348.914
2912.5	356.699
2911.86	372.321
2911.22	317.403
2910.58	325.19
2909.94	336.892
2909.31	321.173
2908.67	317.207
2908.03	321.073
2907.39	371.918
2906.75	371.86
2906.11	332.666
2905.47	332.614
2904.83	379.513
2904.2	355.983
2903.56	359.839
2902.92	336.319
2902.28	371.458
2901.64	363.581
2901	367.434
2900.36	386.918
2899.72	347.782
2899.08	316.472
2898.44	363.3
2897.8	343.715
2897.16	355.377
2896.52	390.464
2895.88	382.595
2895.24	386.44
2894.6	323.935
2893.96	355.102
2893.32	405.768
2892.67	390.101
2892.03	331.535
2891.39	370.482
2890.75	397.719
2890.11	354.772
2889.47	331.329
2888.83	389.739
2888.19	385.782
2887.54	370.137
2886.9	346.707
2886.26	401.183
2885.62	401.12
2884.98	385.483
2884.33	393.21
2883.69	350.331
2883.05	373.628
2882.41	385.244
2881.77	373.512
2881.12	357.894
2880.48	392.844
2879.84	338.338
2879.19	381.057
2878.55	380.998
2877.91	377.052
2877.26	361.448
2876.62	384.707
2875.98	388.533
2875.33	353.51
2874.69	411.717
2874.05	423.304
2873.4	403.824
2872.76	376.585
2872.11	388.171
2871.47	353.181
2870.83	426.856
2870.18	434.55
2869.54	391.81
2868.89	391.749
2868.25	368.42
2867.6	383.873
2866.96	364.429
2866.31	391.506
2865.67	383.694
2865.02	387.51
2864.38	348.704
2863.73	406.759
2863.09	398.949
2862.44	422.123
2861.8	410.441
2861.15	371.663
2860.5	371.605
2859.86	421.861
2859.21	340.532
2858.57	383.039
2857.92	437.139
2857.27	390.656
2856.63	409.932
2855.98	386.668
2855.33	398.206
2854.69	452.261
2854.04	452.191
2853.39	425.071
2852.75	436.596
2852.1	440.391
2851.45	347.623
2850.81	420.945
2850.16	478.799
2849.51	428.535
2848.86	389.868
2848.21	436.121
2847.57	409.041
2846.92	416.694
2846.27	432.06
2845.62	366.423
2844.97	393.361
2844.33	451.138
2843.68	412.515
2843.03	404.742
2842.38	435.512
2841.73	458.565
2841.08	458.493
2840.43	423.752
2839.78	439.092
2839.14	439.024
2838.49	450.507
2837.84	442.738
2837.19	427.271
2836.54	446.449
2835.89	419.442
2835.24	446.31
2834.59	407.771
2833.94	450.017
2833.29	446.101
2832.64	453.722
2831.99	442.118
2831.34	465.113
2830.69	415.077
2830.04	503.395
2829.39	457.211
2828.74	445.616
2828.08	495.478
2827.43	426.275
2826.78	456.927
2826.13	429.982
2825.48	518.201
2824.83	418.334
2824.18	445.13
2823.53	452.735
2822.87	452.664
2822.22	441.087
2821.57	444.853
2820.92	513.802
2820.27	425.546
2819.61	425.48
2818.96	498.232
2818.31	459.835
2817.66	494.245
2817	417.553
2816.35	497.921
2815.7	490.185
2815.05	451.819
2814.39	486.204
2813.74	466.989
2813.09	478.398
2812.43	470.67
2811.78	462.945
2811.13	413.142
2810.47	470.45
2809.82	481.849
2809.16	481.774
2808.51	512.283
2807.86	546.605
2807.2	489.193
2806.55	546.435
2805.89	466.116
2805.24	469.864
2804.58	507.985
2803.93	469.717
2803.28	523.099
2802.62	557.377
2801.97	503.851
2801.31	473.241
2800.66	492.246
2800	438.756
2799.34	568.386
2798.69	518.714
2798.03	507.193
2797.38	480.424
2796.72	526.096
2796.07	472.65
2795.41	510.688
2794.75	461.071
2794.1	533.388
2793.44	487.593
2792.79	575.117
2792.13	495.057
2791.47	544.477
2790.82	494.902
2790.16	510.05
2789.5	574.668
2788.84	563.163
2788.19	490.789
2787.53	547.772
2786.87	543.883
2786.22	539.995
2785.56	532.306
2784.9	547.429
2784.24	532.14
2783.59	520.656
2782.93	539.573
2782.27	558.485
2781.61	535.606
2780.95	546.917
2780.29	516.452
2779.64	520.168
2778.98	577.03
2778.32	535.188
2777.66	508.539
2777	500.87
2776.34	546.319
2775.68	508.3
2775.02	580.282
2774.36	583.984
2773.71	530.811
2773.05	587.592
2772.39	579.919
2771.73	617.726
2771.07	526.69
2770.41	575.859
2769.75	575.769
2769.09	564.317
2768.43	564.229
2767.77	567.926
2767.11	545.124
2766.45	533.684
2765.79	560.091
2765.12	552.436
2764.46	563.699
2763.8	582.524
2763.14	552.177
2762.48	627.719
2761.82	472.606
2761.16	525.456
2760.5	600.967
2759.83	551.745
2759.17	566.773
2758.51	642.242
2757.85	566.595
2757.19	577.837
2756.53	551.313
2755.86	592.758
2755.2	551.141
2754.54	600.121
2753.88	600.027
2753.21	550.882
2752.55	603.612
2751.89	588.429
2751.23	626.051
2750.56	573.162
2749.9	595.693
2749.24	595.6
2748.57	580.431
2747.91	576.571
2747.25	636.766
2746.58	561.322
2745.92	591.367
2745.25	625.169
2744.59	625.071
2743.93	609.914
2743.26	583.468
2742.6	572.085
2741.93	635.969
2741.27	665.969
2740.61	635.769
2739.94	605.579
2739.28	639.331
2738.61	639.231
2737.95	624.092
2737.28	639.03
2736.62	605.104
2735.95	612.525
2735.29	578.614
2734.62	638.63
2733.95	612.237
2733.29	585.853
2732.62	612.045
2731.96	596.932
2731.29	611.853
2730.62	570.473
2729.96	686.712
2729.29	619.069
2728.63	615.221
2727.96	645.13
2727.29	607.527
2726.63	626.18
2725.96	607.337
2725.29	640.977
2724.62	618.39
2723.96	633.281
2723.29	659.408
2722.62	659.305
2721.96	659.202
2721.29	662.843
2720.62	606.575
2719.95	696.328
2719.28	662.531
2718.62	684.882
2717.95	681.032
2717.28	665.96
2716.61	680.819
2715.94	639.57
2715.27	665.646
2714.61	717.888
2713.94	650.484
2713.27	665.333
2712.6	665.228
2711.93	728.647
2711.26	597.77
2710.59	717.212
2709.92	676.015
2709.25	638.566
2708.58	705.672
2707.91	642.098
2707.24	683.055
2706.57	682.948
2705.9	641.796
2705.23	716.31
2704.56	682.626
2703.89	652.682
2703.22	704.786
2702.55	611.464
2701.88	648.646
2701.21	723.09
2700.54	700.616
2699.87	678.149
2699.2	689.219
2698.53	692.836
2697.86	733.694
2697.19	692.618
2696.51	692.509
2695.84	729.626
2695.17	710.901
2694.5	729.396
2693.83	654.865
2693.15	706.845
2692.48	729.052
2691.81	732.656
2691.14	713.949
2690.47	743.58
2689.79	769.484
2689.12	713.612
2688.45	694.919
2687.77	743.112
2687.1	687.27
2686.43	672.304
2685.76	746.475
2685.08	738.931
2684.41	742.527
2683.74	760.97
2683.06	705.178
2682.39	742.176
2681.71	693.825
2681.04	708.555
2680.37	726.989
2679.69	749.126
2679.02	830.583
2678.34	685.865
2677.67	752.479
2676.99	752.36
2676.32	781.887
2675.65	744.713
2674.97	792.754
2674.3	711.144
2673.62	762.878
2672.95	729.433
2672.27	766.339
2671.59	781.025
2670.92	732.789
2670.24	765.977
2669.57	788.055
2668.89	758.337
2668.22	773.012
2667.54	721.118
2666.86	835.625
2666.19	746.769
2665.51	731.866
2664.83	798.273
2664.16	816.623
2663.48	720.436
2662.8	772.038
2662.13	775.609
2661.45	720.095
2660.77	771.673
2660.1	767.859
2659.42	760.356
2658.74	837.736
2658.06	867.123
2657.39	752.618
2656.71	778.32
2656.03	752.38
2655.35	744.886
2654.68	733.708
2654	770.456
2653.32	766.649
2652.64	869.714
2651.96	755.353
2651.28	792.074
2650.6	736.697
2649.93	754.995
2649.25	813.793
2648.57	813.664
2647.89	857.71
2647.21	798.685
2646.53	850.079
2645.85	780.036
2645.17	754.161
2644.49	812.894
2643.81	783.344
2643.13	867.794
2642.45	830.891
2641.77	863.843
2641.09	808.577
2640.41	848.871
2639.73	778.928
2639.05	826.562
2638.37	819.085
2637.69	752.852
2637.01	811.482
2636.33	815.025
2635.65	836.921
2634.96	785.407
2634.28	810.97
2633.6	847.531
2632.92	829.055
2632.24	887.609
2631.56	847.129
2630.88	839.662
2630.19	850.527
2629.51	846.727
2628.83	864.918
2628.15	883.103
2627.46	864.645
2626.78	871.834
2626.1	926.635
2625.42	842.262
2624.73	871.421
2624.05	966.465
2623.37	896.767
2622.69	871.007
2622	848.915
2621.32	892.683
2620.64	793.777
2619.95	885.085
2619.27	863.005
2618.58	892.118
2617.9	866.387
2617.22	921.076
2616.53	844.186
2615.85	891.553
2615.16	913.332
2614.48	873.007
2613.79	934.956
2613.11	887.337
2612.43	887.197
2611.74	883.406
2611.06	905.165
2610.37	846.633
2609.69	934.068
2609	901.087
2608.31	977.543
2607.63	864.332
2606.94	878.78
2606.26	893.224
2605.57	911.309
2604.89	903.875
2604.2	940.173
2603.51	838.006
2602.83	888.874
2602.14	877.806
2601.45	939.577
2600.77	1012.25
2600.08	917.436
2599.39	869.97
2598.71	968.098
2598.02	953.389
2597.33	985.982
2596.65	942.173
2595.96	927.475
2595.27	952.784
2594.58	879.913
2593.9	927.034
2593.21	966.87
2592.52	973.986
2591.83	981.099
2591.14	966.41
2590.46	1038.91
2589.77	868.041
2589.08	958.688
2588.39	914.966
2587.7	987.426
2587.01	998.158
2586.32	954.451
2585.64	1001.47
2584.95	906.985
2584.26	1008.41
2583.57	928.457
2582.88	997.208
2582.19	942.665
2581.5	1033.14
2580.81	964.113
2580.12	971.208
2579.43	963.807
2578.74	1003.5
2578.05	949.012
2577.36	1064.75
2576.67	905.258
2575.98	970.283
2575.29	1009.95
2574.6	995.31
2573.91	998.771
2573.22	980.521
2572.52	969.513
2571.83	1030.85
2571.14	983.67
2570.45	972.667
2569.76	1001.43
2569.07	994.046
2568.38	1008.34
2567.68	1019.02
2566.99	968.281
2566.3	1015.09
2565.61	975.197
2564.92	978.653
2564.22	913.505
2563.53	992.783
2562.84	1039.55
2562.14	999.685
2561.45	1013.96
2560.76	1028.23
2560.07	948.707
2559.37	1017.08
2558.68	1049.38
2557.99	1078.05
2557.29	1023.81
2556.6	973.184
2555.91	1059.52
2555.21	1016.11
2554.52	983.527
2553.82	986.973
2553.13	1004.82
2552.44	1022.67
2551.74	1022.51
2551.05	1043.94
2550.35	1043.78
2549.66	1036.41
2548.96	1061.43
2548.27	1014.5
2547.57	1068.29
2546.88	1071.72
2546.18	1100.31
2545.49	1085.76
2544.79	1056.83
2544.1	1071.03
2543.4	1081.64
2542.7	1113.81
2542.01	1066.93
2541.31	1127.82
2540.62	1048.63
2539.92	1123.87
2539.22	1041.12
2538.53	1130.69
2537.83	1126.92
2537.13	1080.09
2536.44	1061.98
2535.74	1097.69
2535.04	1068.82
2534.35	1082.99
2533.65	1061.31
2532.95	1143.59
2532.25	1075.31
2531.56	989.124
2530.86	1053.46
2530.16	1071.21
2529.46	1085.37
2528.76	1078.03
2528.07	1092.18
2527.37	1106.33
2526.67	1095.42
2525.97	1120.29
2525.27	1152.32
2524.57	1102.05
2523.88	1116.18
2523.18	1090.97
2522.48	1144.44
2521.78	1180.01
2521.08	1190.55
2520.38	1104.57
2519.68	1100.82
2518.98	1118.51
2518.28	1132.62
2517.58	1050.28
2516.88	1160.84
2516.18	1153.51
2515.48	1156.9
2514.78	1174.56
2514.08	1156.53
2513.38	1238.43
2512.68	1184.7
2511.98	1138.13
2511.28	1198.59
2510.58	1162.74
2509.88	1208.91
2509.17	1126.71
2508.47	1215.65
2507.77	1161.99
2507.07	1161.81
2506.37	1250.7
2505.67	1179.25
2504.97	1171.94
2504.26	1146.82
2503.56	1217.86
2502.86	1167.82
2502.16	1142.71
2501.45	1213.71
2500.75	1185.05
2500.05	1174.19
2499.35	1170.44
2498.64	1202.27
2497.94	1234.08
2497.24	1191.22
2496.53	1233.69
2495.83	1158.84
2495.13	1140.89
2494.42	1151.37
2493.72	1236.45
2493.02	1250.47
2492.31	1225.4
2491.61	1108.01
2490.9	1228.56
2490.2	1153.81
2489.5	1253.02
2488.79	1110.85
2488.09	1277.46
2487.38	1188.55
2486.68	1305.43
2485.97	1213
2485.27	1251.82
2484.56	1198.43
2483.86	1230.14
2483.15	1166.15
2482.45	1187.22
2481.74	1254.36
2481.04	1264.79
2480.33	1282.29
2479.62	1246.67
2478.92	1257.1
2478.21	1232.11
2477.51	1231.91
2476.8	1313.12
2476.09	1249.21
2475.39	1241.94
2474.68	1273.58
2473.97	1319.36
2473.27	1230.73
2472.56	1280.04
2471.85	1258.62
2471.14	1219.54
2470.44	1272.36
2469.73	1282.75
2469.02	1303.75
2468.31	1225.82
2467.61	1317.46
2466.9	1285.46
2466.19	1394.72
2465.48	1338.01
2464.77	1309.55
2464.07	1245.82
2463.36	1326.78
2462.65	1312.45
2461.94	1220.53
2461.23	1322.61
2460.52	1361.19
2459.81	1251.67
2459.1	1357.23
2458.4	1282.99
2457.69	1268.69
2456.98	1275.53
2456.27	1233.05
2455.56	1313.87
2454.85	1296.05
2454.14	1313.45
2453.43	1260.43
2452.72	1267.27
2452.01	1284.66
2451.3	1302.05
2450.59	1358.14
2449.88	1312.19
2449.16	1326.05
2448.45	1332.87
2447.74	1395.95
2447.03	1437.91
2446.32	1349.8
2445.61	1398.79
2444.9	1395.05
2444.19	1338.61
2443.47	1352.45
2442.76	1383.84
2442.05	1415.23
2441.34	1313.18
2440.63	1369.13
2439.91	1379.44
2439.2	1326.58
2438.49	1396.55
2437.78	1389.31
2437.06	1427.67
2436.35	1353.79
2435.64	1343.05
2434.93	1405.94
2434.21	1409.22
2433.5	1345.91
2432.79	1324.66
2432.07	1377.01
2431.36	1418.83
2430.64	1373.06
2429.93	1376.35
2429.22	1299.09
2428.5	1452.93
2427.79	1410.69
2427.07	1420.96
2426.36	1315.75
2425.65	1382.02
2424.93	1542.71
2424.22	1381.57
2423.5	1444.3
2422.79	1541.97
2422.07	1387.9
2421.36	1436.61
2420.64	1418.91
2419.92	1425.67
2419.21	1414.96
2418.49	1393.77
2417.78	1484.35
2417.06	1452.69
2416.35	1435
2415.63	1497.6
2414.91	1427.55
2414.2	1423.83
2413.48	1423.61
2412.76	1416.4
2412.05	1482.44
2411.33	1454.31
2410.61	1576.12
2409.9	1499.16
2409.18	1425.72
2408.46	1418.52
2407.74	1481.01
2407.03	1390.19
2406.31	1494.47
2405.59	1494.23
2404.87	1493.99
2404.16	1462.41
2403.44	1496.99
2402.72	1448.02
2402	1465.19
2401.28	1517.15
2400.56	1478.63
2399.85	1572.32
2399.13	1467.72
2398.41	1464.01
2397.69	1477.68
2396.97	1407.92
2396.25	1505.01
2395.53	1459.59
2394.81	1476.73
2394.09	1528.6
2393.37	1563.09
2392.65	1406.55
2391.93	1541.75
2391.21	1593.58
2390.49	1593.33
2389.77	1509.77
2389.05	1513
2388.33	1478.06
2387.61	1495.16
2386.89	1494.92
2386.17	1491.21
2385.45	1601.93
2384.73	1598.21
2384	1532.09
2383.28	1497.18
2382.56	1562.78
2381.84	1507.1
2381.12	1531.1
2380.4	1503.15
2379.67	1589.48
2378.95	1651.54
2378.23	1633.97
2377.51	1647.55
2376.79	1564.23
2376.06	1560.51
2375.34	1608.7
2374.62	1580.76
2373.9	1646.22
2373.17	1549.13
2372.45	1573.08
2371.73	1586.66
2371	1652.07
2370.28	1544.68
2369.56	1603.17
2368.83	1537.27
2368.11	1564.65
2367.38	1678.36
2366.66	1660.83
2365.94	1660.56
2365.21	1549.84
2364.49	1597.9
2363.76	1594.19
2363.04	1704.34
2362.31	1645.42
2361.59	1689.99
2360.86	1637.99
2360.14	1627.39
2359.41	1706.41
2358.69	1654.43
2357.96	1619.7
2357.24	1660.79
2356.51	1550.28
2355.79	1667.14
2355.06	1577.33
2354.33	1621.84
2353.61	1676.66
2352.88	1621.32
2352.15	1645.15
2351.43	1741.23
2350.7	1682.46
2349.98	1613.39
2349.25	1647.52
2348.52	1664.45
2347.79	1698.57
2347.07	1684.54
2346.34	1759.89
2345.61	1663.37
2344.88	1855.53
2344.16	1755.6
2343.43	1686.61
2342.7	1669.17
2341.97	1734.14
2341.25	1685.79
2340.52	1664.92
2339.79	1674.95
2339.06	1750.18
2338.33	1797.93
2337.6	1711.88
2336.87	1639.57
2336.14	1697.6
2335.42	1783.05
2334.69	1679.91
2333.96	1707.06
2333.23	1723.92
2332.5	1757.91
2331.77	1644.56
2331.04	1771.04
2330.31	1678.28
2329.58	1739.65
2328.85	1749.64
2328.12	1769.9
2327.39	1841.49
2326.66	1830.93
2325.93	1775.88
2325.2	1755.07
2324.47	1737.68
2323.73	1754.5
2323	1778.15
2322.27	1798.38
2321.54	1774.16
2320.81	1818.3
2320.08	1766.75
2319.35	1773.29
2318.61	1735.43
2317.88	1769.3
2317.15	1782.68
2316.42	1761.9
2315.69	1857.21
2314.95	1833.01
2314.22	1761.04
2313.49	1794.88
2312.76	1753.65
2312.02	1865.93
2311.29	1783.78
2310.56	1827.82
2309.82	1786.61
2309.09	1769.27
2308.36	1843.97
2307.62	1809.59
2306.89	1887.67
2306.16	1754.5
2305.42	1842.78
2304.69	1842.48
2303.95	1872.82
2303.22	1858.9
2302.48	1923.28
2301.75	1810.65
2301.02	1861.4
2300.28	1769.23
2299.55	1826.78
2298.81	1846.89
2298.08	1941.81
2297.34	1941.49
2296.6	1811.99
2295.87	1798.1
2295.13	1967.74
2294.4	1919.84
2293.66	1895.75
2292.93	1980.36
2292.19	1918.91
2291.45	1935.58
2290.72	1874.15
2289.98	1951.92
2289.24	1965.18
2288.51	1930.93
2287.77	1927.22
2287.03	1903.16
2286.3	1889.28
2285.56	1841.5
2284.82	1834.42
2284.08	1861.24
2283.35	2003.3
2282.61	1843.69
2281.87	1897.61
2281.13	1958.28
2280.4	1974.9
2279.66	1971.19
2278.92	1940.4
2278.18	1933.31
2277.44	1977
2276.7	1980.07
2275.97	1888.37
2275.23	1962.5
2274.49	1941.89
2273.75	1965.25
2273.01	1961.55
2272.27	1954.47
2271.53	2011.62
2270.79	2011.29
2270.05	2031.25
2269.31	1983.61
2268.57	1986.66
2267.83	2003.23
2267.09	1979.26
2266.35	1935.04
2265.61	2015.76
2264.87	1981.67
2264.13	2001.6
2263.39	2031.65
2262.65	2092.05
2261.91	1983.75
2261.17	2088
2260.42	2040.44
2259.68	2013.13
2258.94	2073.49
2258.2	2046.19
2257.46	1998.67
2256.72	2025.3
2255.97	2045.19
2255.23	2108.86
2254.49	1990.63
2253.75	2030.72
2253	2097.73
2252.26	2127.69
2251.52	2117.24
2250.78	2005.84
2250.03	2106.46
2249.29	2008.55
2248.55	2055.31
2247.8	2017.98
2247.06	2125.26
2246.32	2061.03
2245.57	2127.93
2244.83	2093.97
2244.09	2127.24
2243.34	2136.97
2242.6	2116.47
2241.85	2038.87
2241.11	2132.57
2240.36	2118.79
2239.62	2115.09
2238.88	2155.02
2238.13	2158.03
2237.39	2194.59
2236.64	2177.45
2235.89	2136.84
2235.15	2045.94
2234.4	2089.2
2233.66	2159.27
2232.91	2168.97
2232.17	2101.58
2231.42	2077.78
2230.67	2154.51
2229.93	2120.65
2229.18	2120.31
2228.44	2150.1
2227.69	2166.5
2226.94	2253.19
2226.2	2182.53
2225.45	2158.74
2224.7	2188.51
2223.95	2238.34
2223.21	2207.86
2222.46	2157.33
2221.71	2170.36
2220.96	2103.13
2220.22	2106.13
2219.47	2179.32
2218.72	2215.73
2217.97	2322.29
2217.22	2245.07
2216.48	2268.09
2215.73	2170.86
2214.98	2130.44
2214.23	2303.7
2213.48	2213.19
2212.73	2209.49
2211.98	2229.16
2211.23	2192.09
2210.48	2218.42
2209.73	2211.39
2208.98	2224.36
2208.23	2244.01
2207.48	2260.31
2206.73	2273.27
2205.98	2312.89
2205.23	2229.21
2204.48	2375.44
2203.73	2308.43
2202.98	2311.38
2202.23	2291.02
2201.48	2277.33
2200.73	2240.34
2199.98	2303.21
2199.23	2266.23
2198.48	2212.62
2197.72	2332.02
2196.97	2315.01
2196.22	2261.42
2195.47	2244.42
2194.72	2313.87
2193.97	2326.79
2193.21	2316.44
2192.46	2332.67
2191.71	2412.03
2190.96	2285.4
2190.2	2401.27
2189.45	2324.5
2188.7	2380.57
2187.94	2466.49
2187.19	2290.17
2186.44	2389.35
2185.68	2335.87
2184.93	2378.62
2184.18	2345.06
2183.42	2391.1
2182.67	2377.45
2181.91	2300.81
2181.16	2426.39
2180.41	2256.97
2179.65	2382.52
2178.9	2468.27
2178.14	2292.3
2177.39	2344.92
2176.63	2410.76
2175.88	2354.08
2175.12	2429.83
2174.37	2330.14
2173.61	2349.61
2172.86	2521.28
2172.1	2444.78
2171.34	2437.77
2170.59	2410.91
2169.83	2496.48
2169.08	2400.2
2168.32	2442.78
2167.56	2379.58
2166.81	2435.37
2166.05	2415.14
2165.29	2507.24
2164.54	2562.98
2163.78	2446.98
2163.02	2489.5
2162.27	2535.31
2161.51	2538.19
2160.75	2422.27
2159.99	2520.86
2159.23	2530.35
2158.48	2496.95
2157.72	2476.75
2156.96	2489.53
2156.2	2528.68
2155.44	2370.05
2154.69	2564.11
2153.93	2517.55
2153.17	2408.42
2152.41	2493.67
2151.65	2466.91
2150.89	2538.95
2150.13	2482.56
2149.37	2574.33
2148.61	2494.91
2147.85	2596.52
2147.09	2517.12
2146.33	2556.19
2145.57	2394.59
2144.81	2545.48
2144.05	2673.3
2143.29	2574.24
2142.53	2590.25
2141.77	2589.82
2141.01	2517.1
2140.25	2605.4
2139.49	2604.97
2138.73	2653.81
2137.97	2558.14
2137.2	2620.1
2136.44	2494.93
2135.68	2717.71
2134.92	2687.73
2134.16	2582.29
2133.4	2617.95
2132.63	2673.28
2131.87	2548.22
2131.11	2816.68
2130.35	2701.47
2129.58	2701.02
2128.82	2635.03
2128.06	2647.7
2127.29	2660.37
2126.53	2627.18
2125.77	2652.95
2125	2564.09
2124.24	2733.93
2123.48	2550.16
2122.71	2628.29
2121.95	2703.13
2121.19	2660.15
2120.42	2604.09
2119.66	2629.83
2118.89	2639.21
2118.13	2648.58
2117.36	2631.8
2116.6	2670.59
2115.83	2663.62
2115.07	2672.98
2114.3	2721.55
2113.54	2864.83
2112.77	2674.93
2112.01	2707.14
2111.24	2768.73
2110.48	2729.1
2109.71	2754.76
2108.94	2777.15
2108.18	2717.96
2107.41	2684.89
2106.64	2648.57
2105.88	2814.46
2105.11	2872.69
2104.34	2774.41
2103.58	2682.68
2102.81	2773.49
2102.04	2786.07
2101.28	2726.97
2100.51	2759.09
2099.74	2683.73
2098.97	2712.59
2098.21	2822.85
2097.44	2783.32
2096.67	2896.77
2095.9	2782.4
2095.13	2811.22
2094.36	2859.56
2093.6	2660.67
2092.83	2835.85
2092.06	2910.17
2091.29	2734.13
2090.52	2772.69
2089.75	2791.73
2088.98	2872.5
2088.21	2833.04
2087.44	2972.25
2086.67	2887.32
2085.9	2932.31
2085.13	2727.28
2084.36	2769.03
2083.59	2895.15
2082.82	2910.9
2082.05	2887.71
2081.28	2981.31
2080.51	2877.02
2079.74	2750.07
2078.97	3038.19
2078.2	2846.42
2077.43	2862.16
2076.65	2894.09
2075.88	2874.17
2075.11	2812.14
2074.34	2857.03
2073.57	2824.17
2072.8	2992.09
2072.02	2913.89
2071.25	3026.7
2070.48	3035.91
2069.71	2957.75
2068.93	2831.07
2068.16	2940.59
2067.39	2917.47
2066.61	2988.13
2065.84	2955.3
2065.07	2886.92
2064.29	2960.79
2063.52	2953.84
2062.75	2969.51
2061.97	2936.71
2061.2	2907.15
2060.43	2974.49
2059.65	2951.4
2058.88	3012.25
2058.1	2963.33
2057.33	2966.07
2056.55	3068.84
2055.78	3045.75
2055	2867.82
2054.23	3089.89
2053.45	2995.86
2052.68	3027.61
2051.9	3056.12
2051.13	3100.74
2050.35	3032.55
2049.57	2993.39
2048.8	2986.45
2048.02	3076.14
2047.25	3156.15
2046.47	2991.4
2045.69	3077.83
2044.92	3051.57
2044.14	3092.91
2043.36	3044.13
2042.59	3033.97
2041.81	3027.03
2041.03	3142.32
2040.25	3238.27
2039.48	3038.39
2038.7	3092.54
2037.92	3072.74
2037.14	3123.65
2036.37	3055.66
2035.59	3068
2034.81	3109.25
2034.03	3089.46
2033.25	3156.38
2032.47	3187.96
2031.69	3030.15
2030.92	3263.93
2030.14	3144.66
2029.36	3134.52
2028.58	3121.17
2027.8	3271.39
2027.02	3181.06
2026.24	3132.44
2025.46	3170.39
2024.68	3205.12
2023.9	3162.92
2023.12	3252.11
2022.34	3101.01
2021.56	3206.19
2020.78	3276.12
2020	3169.91
2019.21	3294.24
2018.43	3284.09
2017.65	3145.93
2016.87	3094.21
2016.09	3189.67
2015.31	3112.37
2014.53	3233.39
2013.74	3178.49
2012.96	3193.95
2012.18	3161.45
2011.4	3215.26
2010.62	3192.36
2009.83	3172.66
2009.05	3290.33
2008.27	3229.1
2007.49	3247.72
2006.7	3186.52
2005.92	3128.52
2005.14	3357.82
2004.35	3245.56
2003.57	3302.46
2002.79	3352.95
2002	3170.58
2001.22	3409.25
2000.43	3284.32
1999.65	3220.01
1998.87	3235.42
1998.08	3362.36
1997.3	3317.19
1996.51	3367.61
1995.73	3233.26
1994.94	3344.2
1994.16	3270.4
1993.37	3308.07
1992.59	3364.82
1991.8	3462.92
1991.02	3245.95
1990.23	3426.77
1989.44	3368.94
1988.66	3327.03
1987.87	3377.36
1987.09	3529.42
1986.3	3449.36
1985.51	3410.64
1984.73	3479.99
1983.94	3498.48
1983.15	3348.57
1982.37	3357.55
1981.58	3509.43
1980.79	3359.6
1980	3470.17
1979.22	3466.41
1978.43	3370.62
1977.64	3411.31
1976.85	3436.13
1976.06	3422.87
1975.28	3358.86
1974.49	3532.72
1973.7	3395.79
1972.91	3420.59
1972.12	3451.71
1971.33	3425.79
1970.54	3447.4
1969.76	3392.97
1968.97	3500.1
1968.18	3578.69
1967.39	3581.26
1966.6	3596.49
1965.81	3551.57
1965.02	3531.99
1964.23	3493.43
1963.44	3426.41
1962.65	3441.66
1961.86	3630.85
1961.07	3557.51
1960.28	3569.57
1959.48	3546.84
1958.69	3517.8
1957.9	3602.54
1957.11	3554.55
1956.32	3715.07
1955.53	3559.68
1954.74	3596.98
1953.94	3646.9
1953.15	3463.19
1952.36	3547.83
1951.57	3544.09
1950.78	3600.29
1949.98	3593.38
1949.19	3655.87
1948.4	3576.41
1947.61	3683.03
1946.81	3672.96
1946.02	3615.6
1945.23	3561.42
1944.43	3601.79
1943.64	3560.23
1942.85	3666.74
1942.05	3817.31
1941.26	3681.26
1940.46	3605.08
1939.67	3639.11
1938.88	3556.67
1938.08	3782.65
1937.29	3687.63
1936.49	3671.28
1935.7	3698.98
1934.9	3688.93
1934.11	3672.59
1933.31	3775.72
1932.52	3658.79
1931.72	3802.74
1930.93	3688.99
1930.13	3600.4
1929.33	3835.39
1928.54	3705.98
1927.74	3755.61
1926.95	3695.33
1926.15	3738.66
1925.35	3772.55
1924.56	3658.95
1923.76	3834.04
1922.96	3764.39
1922.17	3807.67
1921.37	3728.63
1920.57	3677.84
1919.77	3752.47
1918.98	3867.81
1918.18	3729.28
1917.38	3731.78
1916.58	3806.35
1915.78	3771.26
1914.99	3798.81
1914.19	3744.94
1913.39	3781.89
1912.59	3878.29
1911.79	3971.53
1910.99	3679.86
1910.19	3816.9
1909.39	3869.44
1908.59	3796.86
1907.8	3877.52
1907	3848.73
1906.2	3916.86
1905.4	3872.45
1904.6	3918.68
1903.8	3930.52
1903	3833.02
1902.2	3919.83
1901.39	3813
1900.59	3940.37
1899.79	3761.77
1898.99	3817.32
1898.19	3822.93
1897.39	3906.53
1896.59	3855.96
1895.79	3889.63
1894.99	3864.03
1894.18	3916.39
1893.38	3840.91
1892.58	4095.87
1891.78	3914.42
1890.98	3919.99
1890.17	3807.18
1889.37	3725.55
1888.57	3899.34
1887.76	3939.16
1886.96	3932.28
1886.16	3987.65
1885.36	3906.06
1884.55	3952.08
1883.75	4029.2
1882.94	4019.2
1882.14	3872.34
1881.34	3958.76
1880.53	3936.33
1879.73	3932.56
1878.92	3931.9
1878.12	4012.04
1877.32	4008.26
1876.51	4044.87
1875.71	3975.86
1874.9	4018.67
1874.1	3974.52
1873.29	4082.52
1872.49	4032.17
1871.68	4006.66
1870.87	4030.81
1870.07	4048.75
1869.26	4125.62
1868.46	4003.97
1867.65	3981.59
1866.84	4064.63
1866.04	4063.95
1865.23	4007.48
1864.42	4133.86
1863.62	3956.56
1862.81	4061.22
1862	4113.19
1861.2	4044.37
1860.39	3941.52
1859.58	4061.59
1858.77	4181.62
1857.96	4109.74
1857.16	4115.24
1856.35	4077.42
1855.54	4219.02
1854.73	4079.14
1853.92	4257.8
1853.12	4167.43
1852.31	4039.99
1851.5	4110.4
1850.69	4159.15
1849.88	4047.22
1849.07	4129.95
1848.26	4215.73
1847.45	4128.56
1846.64	4146.39
1845.83	4093.21
1845.02	4259.19
1844.21	4233.78
1843.4	4091.15
1842.59	4189.17
1841.78	4361.19
1840.97	4153.84
1840.16	4304.22
1839.35	4106.2
1838.54	4296.61
1837.72	4160.29
1836.91	4264.35
1836.1	4220.5
1835.29	4210.55
1834.48	4240.64
1833.67	4172.19
1832.85	4116.07
1832.04	4204.64
1831.23	4339.34
1830.42	4243.23
1829.6	4230.2
1828.79	4232.57
1827.98	4407.16
1827.17	4206.54
1826.35	4344.18
1825.54	4340.38
1824.73	4275.11
1823.91	4341.99
1823.1	4298.24
1822.29	4325.17
1821.47	4428.86
1820.66	4354.42
1819.84	4209.38
1819.03	4257.79
1818.21	4410.53
1817.4	4241.01
1816.58	4439.73
1815.77	4402.17
1814.95	4281.8
1814.14	4336.28
1813.32	4335.55
1812.51	4383.87
1811.69	4370.87
1810.88	4360.94
1810.06	4375.52
1809.25	4442.18
1808.43	4386.3
1807.61	4428.43
1806.8	4335.83
1805.98	4377.96
1805.16	4276.2
1804.35	4547.86
1803.53	4455.3
1802.71	4332.17
1801.89	4401.79
1801.08	4324.59
1800.26	4537.91
1799.44	4439.31
1798.62	4511.93
1797.81	4410.3
1796.99	4424.84
1796.17	4472.98
1795.35	4340.87
1794.53	4425.65
1793.71	4513.46
1792.9	4418.05
1792.08	4481.41
1791.26	4508.12
1790.44	4568.4
1789.62	4347.94
1788.8	4441.78
1787.98	4383.07
1787.16	4528.71
1786.34	4466.97
1785.52	4408.29
1784.7	4535.56
1783.88	4504.32
1783.06	4579.74
1782.24	4463.19
1781.42	4550.77
1780.6	4638.32
1779.78	4363.49
1778.95	4597.18
1778.13	4535.52
1777.31	4568.23
1776.49	4567.46
1775.67	4651.87
1774.85	4538.54
1774.02	4479.98
1773.2	4488.35
1772.38	4612.24
1771.56	4574.98
1770.74	4555.97
1769.91	4658.52
1769.09	4648.62
1768.27	4559.74
1767.44	4574.15
1766.62	4640.19
1765.8	4766.93
1764.97	4668.97
1764.15	4686.4
1763.33	4655.25
1762.5	4678.74
1761.68	4641.54
1760.85	4819.72
1760.03	4752.18
1759.21	4745.31
1758.38	4638.4
1757.56	4758.86
1756.73	4870.19
1755.91	4778.46
1755.08	4892.77
1754.26	4764.72
1753.43	4833.57
1752.6	4872.12
1751.78	4741.11
1750.95	5070.25
1750.13	4884.77
1749.3	4923.28
1748.47	4928.5
1747.65	4985.14
1746.82	5041.76
1745.99	5131.62
1745.17	5194.25
1744.34	5063.38
1743.51	5119.95
1742.69	5164.41
1741.86	5269.28
1741.03	5268.39
1740.2	5566.51
1739.38	5683.34
1738.55	5606.89
1737.72	5717.63
1736.89	5710.63
1736.06	5727.77
1735.23	5835.42
1734.4	5988.28
1733.58	6071.72
1732.75	6173.22
1731.92	6301.83
1731.09	6514.81
1730.26	6549.87
1729.43	6723.56
1728.6	6622.98
1727.77	6724.29
1726.94	6897.85
1726.11	6824.4
1725.28	6937.66
1724.45	7014.76
1723.62	6962.4
1722.79	6816.75
1721.96	6641.07
1721.13	6555.7
1720.3	6506.46
1719.46	6415.13
1718.63	6323.83
1717.8	6136.35
1716.97	6216.47
1716.14	5983.98
1715.31	6079.13
1714.47	5615.4
1713.64	5695.56
1712.81	5580.46
1711.98	5393.32
1711.14	5446.45
1710.31	5364.47
1709.48	5357.56
1708.65	5380.65
1707.81	5142.71
1706.98	5195.83
1706.15	5146.96
1705.31	5038.12
1704.48	5028.27
1703.64	5096.37
1702.81	5023.56
1701.98	5055.67
1701.14	4946.95
1700.31	4985.05
1699.47	5002.17
1698.64	4896.5
1697.8	4949.57
1696.97	5080.45
1696.13	5067.61
1695.3	4979.96
1694.46	4994.08
1693.63	4882.53
1692.79	5153.9
1691.95	5072.28
1691.12	5083.37
1690.28	5142.3
1689.45	4962.07
1688.61	5191.36
1687.77	5038.08
1686.94	5007.34
1686.1	5146.89
1685.26	4930.97
1684.42	5037.63
1683.59	5087.53
1682.75	5065.77
1681.91	5136.53
1681.07	5117.75
1680.24	5000.52
1679.4	4871.4
1678.56	5025.66
1677.72	5027.79
1676.88	5116.38
1676.04	4981.36
1675.21	5016.28
1674.37	5235.94
1673.53	5080.11
1672.69	5052.44
1671.85	5170.72
1671.01	5172.81
1670.17	4969.46
1669.33	5063.88
1668.49	5051.11
1667.65	5115.72
1666.81	5105.92
1665.97	5125.87
1665.13	5220.18
1664.29	5094.38
1663.45	5132.17
1662.61	5059.94
1661.77	5139.34
1660.92	5177.09
1660.08	5191.07
1659.24	5115.91
1658.4	5079.39
1657.56	5206.23
1656.72	5151.89
1655.87	5240.08
1655.03	5242.15
1654.19	5143.32
1653.35	5094.96
1652.5	5174.2
1651.66	5119.92
1650.82	5127.94
1649.98	5284.23
1649.13	5209.21
1648.29	5178.67
1647.45	5204.46
1646.6	5283.58
1645.76	5181.95
1644.91	5192.91
1644.07	5162.4
1643.23	5200.02
1642.38	5394.54
1641.54	5230.8
1640.69	5306.86
1639.85	5273.41
1639	5340.56
1638.16	5301.19
1637.31	5282.53
1636.47	5257.97
1635.62	5316.21
1634.78	5324.17
1633.93	5234.59
1633.08	5230.73
1632.24	5501.67
1631.39	5400.29
1630.55	5393.46
1629.7	5392.54
1628.85	5267.6
1628.01	5446.78
1627.16	5487.17
1626.31	5521.65
1625.46	5632.83
1624.62	5590.56
1623.77	5799.03
1622.92	5674.18
1622.07	5752.82
1621.23	6049.6
1620.38	6204.79
1619.53	6542.64
1618.68	6759.58
1617.83	7312.29
1616.98	7932.56
1616.13	8484.89
1615.29	8863.29
1614.44	9530.09
1613.59	9678.58
1612.74	9894.71
1611.89	9710.57
1611.04	9494.14
1610.19	8854.19
1609.34	8585.03
1608.49	8071.9
1607.64	7600.1
1606.79	7393.03
1605.94	7003.81
1605.09	6823.35
1604.24	6557.76
1603.38	6439.13
1602.53	6344.04
1601.68	6140.33
1600.83	6095.24
1599.98	5962.09
1599.13	5969.88
1598.27	5684.2
1597.42	5733.11
1596.57	5708.66
1595.72	5690.08
1594.87	5604.06
1594.01	5573.78
1593.16	5584.55
1592.31	5633.42
1591.45	5614.87
1590.6	5502.56
1589.75	5369.79
1588.89	5579.76
1588.04	5370.88
1587.19	5419.73
1586.33	5559.32
1585.48	5581.78
1584.62	5498.88
1583.77	5495.01
1582.92	5631.57
1582.06	5575.03
1581.21	5536.05
1580.35	5546.8
1579.5	5344.12
1578.64	5597.5
1577.78	5640.38
1576.93	5727.07
1576.07	5512.82
1575.22	5546.92
1574.36	5563.49
1573.51	5504.14
1572.65	5494.43
1571.79	5461.38
1570.94	5442.93
1570.08	5459.51
1569.22	5505.25
1568.37	5550.97
1567.51	5477.11
1566.65	5438.26
1565.79	5612.25
1564.94	5453.88
1564.08	5528.72
1563.22	5370.41
1562.36	5652.09
1561.5	5508.39
1560.65	5527.83
1559.79	5413.31
1558.93	5622
1558.07	5565.73
1557.21	5361.04
1556.35	5645.29
1555.49	5548.31
1554.63	5509.54
1553.77	5485.32
1552.91	5536.72
1552.05	5454.36
1551.19	5572.61
1550.33	5615.24
1549.47	5599.75
1548.61	5674.33
1547.75	5638.49
1546.89	5550.39
1546.03	5598.8
1545.17	5679.13
1544.31	5721.7
1543.45	5714.91
1542.58	5522.39
1541.72	5602.68
1540.86	5601.72
1540	5786.38
1539.14	5562.09
1538.28	5706.1
1537.41	5577.57
1536.55	5538.92
1535.69	5642.3
1534.82	5571.79
1533.96	5492.61
1533.1	5566.97
1532.24	5621.03
1531.37	5732.99
1530.51	5569.88
1529.64	5398.15
1528.78	5669.25
1527.92	5642.23
1527.05	5603.65
1526.19	5779.12
1525.32	5726.07
1524.46	5823.39
1523.59	5446.56
1522.73	5569.91
1521.86	5753.91
1521	5536.21
1520.13	5691.26
1519.27	5661.39
1518.4	5640.2
1517.54	5717.19
1516.67	5823.02
1515.8	5654.6
1514.94	5486.24
1514.07	5597.82
1513.21	5631.48
1512.34	5578.58
1511.47	5672.79
1510.6	5735.25
1509.74	5601.64
1508.87	5675.62
1508	5530.54
1507.14	5630.44
1506.27	5713.01
1505.4	5775.4
1504.53	5817.6
1503.66	5756.13
1502.8	5778.16
1501.93	5595.82
1501.06	5686.95
1500.19	5628.42
1499.32	5782.8
1498.45	5689.76
1497.58	5915.98
1496.71	5771.18
1495.84	5660.93
1494.97	5763.44
1494.1	5667.6
1493.23	5778.68
1492.36	5651.27
1491.49	5618.7
1490.62	5701.01
1489.75	5745.97
1488.88	5799.53
1488.01	5666.48
1487.14	5969.73
1486.27	5802.26
1485.4	5741.01
1484.52	5797.38
1483.65	5721.81
1482.78	5798.25
1481.91	5791.51
1481.04	5839.24
1480.17	5815.3
1479.29	5748.38
1478.42	5896.38
1477.55	5815.15
1476.67	5771.18
1475.8	5804.54
1474.93	5869.39
1474.06	5885.55
1473.18	5727.11
1472.31	5886.37
1471.43	5876.77
1470.56	5709.83
1469.69	5754.61
1468.81	5839.4
1467.94	5752.62
1467.06	5926
1466.19	5959.27
1465.31	5998.24
1464.44	5760.06
1463.56	5987.6
1462.69	5832.32
1461.81	5919.84
1460.94	6024.46
1460.06	6011.99
1459.19	5933.89
1458.31	6001.35
1457.43	5812
1456.56	5848.07
1455.68	5969.7
1454.8	6020
1453.93	5967.64
1453.05	5960.9
1452.17	5860.11
1451.3	5924.63
1450.42	5972.04
1449.54	6053.62
1448.66	6035.48
1447.78	5911.98
1446.91	6019.15
1446.03	6049.42
1445.15	6034.14
1444.27	5956.26
1443.39	5892.63
1442.51	5888.76
1441.64	5893.43
1440.76	5838.37
1439.88	6110.32
1439	5978.49
1438.12	5988.82
1437.24	5973.57
1436.36	5952.64
1435.48	5903.31
1434.6	5822.76
1433.72	5813.23
1432.84	5965.55
1431.96	5848.11
1431.08	5710.86
1430.2	5917.03
1429.31	5935.87
1428.43	5929.16
1427.55	5888.42
1426.67	6091.58
1425.79	6022.47
1424.91	5987.41
1424.02	5932.51
1423.14	5988.16
1422.26	5992.79
1421.38	5906.76
1420.49	6075.68
1419.61	5992.5
1418.73	6067.9
1417.85	6086.67
1416.96	6190.34
1416.08	6121.34
1415.2	6182.52
1414.31	6283.3
1413.43	6197.35
1412.54	6320.7
1411.66	6302.64
1410.78	6120.61
1409.89	6099.76
1409.01	6242.83
1408.12	6089.16
1407.24	6172.85
1406.35	6078.57
1405.47	6001.26
1404.58	5909.86
1403.7	6100.8
1402.81	6017.88
1401.92	6070.46
1401.04	6114.54
1400.15	5941.39
1399.27	5872.66
1398.38	6091.61
1397.49	5856.51
1396.61	6047.2
1395.72	6094.07
1394.83	5926.73
1393.94	5863.71
1393.06	5921.85
1392.17	6005.32
1391.28	6021.17
1390.39	5938.46
1389.51	5864.23
1388.62	5975.8
1387.73	5865
1386.84	5954.02
1385.95	6034.57
1385.06	5859.12
1384.17	6102.77
1383.29	5918.94
1382.4	5931.97
1381.51	5947.8
1380.62	6177.21
1379.73	5900.76
1378.84	6006.49
1377.95	6022.3
1377.06	5973.5
1376.17	5916.3
1375.28	6061.26
1374.39	6051.78
1373.5	6019.85
1372.6	5985.13
1371.71	6138.39
1370.82	6241.1
1369.93	6077.35
1369.04	6045.45
1368.15	5996.73
1367.26	6124.63
1366.36	6095.53
1365.47	6114.08
1364.58	6037.37
1363.69	6111.95
1362.79	6194.9
1361.9	6011.81
1361.01	6178.74
1360.11	5995.71
1359.22	6173.78
1358.33	6119.54
1357.43	5967.39
1356.54	5963.55
1355.65	5875.82
1354.75	6042.56
1353.86	6114.19
1352.96	6093.56
1352.07	6019.83
1351.17	6150.11
1350.28	6118.3
1349.39	6033.43
1348.49	5984.9
1347.59	6089.96
1346.7	6161.48
1345.8	6009.68
1344.91	5986.3
1344.01	6216.85
1343.12	5998.16
1342.22	5893.9
1341.32	6118.77
1340.43	6187.41
1339.53	6161.23
1338.63	6029.15
1337.74	6072.68
1336.84	6219.3
1335.94	6076.13
1335.04	6253.34
1334.15	6121.35
1333.25	6114.71
1332.35	6174.89
1331.45	6115.35
1330.55	6111.5
1329.66	5968.52
1328.76	6045.37
1327.86	6186.17
1326.96	6096.1
1326.06	6025.51
1325.16	6296.91
1324.26	6320.82
1323.36	6175.2
1322.46	6138
1321.56	6206.38
1320.66	6324.73
1319.76	6398.6
1318.86	6200.34
1317.96	6443.56
1317.06	6375.81
1316.16	6097.17
1315.26	6445.72
1314.36	6316.97
1313.46	6493.39
1312.55	6458.97
1311.65	6543.8
1310.75	6367.99
1309.85	6350.25
1308.95	6404.56
1308.04	6539.21
1307.14	6770.77
1306.24	6750.2
1305.34	6505.3
1304.43	6548.47
1303.53	6622.07
1302.63	6576.62
1301.72	6730.44
1300.82	6679.45
1299.92	6675.52
1299.01	6917.75
1298.11	6811.45
1297.21	6912.56
1296.3	6938.99
1295.4	6843.8
1294.49	7085.79
1293.59	7197.83
1292.68	7329.17
1291.78	7250.55
1290.87	7414.97
1289.97	7137.56
1289.06	7312.98
1288.16	7292.38
1287.25	7282.82
1286.34	7342.24
1285.44	7429.23
1284.53	7245.88
1283.62	7228.06
1282.72	7097.2
1281.81	7148.33
1280.9	6976.19
1280	6853.71
1279.09	7001.29
1278.18	7000.06
1277.27	6874.88
1276.37	6802.07
1275.46	6833.92
1274.55	6554.67
1273.64	6633.34
1272.73	6579.89
1271.82	6752.07
1270.92	6528.06
1270.01	6463.65
1269.1	6424.01
1268.19	6414.63
1267.28	6322.79
1266.37	6522.32
1265.46	6361.78
1264.55	6335.94
1263.64	6348.56
1262.73	6396.88
1261.82	6299.64
1260.91	6446.8
1260	6319.38
1259.09	6126.14
1258.18	6281.49
1257.27	6294.1
1256.35	6292.99
1255.44	6278.17
1254.53	6323.68
1253.62	6147.09
1252.71	6189.87
1251.79	6397.09
1250.88	6289.09
1249.97	6033.17
1249.06	6160.86
1248.14	6214.55
1247.23	6046.41
1246.32	6102.85
1245.41	6257.8
1244.49	6319.65
1243.58	6168.03
1242.66	6161.47
1241.75	6239.72
1240.84	6123.75
1239.92	6139.07
1239.01	6250.09
1238.09	6109.57
1237.18	6305.28
1236.26	6208.53
1235.35	6144.59
1234.43	6102.54
1233.52	6270.79
1232.6	6204.15
1231.69	6279.5
1230.77	6262.02
1229.86	6132.64
1228.94	6066.06
1228.02	6125.02
1227.11	6167.58
1226.19	6221.04
1225.27	6209.03
1224.36	6112.52
1223.44	6108.71
1222.52	6107.63
1221.6	6182.85
1220.69	6230.8
1219.77	6088.06
1218.85	6065.19
1217.93	6287.41
1217.01	6171.95
1216.1	6097.37
1215.18	6243.26
1214.26	6051.68
1213.34	6257.37
1212.42	6256.27
1211.5	6363.95
1210.58	6123.54
1209.66	6299.17
1208.74	6393.2
1207.82	6234.44
1206.9	6208.88
1205.98	6327.32
1205.06	6195.82
1204.14	6175.72
1203.22	6171.91
1202.3	6282.13
1201.38	6169.73
1200.46	6328.76
1199.54	6254.38
1198.61	6296.68
1197.69	6108.41
1196.77	6213.09
1195.85	6382.82
1194.93	6137.7
1194	6234.19
1193.08	6322.52
1192.16	6288.89
1191.24	6168.57
1190.31	6240.62
1189.39	6290.97
1188.47	6408.99
1187.54	6424.1
1186.62	6379.65
1185.7	6324.4
1184.77	6420.69
1183.85	6349.21
1182.92	6396.78
1182	6468.66
1181.07	6464.81
1180.15	6347.42
1179.23	6413.87
1178.3	6574.88
1177.37	6503.46
1176.45	6388.85
1175.52	6565.98
1174.6	6429.8
1173.67	6326.06
1172.75	6535.5
1171.82	6380.5
1170.89	6457.62
1169.97	6391.73
1169.04	6398.69
1168.11	6268.09
1167.19	6358.67
1166.26	6360.24
1165.33	6092.24
1164.4	6207.05
1163.48	6448.47
1162.55	6377.28
1161.62	6211.83
1160.69	6291.53
1159.76	6271.56
1158.83	6143.91
1157.91	6183.2
1156.98	6209.02
1156.05	6320.93
1155.12	6309.05
1154.19	6235.3
1153.26	6331.02
1152.33	6367.54
1151.4	6156.71
1150.47	6163.68
1149.54	6262.02
1148.61	6293.16
1147.68	6369.95
1146.75	6390.31
1145.82	6300.55
1144.89	6315.54
1143.96	6360.06
1143.02	6315.98
1142.09	6395.37
1141.16	6345.94
1140.23	6256.28
1139.3	6341
1138.36	6484.7
1137.43	6387.02
1136.5	6233.07
1135.57	6320.42
1134.63	6327.33
1133.7	6454.82
1132.77	6472.43
1131.83	6388.25
1130.9	6507.62
1129.97	6367.23
1129.03	6604.36
1128.1	6455.97
1127.17	6556.52
1126.23	6512.54
1125.3	6519.41
1124.36	6657.34
1123.43	6621.39
1122.49	6585.45
1121.56	6522.79
1120.62	6615.18
1119.69	6565.9
1118.75	6880.01
1117.81	6731.87
1116.88	6770.73
1115.94	6809.58
1115.01	6714.92
1114.07	6753.77
1113.13	6725.88
1112.2	6716.68
1111.26	6774.18
1110.32	6623.59
1109.38	6662.42
1108.45	6663.9
1107.51	6625.38
1106.57	6512.25
1105.63	6732.3
1104.69	6789.72
1103.76	6708.59
1102.82	6574.2
1101.88	6746.15
1100.94	6630.44
1100	6839.59
1099.06	6753.19
1098.12	6807.88
1097.18	6913.1
1096.24	6768.2
1095.3	6849.46
1094.36	6792.39
1093.42	6897.54
1092.48	6914.92
1091.54	6780.78
1090.6	6726.42
1089.66	6642.85
1088.72	6577.91
1087.78	6765.32
1086.84	6570.25
1085.9	6508.01
1084.95	6711.26
1084.01	6702.1
1083.07	6533.72
1082.13	6572.35
1081.19	6703.82
1080.24	6503.7
1079.3	6497.23
1078.36	6466.91
1077.41	6627.47
1076.47	6655.44
1075.53	6511.15
1074.58	6454.35
1073.64	6482.33
1072.7	6459.99
1071.75	6490.61
1070.81	6566.24
1069.86	6520.06
1068.92	6415.67
1067.98	6411.88
1067.03	6532.44
1066.09	6449.27
1065.14	6419.03
1064.19	6404.66
1063.25	6392.94
1062.3	6323.07
1061.36	6472.59
1060.41	6529.57
1059.46	6412.15
1058.52	6582.7
1057.57	6433.63
1056.63	6435.12
1055.68	6455.09
1054.73	6403.78
1053.78	6500.29
1052.84	6448.99
1051.89	6424.09
1050.94	6457.24
1049.99	6453.44
1049.05	6304.63
1048.1	6556.59
1047.15	6413.08
1046.2	6493.63
1045.25	6468.76
1044.3	6486.04
1043.35	6548.1
1042.4	6633.83
1041.45	6395.67
1040.5	6491.93
1039.55	6419.7
1038.6	6476.45
1037.65	6522.65
1036.7	6518.85
1035.75	6388.8
1034.8	6379.77
1033.85	6433.84
1032.9	6598.31
1031.95	6515.65
1031	6585.43
1030.05	6631.55
1029.1	6514.78
1028.14	6621.29
1027.19	6575.47
1026.24	6364.25
1025.29	6554.73
1024.33	6498.44
1023.38	6633.73
1022.43	6561.71
1021.48	6610.37
1020.52	6598.7
1019.57	6539.82
1018.62	6541.27
1017.66	6568.94
1016.71	6541.55
1015.75	6561.34
1014.8	6649.24
1013.85	6642.81
1012.89	6628.52
1011.94	6598.53
1010.98	6534.52
1010.03	6669.46
1009.07	6500.77
1008.12	6614.73
1007.16	6773.13
1006.2	6782.38
1005.25	6770.7
1004.29	6646.59
1003.34	6671.54
1002.38	6835.01
1001.42	6833.79
1000.47	6795.98
999.508	6771.25
998.551	6767.42
997.594	6774.04
996.636	6686.66
995.679	6690.68
994.721	6754.73
993.763	6758.74
992.805	6783.62
991.846	6722.4
990.888	6655.99
989.929	6779.96
988.97	6721.39
988.011	6787.95
987.052	6685.09
986.093	6707.34
985.133	6641
984.173	6723.17
983.213	6727.17
982.253	6533.27
981.293	6727.35
980.333	6666.27
979.372	6566.18
978.411	6669.08
977.45	6743.33
976.489	6606.86
975.528	6714.9
974.566	6552.48
973.605	6540.9
972.643	6622.9
971.681	6616.51
970.719	6571.15
969.756	6655.7
968.794	6722.03
967.831	6710.44
966.868	6498.92
965.905	6614.57
964.942	6600.4
963.979	6568.07
963.015	6665.48
962.052	6573.49
961.088	6515.24
960.124	6586.68
959.159	6544.01
958.195	6589.49
957.23	6518.33
956.266	6587.12
955.301	6715.48
954.336	6747.94
953.37	6596.51
952.405	6673.01
951.439	6588.96
950.473	6662.84
949.507	6622.82
948.541	6533.65
947.575	6690.28
946.608	6606.3
945.642	6605.11
944.675	6645.3
943.708	6631.17
942.741	6710.1
941.773	6721.82
940.806	6798.12
939.838	6752.98
938.87	6705.27
937.902	6660.16
936.934	6617.64
935.965	6804.9
934.997	6659.13
934.028	6642.45
933.059	6628.35
932.09	6756.14
931.121	6677.54
930.151	6591.24
929.182	6608.1
928.212	6777.04
927.242	6670.15
926.272	6787.48
925.301	6799.14
924.331	6581.53
923.36	6796.68
922.389	6769.71
921.418	6778.78
920.447	6533.02
919.475	6727.44
918.504	6697.92
917.532	6676.13
916.56	6775.24
915.588	6907.74
914.616	6873.07
913.643	6851.26
912.671	6603.27
911.698	6807.67
910.725	6762.76
909.752	6702.45
908.779	6821.96
907.805	6625.55
906.831	6760.44
905.858	6859.33
904.883	6814.46
903.909	6723.41
902.935	6817.13
901.96	6856.94
900.986	6678.73
900.011	6831.38
899.036	6827.58
898.06	6785.33
897.085	6720.03
896.109	6816.19
895.133	6884.13
894.157	6800.92
893.181	6861.15
892.205	6811.26
891.229	6830.51
890.252	6980.3
889.275	6812.68
888.298	6998.24
887.321	6805.1
886.343	7036.63
885.366	6950.96
884.388	7036.64
883.41	6912.66
882.432	7005.98
881.454	7081.38
880.475	7008.55
879.497	7155.45
878.518	7062.2
877.539	7060.92
876.56	7011.13
875.58	6992
874.601	7126
873.621	7088.98
872.641	7049.43
871.661	6969.07
870.681	7210.1
869.701	7287.85
868.72	7108.06
867.739	7173.04
866.758	7209.97
865.777	7453.29
864.796	7281.24
863.815	7603.42
862.833	7576.57
861.851	7857.83
860.869	7976.06
859.887	8050.98
858.905	8146.22
857.922	8022.61
856.939	7937.21
855.956	8096.01
854.973	7883.47
853.99	7711.68
853.007	7728.08
852.023	7508.09
851.039	7455.9
850.055	7479.96
849.071	7374.45
848.087	7251.2
847.102	7376.85
846.118	7185.09
845.133	7295.48
844.148	7182.49
843.163	7295.37
842.177	7245.84
841.192	7115.16
840.206	7200.09
839.22	7267.25
838.234	7116.35
837.248	7094.78
836.261	7278.5
835.274	7000.99
834.288	7068.11
833.301	7223.87
832.313	7146.58
831.326	7173.14
830.339	7232.59
829.351	7119.91
828.363	7131.27
827.375	7147.68
826.387	7062.9
825.398	7324.66
824.409	7128.61
823.421	7225.92
822.432	7252.41
821.443	7059.01
820.453	7148.69
819.464	7154.97
818.474	7292.6
817.484	7117.01
816.494	7252.07
815.504	7205.31
814.513	7193.9
813.523	7129.5
812.532	7161
811.541	7152.13
810.55	7100.38
809.559	7202.49
808.567	7196.13
807.575	7184.74
806.583	7362.39
805.591	7212.36
804.599	7284.12
803.607	7239.97
802.614	7233.61
801.621	7249.92
800.628	7225.94
799.635	7128.97
798.642	7407.04
797.649	7201.86
796.655	7386.73
795.661	7236.97
794.667	7454.45
793.673	7360.06
792.678	7401.46
791.684	7347.32
790.689	7222.84
789.694	7261.72
788.699	7217.69
787.704	7231.45
786.708	7250.22
785.713	7281.54
784.717	7081.89
783.721	7165.93
782.724	7194.74
781.728	7241.1
780.731	7242.29
779.735	7426.57
778.738	7239.64
777.741	7388.76
776.743	7121.69
775.746	7280.79
774.748	7224.34
773.75	7330.75
772.752	7108.98
771.754	7363.14
770.756	7251.62
769.757	7090.06
768.758	7141.33
767.759	7255.15
766.76	7216.29
765.761	7295.03
764.761	7018.56
763.762	7174.83
762.762	7288.53
761.762	7312.2
760.762	7310.87
759.761	7317.03
758.761	7058.34
757.76	7136.99
756.759	7380.45
755.758	7349.14
754.756	7212.97
753.755	7338.96
752.753	7172.9
751.751	7296.35
750.749	7384.83
749.747	7343.57
748.745	7334.75
747.742	7286.03
746.739	7376.94
745.736	7208.59
744.733	7299.48
743.73	7402.79
742.726	7446.28
741.723	7325.36
740.719	7403.71
739.715	7347.58
738.71	7473.19
737.706	7272.71
736.701	7443.09
735.697	7469.09
734.692	7378.17
733.686	7279.82
732.681	7410.28
731.675	7398.98
730.67	7283.28
729.664	7495.68
728.658	7225.95
727.651	7433.31
726.645	7466.73
725.638	7271.65
724.631	7359.7
723.624	7229.26
722.617	7317.29
721.61	7415.22
720.602	7391.53
719.595	7469.56
718.587	7381.38
717.578	7479.22
716.57	7259.66
715.562	7469.04
714.553	7651.08
713.544	7429.13
712.535	7365.83
711.526	7473.48
710.516	7501.82
709.507	7401.4
708.497	7543.64
707.487	7552.15
706.477	7615.12
705.467	7645.89
704.456	7755.81
703.445	7660.39
702.434	7859.3
701.423	7667.47
700.412	7888.56
699.401	7617.7
698.389	7591.59
697.377	7708.79
696.365	7657.97
695.353	7456.5
694.34	7474.89
693.328	7522.9
692.315	7454.87
691.302	7485.58
690.289	7503.95
689.276	7386.61
688.262	7552.99
687.249	7413.5
686.235	7606.93
685.221	7630.19
684.206	7527.72
683.192	7583.02
682.177	7608.73
681.162	7356.06
680.147	7463.08
679.132	7631.63
678.117	7563.75
677.101	7449.12
676.086	7590.5
675.07	7584.18
674.054	7511.44
673.037	7510.06
672.021	7793.97
671.004	7772.86
669.987	7552.63
668.97	7472.58
667.953	7576.88
666.936	7604.97
665.918	7615.86
664.9	7607.09
663.882	7711.29
662.864	7638.66
661.846	7615.16
660.827	7635.85
659.808	7735.06
658.789	7586.42
657.77	7599.74
656.751	7456.09
655.731	7712.2
654.712	7664.2
653.692	7567.18
652.672	7590.3
651.652	7642.81
650.631	7514
649.611	7627.75
648.59	7599.4
647.569	7664.11
646.548	7794.9
645.526	7590.31
644.505	7628.06
643.483	7670.7
642.461	7847.87
641.439	7726.57
640.417	7796.07
639.394	7814.19
638.371	7680.74
637.348	7823.53
636.325	7834.31
635.302	8148.03
634.279	8300.42
633.255	8535.79
632.231	8509.8
631.207	8420.34
630.183	8186.9
629.159	8102.41
628.134	7944.75
627.109	7857.9
626.084	7914.99
625.059	7869.64
624.034	7741.39
623.008	7625.39
621.983	7865.28
620.957	7746.86
619.931	7721.06
618.904	7829.26
617.878	7915.49
616.851	7872.63
615.824	7756.75
614.797	7733.41
613.77	7712.51
612.743	7723.25
611.715	7780.21
610.687	7722.83
609.659	7765.18
608.631	7763.74
607.603	7699.1
606.574	7697.68
605.546	7795.89
604.517	7680.26
603.487	7700.7
602.458	7701.71
601.429	7693
600.399	7718.28
599.369	7804.24
598.339	7861.05
597.309	7692.16
596.278	7918.79
595.248	7861.54
594.217	7906.16
593.186	7887.73
592.155	7762.63
591.123	7887.23
590.091	7476.22
589.06	7719.55
588.028	7722.97
586.996	7731.23
585.963	7705.58
584.931	7791.32
583.898	7826.19
582.865	7824.74
581.832	7811.19
580.798	7935.55
579.765	7871.19
578.731	7702.86
577.697	7972.25
576.663	8154.51
575.629	7821.85
574.594	7747.9
573.56	7741.63
572.525	7691.88
571.49	7849.87
570.455	7640.74
569.419	7578.96
568.384	7681.36
567.348	7803.02
566.312	7859.49
565.276	7715.69
564.239	7953.07
563.203	7920.24
562.166	7846.43
561.129	7955.88
560.092	7985.74
559.054	8005.95
558.017	8136.99
556.979	7877.71
555.941	7893.1
554.903	7877.19
553.865	7919.07
552.826	7802.05
551.787	7680.26
550.749	7714.93
549.709	7614.86
548.67	7599.01
547.631	7710.64
546.591	7781.34
545.551	7695.75
544.511	7732.78
543.471	7798.64
542.43	7653.02
541.39	7798.15
540.349	7724.64
539.308	7970.56
538.267	7709.77
537.225	8097.23
536.184	7850.91
535.142	7820.66
534.1	7778.42
533.058	7685.82
532.015	7749.14
530.973	7551.07
529.93	7549.67
528.887	7426.02
527.844	7340.76
526.801	7461.6
525.757	7517.71
524.713	7576.19
523.669	7651.42
522.625	7633.23
521.581	7741.93
520.537	7793.15
519.492	8026.22
518.447	7857.24
517.402	7860.57
516.357	7906.94
515.311	7793.08
514.265	7621.88
513.22	7572.66
512.174	7654.89
511.127	7519.66
510.081	7236.35
509.034	7232.62
507.987	7221.72
506.94	7229.93
505.893	7247.68
504.846	7391.92
503.798	7445.43
502.75	7479.84
501.702	7559.55
500.654	7756.1
499.606	7723.65
