3200.54	16.8392
3199.95	21.049
3199.35	-8.41831
3198.76	29.4596
3198.16	25.2473
3197.57	-4.20725
3196.98	29.4463
3196.38	16.8239
3195.79	8.41068
3195.19	4.2047
3194.6	16.8163
3194	12.6103
3193.41	8.40559
3192.81	21.0108
3192.22	33.6122
3191.62	33.6071
3191.03	16.801
3190.43	29.3973
3189.84	41.9898
3189.24	25.1901
3188.65	-20.9886
3188.05	-8.39416
3187.45	12.5893
3186.86	20.979
3186.26	0
3185.67	20.9727
3185.07	12.5817
3184.47	0
3183.88	29.3485
3183.28	20.96
3182.69	25.1482
3182.09	25.1444
3181.49	29.3307
3180.9	16.7579
3180.3	29.3218
3179.7	-8.37639
3179.1	8.37512
3178.51	8.37386
3177.91	33.4904
3177.31	8.37132
3176.72	46.0353
3176.12	16.7376
3175.52	16.735
3174.92	20.9156
3174.33	4.18249
3173.73	12.5456
3173.13	16.7249
3172.53	20.903
3171.93	4.17996
3171.34	-4.17933
3170.74	4.17869
3170.14	20.8903
3169.54	20.8871
3168.94	4.17679
3168.34	20.8808
3167.74	16.7021
3167.15	20.8745
3166.55	25.0456
3165.95	29.2154
3165.35	41.73
3164.75	16.6895
3164.15	20.8587
3163.55	33.3688
3162.95	12.5114
3162.35	-12.5095
3161.75	4.16921
3161.15	29.18
3160.55	45.8474
3159.95	50.0077
3159.35	8.33336
3158.75	24.9963
3158.15	20.8271
3157.55	-12.4943
3156.95	37.4774
3156.35	12.4906
3155.75	20.8144
3155.15	12.4868
3154.55	4.16163
3153.95	45.7709
3153.35	24.9622
3152.75	33.2779
3152.15	-12.4773
3151.54	16.6339
3150.94	33.2627
3150.34	12.4716
3149.74	16.6263
3149.14	37.4035
3148.54	33.2425
3147.94	8.30937
3147.33	4.15406
3146.73	-8.30685
3146.13	20.764
3145.53	45.6738
3144.93	4.15153
3144.32	20.7545
3143.72	24.9016
3143.12	16.5986
3142.52	24.8941
3141.91	33.1871
3141.31	16.591
3140.71	4.14712
3140.1	24.879
3139.5	16.5835
3138.9	29.0167
3138.29	29.0122
3137.69	20.7199
3137.09	29.0034
3136.48	24.8563
3135.88	12.4263
3135.28	20.7073
3134.67	16.5633
3134.07	28.9814
3133.47	41.3957
3132.86	8.27789
3132.26	16.5533
3131.65	24.8261
3131.05	12.4112
3130.45	28.955
3129.84	24.8148
3129.24	16.5407
3128.63	8.26909
3128.03	41.3391
3127.42	41.3329
3126.82	12.398
3126.21	4.13203
3125.61	37.1826
3125	53.7001
3124.4	16.5206
3123.79	12.3886
3123.19	41.2889
3122.58	20.6413
3121.97	-8.25527
3121.37	20.635
3120.76	37.1374
3120.16	16.503
3119.55	41.2512
3118.94	28.8715
3118.34	37.1148
3117.73	24.7395
3117.13	45.3488
3116.52	8.24398
3115.91	24.7282
3115.31	20.6037
3114.7	8.24021
3114.09	4.11948
3113.48	28.832
3112.88	24.7094
3112.27	28.8232
3111.66	16.4679
3111.06	49.3962
3110.45	32.9258
3109.84	24.6906
3109.23	0
3108.63	12.3415
3108.02	24.6793
3107.41	28.7881
3106.8	16.4479
3106.19	37.002
3105.59	24.6643
3104.98	20.5504
3104.37	28.7662
3103.76	20.5442
3103.15	24.6492
3102.54	24.6455
3101.93	36.9626
3101.33	20.5317
3100.72	28.7399
3100.11	20.5254
3099.5	12.3134
3098.89	4.10383
3098.28	32.8256
3097.67	41.0258
3097.06	32.8156
3096.45	20.5066
3095.84	32.8056
3095.23	16.4003
3094.62	24.5967
3094.01	24.593
3093.4	16.3928
3092.79	53.2685
3092.18	53.2604
3091.57	20.4817
3090.96	28.6699
3090.35	36.8557
3089.74	45.039
3089.13	65.5013
3088.52	65.4914
3087.91	53.2036
3087.3	53.1955
3086.69	61.3701
3086.08	57.27
3085.46	61.3514
3084.85	44.9841
3084.24	69.5103
3083.63	65.4115
3083.02	73.5767
3082.41	85.8264
3081.79	73.5543
3081.18	57.2002
3080.57	53.1063
3079.96	61.2672
3079.35	102.096
3078.73	65.3317
3078.12	77.5696
3077.51	97.9677
3076.9	65.3018
3076.28	77.5341
3075.67	53.0415
3075.06	81.5899
3074.45	65.262
3073.83	61.1738
3073.22	77.4749
3072.61	61.1551
3071.99	36.6874
3071.38	61.1364
3070.77	65.2022
3070.15	57.0432
3069.54	36.665
3068.93	57.0258
3068.31	73.3077
3067.7	36.6483
3067.08	16.2856
3066.47	40.7078
3065.86	61.0524
3065.24	77.3213
3064.63	48.827
3064.01	52.8879
3063.4	69.1505
3062.78	52.8717
3062.17	32.5315
3061.55	32.5265
3060.94	40.6519
3060.32	52.8394
3059.71	44.7034
3059.09	28.4433
3058.48	44.6898
3057.86	44.6829
3057.25	48.7376
3056.63	16.2434
3056.02	8.12045
3055.4	8.11921
3054.78	48.7078
3054.17	44.642
3053.55	36.5197
3052.94	24.3427
3052.32	20.2825
3051.7	40.5588
3051.09	32.4421
3050.47	28.3825
3049.85	36.4862
3049.24	40.534
3048.62	40.5278
3048	28.3651
3047.39	20.2577
3046.77	8.10184
3046.15	48.6036
3045.53	8.09936
3044.92	20.2453
3044.3	28.3391
3043.68	20.2391
3043.06	28.3304
3042.45	40.4658
3041.83	32.3677
3041.21	12.136
3040.59	40.4473
3039.97	24.2646
3039.35	28.3044
3038.74	24.2572
3038.12	28.2958
3037.5	16.1665
3036.88	-8.08203
3036.26	20.202
3035.64	28.2784
3035.02	12.1175
3034.41	36.3469
3033.79	28.2654
3033.17	40.373
3032.55	0
3031.93	36.3246
3031.31	28.2481
3030.69	36.3135
3030.07	36.3079
3029.45	64.5375
3028.83	16.1319
3028.21	28.2265
3027.59	28.2222
3026.97	36.2801
3026.35	44.3356
3025.73	60.4483
3025.11	32.2342
3024.49	48.3438
3023.87	12.0841
3023.25	0
3022.63	56.3752
3022	24.1571
3021.38	52.3324
3020.76	24.1497
3020.14	20.1217
3019.52	32.1897
3018.9	16.0924
3018.28	36.2023
3017.66	40.2187
3017.03	48.255
3016.41	36.1857
3015.79	40.2002
3015.17	28.1358
3014.55	20.0939
3013.92	52.2362
3013.3	28.1229
3012.68	40.1693
3012.06	52.2121
3011.43	4.0157
3010.81	4.01509
3010.19	52.1881
3009.57	64.2217
3008.94	52.1721
3008.32	56.1767
3007.7	44.1321
3007.07	36.1025
3006.45	36.097
3005.83	48.1219
3005.2	24.0573
3004.58	44.0982
3003.96	40.0831
3003.33	52.1001
3002.71	56.0992
3002.08	44.0712
3001.46	48.0703
3000.84	72.0943
3000.21	32.037
2999.59	36.0361
2998.96	52.0441
2998.34	60.0417
2997.71	36.0195
2997.09	84.0326
2996.46	72.0169
2995.84	52.0042
2995.21	47.9965
2994.59	39.9909
2993.96	27.9894
2993.34	63.9658
2992.71	63.956
2992.09	63.9462
2991.46	47.9523
2990.84	55.9357
2990.21	63.9167
2989.58	35.9476
2988.96	35.9421
2988.33	51.9084
2987.71	55.8928
2987.08	47.9007
2986.45	39.9111
2985.83	55.867
2985.2	51.8685
2984.57	43.882
2983.95	31.9093
2983.32	59.8207
2982.69	39.8743
2982.07	67.7759
2981.44	75.7379
2980.81	75.7263
2980.18	59.7747
2979.56	55.7812
2978.93	51.7888
2978.3	55.764
2977.67	27.8777
2977.05	63.7107
2976.42	59.7196
2975.79	47.7683
2975.16	39.8008
2974.53	63.6715
2973.91	47.7463
2973.28	63.6519
2972.65	59.6645
2972.02	91.4714
2971.39	79.5281
2970.76	83.4917
2970.13	75.5285
2969.5	79.4914
2968.88	51.6615
2968.25	83.4403
2967.62	75.482
2966.99	71.4983
2966.36	99.2878
2965.73	107.214
2965.1	47.6435
2964.47	75.4239
2963.84	99.2267
2963.21	95.243
2962.58	83.3248
2961.95	83.3119
2961.32	67.4326
2960.69	103.116
2960.06	67.4118
2959.43	95.155
2958.8	87.212
2958.17	134.761
2957.53	95.111
2956.9	71.3223
2956.27	59.4261
2955.64	91.106
2955.01	91.0919
2954.38	83.1581
2953.75	71.2674
2953.12	71.2564
2952.48	91.0358
2951.85	79.1494
2951.22	75.1803
2950.59	87.0375
2949.96	79.1128
2949.33	79.1006
2948.69	75.134
2948.06	83.03
2947.43	75.1108
2946.8	55.3363
2946.16	39.5198
2945.53	63.2219
2944.9	79.0152
2944.26	75.0529
2943.63	43.445
2943	39.4893
2942.37	43.4316
2941.73	75.0066
2941.1	51.3124
2940.47	78.93
2939.83	39.4589
2939.2	71.0151
2938.56	43.3914
2937.93	43.3847
2937.3	43.378
2936.66	43.3713
2936.03	43.3646
2935.39	51.2412
2934.76	51.2333
2934.13	43.3445
2933.49	43.3379
2932.86	23.6352
2932.22	59.0788
2931.59	39.3798
2930.95	31.499
2930.32	51.1779
2929.68	39.3616
2929.05	27.5488
2928.41	66.894
2927.78	51.1463
2927.14	43.271
2926.5	35.3981
2925.87	11.7975
2925.23	55.0467
2924.6	62.9008
2923.96	47.1683
2923.32	27.5106
2922.69	23.5769
2922.05	39.2887
2921.42	51.0674
2920.78	39.2766
2920.14	47.1246
2919.51	47.1173
2918.87	39.2583
2918.23	35.3271
2917.6	43.1708
2916.96	43.1642
2916.32	35.3107
2915.68	50.9964
2915.05	58.8329
2914.41	43.1375
2913.77	54.8938
2913.13	35.2834
2912.5	39.1977
2911.86	43.1108
2911.22	47.0227
2910.58	35.2616
2909.94	58.7602
2909.31	50.9176
2908.67	35.2452
2908.03	78.3106
2907.39	58.7239
2906.75	58.7148
2906.11	46.9646
2905.47	58.6966
2904.83	35.2125
2904.2	74.3261
2903.56	46.9355
2902.92	50.8389
2902.28	39.1008
2901.64	43.0043
2901	35.1799
2900.36	39.0827
2899.72	27.3536
2899.08	62.5129
2898.44	62.5033
2897.8	39.0585
2897.16	54.6734
2896.52	39.0464
2895.88	31.2323
2895.24	42.9377
2894.6	50.7367
2893.96	50.7289
2893.32	23.4097
2892.67	62.4162
2892.03	39.0041
2891.39	54.5973
2890.75	50.6896
2890.11	54.5804
2889.47	50.6739
2888.83	50.6661
2888.19	42.8647
2887.54	74.0275
2886.9	54.5381
2886.26	50.6347
2885.62	31.155
2884.98	19.4688
2884.33	46.718
2883.69	19.4628
2883.05	42.8116
2882.41	50.5876
2881.77	35.0168
2881.12	46.6818
2880.48	62.2328
2879.84	46.6673
2879.19	46.6601
2878.55	38.8774
2877.91	77.7427
2877.26	54.4115
2876.62	54.403
2875.98	46.6239
2875.33	50.5014
2874.69	19.4206
2874.05	69.9034
2873.4	50.4779
2872.76	34.9409
2872.11	11.6451
2871.47	38.8111
2870.83	31.0441
2870.18	38.7991
2869.54	23.2758
2868.89	34.9083
2868.25	34.9029
2867.6	46.53
2866.96	46.5228
2866.31	38.763
2865.67	27.1299
2865.02	38.751
2864.38	50.3684
2863.73	58.1084
2863.09	46.4795
2862.44	23.2361
2861.8	42.593
2861.15	23.2289
2860.5	46.4506
2859.86	34.8326
2859.21	11.6091
2858.57	50.2981
2857.92	34.8164
2857.27	23.2073
2856.63	30.9383
2855.98	58.0002
2855.33	38.6608
2854.69	46.3858
2854.04	65.703
2853.39	42.5071
2852.75	42.5005
2852.1	15.4523
2851.45	42.4873
2850.81	27.0332
2850.16	23.1677
2849.51	38.6068
2848.86	42.4609
2848.21	54.0327
2847.57	61.7421
2846.92	19.2914
2846.27	50.1499
2845.62	42.4279
2844.97	3.85648
2844.33	30.8471
2843.68	42.4081
2843.03	50.1109
2842.38	19.2704
2841.73	53.9488
2841.08	26.9702
2840.43	38.5229
2839.78	34.6652
2839.14	46.2131
2838.49	61.6078
2837.84	34.649
2837.19	50.0408
2836.54	53.8817
2835.89	46.1771
2835.24	57.7125
2834.59	34.6221
2833.94	38.463
2833.29	34.6113
2832.64	53.8314
2831.99	57.6676
2831.34	57.6586
2830.69	42.2764
2830.04	73.0115
2829.39	49.9475
2828.74	38.4151
2828.08	34.5683
2827.43	61.4451
2826.78	42.2369
2826.13	38.3912
2825.48	30.7082
2824.83	46.0551
2824.18	46.048
2823.53	61.3877
2822.87	34.5252
2822.22	34.5198
2821.57	30.6795
2820.92	42.1778
2820.27	34.5037
2819.61	45.9978
2818.96	61.3208
2818.31	45.9835
2817.66	26.8195
2817	49.7999
2816.35	49.7921
2815.7	53.614
2815.05	61.2636
2814.39	72.7391
2813.74	61.2445
2813.09	34.4446
2812.43	42.0924
2811.78	68.8678
2811.13	61.2063
2810.47	38.248
2809.82	26.7694
2809.16	22.9416
2808.51	45.8761
2807.86	3.82241
2807.2	53.5054
2806.55	26.7485
2805.89	64.9506
2805.24	64.9405
2804.58	38.1943
2803.93	61.1014
2803.28	61.0919
2802.62	41.9941
2801.97	80.1581
2801.31	68.6962
2800.66	38.1586
2800	68.6748
2799.34	38.1467
2798.69	41.9548
2798.03	53.3887
2797.38	19.0644
2796.72	64.809
2796.07	45.7404
2795.41	49.5443
2794.75	15.242
2794.1	53.3388
2793.44	38.0932
2792.79	41.896
2792.13	64.7382
2791.47	45.6904
2790.82	53.2972
2790.16	49.4825
2789.5	60.892
2788.84	83.7135
2788.19	68.4821
2787.53	45.6476
2786.87	53.2472
2786.22	49.4362
2785.56	60.835
2784.9	53.2223
2784.24	41.811
2783.59	60.8065
2782.93	60.797
2782.27	60.7875
2781.61	37.9863
2780.95	56.9705
2780.29	41.7718
2779.64	45.5621
2778.98	53.1475
2778.32	60.7305
2777.66	53.1309
2777	60.7116
2776.34	26.5572
2775.68	60.6926
2775.02	53.0977
2774.36	64.4657
2773.71	56.8726
2773.05	60.6546
2772.39	41.6936
2771.73	56.846
2771.07	68.2045
2770.41	34.0969
2769.75	49.2434
2769.09	56.8104
2768.43	45.4412
2767.77	41.6479
2767.11	34.0703
2766.45	45.4199
2765.79	41.6284
2765.12	26.4867
2764.46	30.2657
2763.8	41.6089
2763.14	52.9485
2762.48	60.5031
2761.82	34.0276
2761.16	79.3854
2760.5	45.356
2759.83	52.907
2759.17	49.1203
2758.51	30.2231
2757.85	45.3276
2757.19	37.7671
2756.53	52.8657
2755.86	56.6329
2755.2	52.8491
2754.54	79.2613
2753.88	71.7013
2753.21	56.5975
2752.55	56.5886
2751.89	52.8077
2751.23	45.2567
2750.56	64.1036
2749.9	45.2425
2749.24	75.3924
2748.57	41.4593
2747.91	71.6003
2747.25	45.2142
2746.58	22.6036
2745.92	41.4334
2745.25	67.7894
2744.59	64.0133
2743.93	64.0033
2743.26	63.9932
2742.6	60.2195
2741.93	37.6313
2741.27	94.0635
2740.61	45.1434
2739.94	52.659
2739.28	56.4116
2738.61	48.8823
2737.95	67.6726
2737.28	63.903
2736.62	33.8257
2735.95	41.3361
2735.29	56.3585
2734.62	48.8364
2733.95	30.0484
2733.29	48.8211
2732.62	56.3232
2731.96	60.0686
2731.29	45.0444
2730.62	56.2967
2729.96	67.5454
2729.29	56.279
2728.63	52.5188
2727.96	41.2583
2727.29	67.503
2726.63	44.995
2725.96	48.7369
2725.29	56.2261
2724.62	29.9825
2723.96	59.9556
2723.29	93.666
2722.62	56.1908
2721.96	48.691
2721.29	67.4078
2720.62	48.6757
2719.95	71.1303
2719.28	48.6605
2718.62	37.4252
2717.95	59.871
2717.28	41.1548
2716.61	56.1114
2715.94	29.9214
2715.27	52.3542
2714.61	44.868
2713.94	56.0762
2713.27	37.3783
2712.6	41.1096
2711.93	56.0498
2711.26	33.6246
2710.59	48.5612
2709.92	37.3489
2709.25	67.2175
2708.58	52.272
2707.91	78.3957
2707.24	44.7905
2706.57	63.4433
2705.9	33.5823
2705.23	74.6157
2704.56	52.2228
2703.89	55.9442
2703.22	52.2063
2702.55	59.655
2701.88	63.3735
2701.21	48.4545
2700.54	55.9002
2699.87	63.3436
2699.2	63.3336
2698.53	37.2492
2697.86	44.692
2697.19	40.9613
2696.51	48.4012
2695.84	33.5032
2695.17	63.2739
2694.5	59.5425
2693.83	48.3707
2693.15	33.4821
2692.48	40.9162
2691.81	37.1907
2691.14	63.2142
2690.47	63.2043
2689.79	74.3463
2689.12	48.3175
2688.45	40.8776
2687.77	59.4489
2687.1	59.4396
2686.43	70.5734
2685.76	77.9899
2685.08	51.9851
2684.41	63.1148
2683.74	40.8325
2683.06	59.3834
2682.39	63.085
2681.71	63.075
2681.04	59.3554
2680.37	55.6369
2679.69	51.9196
2679.02	48.2035
2678.34	48.1959
2677.67	55.6019
2676.99	44.4745
2676.32	59.29
2675.65	77.8059
2674.97	96.3159
2674.3	74.0775
2673.62	51.8461
2672.95	44.4325
2672.27	70.3403
2671.59	40.7169
2670.92	66.6172
2670.24	62.9063
2669.57	70.296
2668.89	51.7889
2668.22	70.2738
2667.54	66.5647
2666.86	62.8568
2666.19	55.4531
2665.51	92.4073
2664.83	66.5228
2664.16	66.5123
2663.48	40.64
2662.8	59.1034
2662.13	44.3205
2661.45	48.0063
2660.77	81.2287
2660.1	62.7577
2659.42	51.6747
2658.74	51.6665
2658.06	51.6584
2657.39	59.0288
2656.71	70.0857
2656.03	62.6983
2655.35	77.4387
2654.68	55.3046
2654	51.6095
2653.32	55.2872
2652.64	51.5932
2651.96	70.0083
2651.28	62.6291
2650.6	73.6697
2649.93	55.2435
2649.25	69.9641
2648.57	51.5444
2647.89	73.6232
2647.21	58.8892
2646.53	58.8799
2645.85	69.9089
2645.17	47.8248
2644.49	69.8868
2643.81	80.9088
2643.13	62.5106
2642.45	69.8537
2641.77	66.1667
2641.09	47.7795
2640.41	55.1215
2639.73	80.8321
2639.05	91.8402
2638.37	66.1145
2637.69	84.4663
2637.01	55.078
2636.33	84.4396
2635.65	66.0727
2634.96	55.0519
2634.28	58.7127
2633.6	55.0345
2632.92	55.0258
2632.24	77.0239
2631.56	73.3445
2630.88	54.9997
2630.19	69.6553
2629.51	47.6513
2628.83	76.963
2628.15	54.9649
2627.46	76.9387
2626.78	76.9265
2626.1	69.5892
2625.42	76.9022
2624.73	84.2129
2624.05	87.8604
2623.37	76.8657
2622.69	91.4923
2622	76.8414
2621.32	54.878
2620.64	73.1591
2619.95	95.0918
2619.27	54.852
2618.58	98.718
2617.9	65.8016
2617.22	62.1361
2616.53	58.4718
2615.85	73.0781
2615.16	98.6399
2614.48	76.7077
2613.79	62.0869
2613.11	91.2898
2612.43	65.7183
2611.74	73.0087
2611.06	94.8963
2610.37	102.18
2609.69	62.0279
2609	80.2588
2608.31	80.246
2607.63	61.9985
2606.94	54.6959
2606.26	72.9163
2605.57	69.2595
2604.89	65.6039
2604.2	94.7461
2603.51	61.9396
2602.83	47.3581
2602.14	72.847
2601.45	76.4772
2600.77	61.9003
2600.08	50.9687
2599.39	54.6006
2598.71	94.6261
2598.02	72.7778
2597.33	72.7662
2596.65	61.8415
2595.96	69.106
2595.27	72.7316
2594.58	65.4481
2593.9	69.0731
2593.21	83.6016
2592.52	72.6855
2591.83	90.8425
2591.14	83.5618
2590.46	90.8136
2589.77	90.7992
2589.08	68.9965
2588.39	87.1396
2587.7	83.4956
2587.01	54.445
2586.32	97.9854
2585.64	87.0843
2584.95	94.3264
2584.26	65.2925
2583.57	72.5357
2582.88	83.4029
2582.19	54.3845
2581.5	76.1263
2580.81	76.1142
2580.12	79.726
2579.43	90.5834
2578.74	76.0779
2578.05	65.1993
2577.36	97.7834
2576.67	94.1469
2575.98	61.5478
2575.29	50.6784
2574.6	68.7669
2573.91	75.9934
2573.22	68.745
2572.52	79.5869
2571.83	79.5742
2571.14	50.6301
2570.45	65.0855
2569.76	65.0752
2569.07	79.5237
2568.38	93.9676
2567.68	54.2035
2566.99	79.4858
2566.3	83.0856
2565.61	72.2368
2564.92	57.7803
2564.22	83.0459
2563.53	64.9821
2562.84	68.5814
2562.14	93.8333
2561.45	72.168
2560.76	61.333
2560.07	75.7523
2559.37	79.3469
2558.68	79.3343
2557.99	75.7161
2557.29	79.3091
2556.6	75.6921
2555.91	75.68
2555.21	75.668
2554.52	79.2586
2553.82	68.4397
2553.13	93.6395
2552.44	82.8217
2551.74	72.0074
2551.05	82.7954
2550.35	71.9845
2549.66	86.3677
2548.96	97.1482
2548.27	71.9502
2547.57	64.7448
2546.88	57.5418
2546.18	82.7032
2545.49	86.2853
2544.79	43.1358
2544.1	107.822
2543.4	79.057
2542.7	100.602
2542.01	64.6624
2541.31	64.6521
2540.62	57.4594
2539.92	50.269
2539.22	114.882
2538.53	64.611
2537.83	96.901
2537.13	100.474
2536.44	60.9923
2535.74	64.5698
2535.04	78.9061
2534.35	75.3075
2533.65	93.2229
2532.95	96.793
2532.25	86.0245
2531.56	96.7622
2530.86	82.4139
2530.16	75.2355
2529.46	89.5518
2528.76	60.8855
2528.07	96.6851
2527.37	75.1875
2526.67	89.4947
2525.97	68.0051
2525.27	71.5729
2524.57	89.4519
2523.88	60.8176
2523.18	89.4234
2522.48	60.7982
2521.78	100.122
2521.08	78.6549
2520.38	92.941
2519.68	82.2039
2518.98	71.4703
2518.28	85.7506
2517.58	78.5922
2516.88	92.8669
2516.18	85.7096
2515.48	71.4133
2514.78	67.8318
2514.08	89.2381
2513.38	60.6722
2512.68	82.0729
2511.98	53.5172
2511.28	96.3157
2510.58	99.867
2509.88	85.5866
2509.17	78.4418
2508.47	67.7344
2507.77	85.5456
2507.07	114.043
2506.37	67.702
2505.67	85.5046
2504.97	71.2425
2504.26	67.6695
2503.56	85.4637
2502.86	96.1313
2502.16	64.0773
2501.45	88.982
2500.75	64.0568
2500.05	81.8373
2499.35	67.5939
2498.64	56.9121
2497.94	60.4594
2497.24	85.3409
2496.53	85.3272
2495.83	88.8683
2495.13	71.0833
2494.42	103.054
2493.72	106.591
2493.02	71.0492
2492.31	95.9011
2491.61	85.2318
2490.9	92.3197
2490.2	106.506
2489.5	99.3894
2488.79	74.5302
2488.09	106.455
2487.38	81.6022
2486.68	81.5891
2485.97	95.7632
2485.27	67.3782
2484.56	124.098
2483.86	74.4468
2483.15	85.0684
2482.45	88.5988
2481.74	88.5846
2481.04	81.4848
2480.33	77.9295
2479.62	85.0004
2478.92	77.9045
2478.21	106.216
2477.51	74.3396
2476.8	67.2489
2476.09	70.777
2475.39	91.9954
2474.68	77.8298
2473.97	81.3545
2473.27	99.0244
2472.56	67.1843
2471.85	109.599
2471.14	88.3721
2470.44	77.755
2469.73	77.7426
2469.02	91.8629
2468.31	88.3155
2467.61	91.8335
2466.9	67.0983
2466.19	98.8659
2465.48	91.7893
2464.77	102.364
2464.07	109.406
2463.36	52.9299
2462.65	84.6743
2461.94	88.1883
2461.23	98.7551
2460.52	52.896
2459.81	102.249
2459.1	77.556
2458.4	91.6424
2457.69	91.6277
2456.98	81.0423
2456.27	81.0293
2455.56	84.5387
2454.85	95.0908
2454.14	84.5116
2453.43	116.185
2452.72	84.4845
2452.01	73.9121
2451.3	80.9384
2450.59	87.9624
2449.88	84.4303
2449.16	77.3821
2448.45	70.336
2447.74	105.487
2447.03	80.8605
2446.32	91.3929
2445.61	52.7182
2444.9	87.8496
2444.19	84.322
2443.47	91.3342
2442.76	80.7827
2442.05	108.864
2441.34	52.6675
2440.63	77.2332
2439.91	108.811
2439.2	70.1895
2438.49	94.7406
2437.78	87.7087
2437.06	108.741
2436.35	80.6661
2435.64	87.6664
2434.93	80.6402
2434.21	66.6051
2433.5	108.654
2432.79	133.167
2432.07	94.6037
2431.36	91.0853
2430.64	91.0706
2429.93	70.0431
2429.22	84.0382
2428.5	84.0247
2427.79	91.0121
2427.07	80.4978
2426.36	80.4848
2425.65	94.467
2424.93	101.448
2424.22	87.4414
2423.5	111.907
2422.79	101.399
2422.07	83.9032
2421.36	94.376
2420.64	108.34
2419.92	122.3
2419.21	111.799
2418.49	83.8358
2417.78	104.778
2417.06	73.3327
2416.35	108.236
2415.63	97.7455
2414.91	69.807
2414.2	94.2243
2413.48	101.188
2412.76	94.194
2412.05	90.6907
2411.33	104.626
2410.61	66.2527
2409.9	90.647
2409.18	90.6324
2408.46	118.5
2407.74	94.088
2407.03	90.5886
2406.31	128.894
2405.59	97.5256
2404.87	125.37
2404.16	100.976
2403.44	104.441
2402.72	107.905
2402	100.927
2401.28	83.5127
2400.56	73.0618
2399.85	118.272
2399.13	107.818
2398.41	86.9363
2397.69	93.8761
2396.97	100.814
2396.25	90.3701
2395.53	93.8308
2394.81	128.562
2394.09	107.697
2393.37	93.7854
2392.65	114.608
2391.93	128.479
2391.21	114.571
2390.49	83.3111
2389.77	90.2392
2389.05	97.165
2388.33	86.7405
2387.61	114.479
2386.89	110.992
2386.17	97.1023
2385.45	117.891
2384.73	97.071
2384	110.92
2383.28	110.903
2382.56	97.0241
2381.84	93.5439
2381.12	93.5288
2380.4	103.904
2379.67	121.202
2378.95	96.9459
2378.23	100.392
2377.51	89.9921
2376.79	79.5956
2376.06	103.804
2375.34	89.9486
2374.62	107.229
2373.9	107.212
2373.17	82.9893
2372.45	103.72
2371.73	120.987
2371	120.967
2370.28	124.404
2369.56	117.473
2368.83	110.545
2368.11	103.619
2367.38	103.603
2366.66	113.945
2365.94	110.474
2365.21	107.004
2364.49	106.987
2363.76	106.97
2363.04	131.103
2362.31	93.1371
2361.59	106.918
2360.86	89.6586
2360.14	131.018
2359.41	117.208
2358.69	110.296
2357.96	134.401
2357.24	124.042
2356.51	110.242
2355.79	127.447
2355.06	99.8747
2354.33	92.9717
2353.61	110.171
2352.88	110.153
2352.15	127.344
2351.43	110.117
2350.7	110.1
2349.98	99.7617
2349.25	113.504
2348.52	130.68
2347.79	99.7133
2347.07	85.9459
2346.34	96.2438
2345.61	113.412
2344.88	85.9042
2344.16	96.1971
2343.43	75.5712
2342.7	127.077
2341.97	89.2826
2341.25	82.4013
2340.52	89.2537
2339.79	96.1038
2339.06	123.542
2338.33	99.5039
2337.6	120.071
2336.87	123.482
2336.14	126.892
2335.42	99.4395
2334.69	130.279
2333.96	130.258
2333.23	99.3912
2332.5	126.789
2331.77	116.49
2331.04	123.322
2330.31	147.278
2329.58	71.9147
2328.85	109.567
2328.12	126.666
2327.39	130.068
2326.66	106.091
2325.93	130.026
2325.2	106.057
2324.47	112.881
2323.73	116.283
2323	106.005
2322.27	105.988
2321.54	116.226
2320.81	112.789
2320.08	133.275
2319.35	126.42
2318.61	102.486
2317.88	92.2224
2317.15	99.0376
2316.42	136.581
2315.69	126.317
2314.95	150.191
2314.22	116.038
2313.49	126.256
2312.76	109.177
2312.02	112.57
2311.29	129.605
2310.56	139.814
2309.82	112.515
2309.09	102.27
2308.36	132.93
2307.62	146.54
2306.89	112.442
2306.16	109.017
2305.42	112.406
2304.69	132.822
2303.95	95.3438
2303.22	102.137
2302.48	91.9088
2301.75	119.122
2301.02	142.923
2300.28	125.888
2299.55	115.662
2298.81	159.86
2298.08	108.823
2297.34	108.805
2296.6	118.986
2295.87	122.366
2295.13	129.143
2294.4	142.714
2293.66	122.307
2292.93	101.906
2292.19	101.889
2291.45	132.434
2290.72	142.598
2289.98	139.18
2289.24	135.764
2288.51	125.561
2287.77	142.506
2287.03	142.483
2286.3	108.54
2285.56	125.48
2284.82	125.459
2284.08	118.658
2283.35	128.808
2282.61	142.344
2281.87	128.766
2281.13	145.685
2280.4	145.662
2279.66	111.769
2278.92	128.682
2278.18	108.347
2277.44	118.485
2276.7	125.235
2275.97	101.525
2275.23	142.112
2274.49	125.174
2273.75	131.919
2273.01	114.987
2272.27	145.401
2271.53	128.473
2270.79	114.931
2270.05	152.09
2269.31	121.652
2268.57	84.4669
2267.83	121.613
2267.09	172.256
2266.35	141.835
2265.61	94.5414
2264.87	121.533
2264.13	128.264
2263.39	151.867
2262.65	124.848
2261.91	138.323
2261.17	114.688
2260.42	134.905
2259.68	107.907
2258.94	138.233
2258.2	107.872
2257.46	117.965
2256.72	131.426
2255.97	94.3415
2255.23	131.383
2254.49	121.257
2253.75	131.34
2253	148.154
2252.26	138.03
2251.52	151.472
2250.78	151.447
2250.03	148.058
2249.29	127.847
2248.55	134.554
2247.8	151.349
2247.06	174.863
2246.32	110.953
2245.57	100.85
2244.83	137.806
2244.09	120.98
2243.34	151.201
2242.6	124.3
2241.85	127.639
2241.11	110.826
2240.36	161.176
2239.62	110.79
2238.88	144.339
2238.13	140.96
2237.39	127.514
2236.64	150.979
2235.89	150.954
2235.15	130.806
2234.4	181.086
2233.66	124.057
2232.91	134.094
2232.17	134.072
2231.42	140.753
2230.67	144.081
2229.93	144.057
2229.18	123.936
2228.44	127.265
2227.69	130.593
2226.94	127.223
2226.2	143.94
2225.45	133.875
2224.7	123.815
2223.95	150.561
2223.21	173.953
2222.46	103.686
2221.71	150.487
2220.96	153.806
2220.22	130.379
2219.47	123.673
2218.72	153.731
2217.97	143.681
2217.22	136.976
2216.48	177.038
2215.73	150.29
2214.98	150.266
2214.23	136.887
2213.48	146.879
2212.73	160.205
2211.98	126.808
2211.23	126.787
2210.48	133.439
2209.73	136.752
2208.98	136.73
2208.23	133.373
2207.48	176.691
2206.73	153.329
2205.98	159.969
2205.23	146.615
2204.48	153.254
2203.73	133.242
2202.98	169.856
2202.23	159.839
2201.48	146.495
2200.73	149.8
2199.98	149.775
2199.23	149.751
2198.48	143.072
2197.72	119.761
2196.97	106.437
2196.22	156.304
2195.47	136.328
2194.72	169.551
2193.97	129.635
2193.21	172.819
2192.46	169.468
2191.71	156.151
2190.96	162.769
2190.2	142.814
2189.45	179.319
2188.7	142.768
2187.94	142.744
2187.19	165.954
2186.44	136.06
2185.68	119.448
2184.93	172.508
2184.18	155.895
2183.42	162.502
2182.67	145.896
2181.91	162.449
2181.16	145.849
2180.41	152.453
2179.65	96.096
2178.9	159.029
2178.14	129.19
2177.39	142.417
2176.63	185.443
2175.88	155.614
2175.12	148.968
2174.37	165.493
2173.61	162.156
2172.86	185.291
2172.1	168.72
2171.34	148.846
2170.59	162.05
2169.83	158.717
2169.08	128.936
2168.32	152.054
2167.56	165.249
2166.81	122.264
2166.05	158.587
2165.29	128.831
2164.54	165.14
2163.78	148.602
2163.02	188.198
2162.27	161.758
2161.51	161.731
2160.75	145.204
2159.99	148.48
2159.23	171.549
2158.48	161.625
2157.72	164.897
2156.96	154.977
2156.2	154.952
2155.44	154.927
2154.69	177.971
2153.93	168.057
2153.17	158.145
2152.41	141.648
2151.65	144.919
2150.89	164.653
2150.13	151.456
2149.37	171.183
2148.61	187.612
2147.85	154.672
2147.09	174.389
2146.33	157.911
2145.57	154.596
2144.81	167.726
2144.05	144.681
2143.29	147.945
2142.53	138.059
2141.77	154.469
2141.01	177.446
2140.25	180.702
2139.49	151.108
2138.73	190.496
2137.97	160.91
2137.2	197
2136.44	154.291
2135.68	180.524
2134.92	144.396
2134.16	160.778
2133.4	186.996
2132.63	183.686
2131.87	173.817
2131.11	183.625
2130.35	180.316
2129.58	160.619
2128.82	157.315
2128.06	180.227
2127.29	134.329
2126.53	167.065
2125.77	167.037
2125	127.714
2124.24	150.612
2123.48	166.955
2122.71	196.385
2121.95	160.355
2121.19	173.417
2120.42	183.203
2119.66	196.256
2118.89	173.331
2118.13	150.413
2117.36	196.159
2116.6	160.17
2115.83	176.485
2115.07	192.795
2114.3	176.427
2113.54	189.464
2112.77	179.635
2112.01	186.136
2111.24	163.251
2110.48	143.637
2109.71	159.933
2108.94	212.121
2108.18	179.457
2107.41	199.002
2106.64	169.613
2105.88	172.846
2105.11	140.211
2104.34	140.188
2103.58	208.617
2102.81	192.287
2102.04	198.772
2101.28	185.707
2100.51	188.934
2099.74	159.591
2098.97	182.359
2098.21	182.329
2097.44	175.788
2096.67	159.485
2095.9	185.493
2095.13	182.209
2094.36	178.926
2093.6	172.391
2092.83	198.379
2092.06	185.34
2091.29	165.803
2090.52	172.277
2089.75	168.999
2088.98	185.218
2088.21	188.436
2087.44	217.64
2086.67	172.135
2085.9	175.354
2085.13	175.325
2084.36	181.788
2083.59	159.039
2082.82	175.238
2082.05	191.432
2081.28	165.448
2080.51	188.125
2079.74	168.636
2078.97	178.336
2078.2	210.726
2077.43	213.932
2076.65	207.415
2075.88	168.497
2075.11	220.306
2074.34	184.638
2073.57	165.175
2072.8	161.909
2072.02	210.447
2071.25	184.516
2070.48	171.539
2069.71	174.747
2068.93	181.189
2068.16	184.394
2067.39	203.77
2066.61	190.801
2065.84	197.236
2065.07	155.176
2064.29	187.474
2063.52	222.992
2062.75	193.874
2061.97	197.073
2061.2	190.58
2060.43	190.548
2059.65	174.371
2058.88	213.085
2058.1	154.945
2057.33	174.285
2056.55	200.072
2055.78	203.265
2055	200.005
2054.23	193.522
2053.45	187.04
2052.68	177.336
2051.9	215.992
2051.13	219.179
2050.35	209.475
2049.57	209.44
2048.8	219.07
2048.02	199.708
2047.25	183.572
2046.47	189.981
2045.69	154.536
2044.92	183.481
2044.14	209.198
2043.36	218.817
2042.59	196.259
2041.81	209.094
2041.03	231.573
2040.25	209.024
2039.48	237.927
2038.7	215.385
2037.92	167.136
2037.14	199.245
2036.37	208.851
2035.59	192.754
2034.81	176.662
2034.03	205.536
2033.25	231.19
2032.47	186.205
2031.69	231.113
2030.92	208.609
2030.14	224.619
2029.36	221.373
2028.58	214.921
2027.8	195.642
2027.02	224.47
2026.24	176.34
2025.46	195.545
2024.68	233.973
2023.9	217.912
2023.12	198.651
2022.34	201.822
2021.56	195.382
2020.78	224.172
2020	211.327
2019.21	204.889
2018.43	220.86
2017.65	208.022
2016.87	227.186
2016.09	239.945
2015.31	195.123
2014.53	195.091
2013.74	195.058
2012.96	211.012
2012.18	207.78
2011.4	220.53
2010.62	207.711
2009.83	210.872
2009.05	220.42
2008.27	233.159
2007.49	188.413
2006.7	191.574
2005.92	191.542
2005.14	194.702
2004.35	204.244
2003.57	204.21
2002.79	226.508
2002	223.28
2001.22	223.243
2000.43	229.584
1999.65	191.288
1998.87	219.944
1998.08	210.347
1997.3	238.991
1996.51	219.835
1995.73	222.984
1994.94	219.762
1994.16	232.463
1993.37	210.137
1992.59	226.019
1991.8	225.981
1991.02	206.85
1990.23	200.452
1989.44	216.325
1988.66	238.554
1987.87	254.415
1987.09	251.193
1986.3	203.464
1985.51	193.895
1984.73	197.041
1983.94	219.251
1983.15	212.86
1982.37	247.766
1981.58	254.077
1980.79	215.929
1980	250.817
1979.22	203.16
1978.43	238.038
1977.64	218.959
1976.85	237.959
1976.06	260.125
1975.28	231.536
1974.49	244.183
1973.7	234.63
1972.91	250.442
1972.12	228.213
1971.33	231.344
1970.54	240.811
1969.76	247.107
1968.97	218.558
1968.18	212.188
1967.39	272.315
1966.6	227.947
1965.81	231.074
1965.02	208.881
1964.23	224.668
1963.44	278.416
1962.65	202.45
1961.86	224.556
1961.07	234.005
1960.28	256.098
1959.48	240.25
1958.69	237.049
1957.9	240.169
1957.11	259.087
1956.32	255.885
1955.53	236.891
1954.74	227.377
1953.94	246.284
1953.15	258.871
1952.36	258.828
1951.57	249.317
1950.78	236.654
1949.98	233.459
1949.19	246.038
1948.4	271.227
1947.61	239.649
1946.81	242.762
1946.02	277.396
1945.23	214.316
1944.43	239.489
1943.64	258.353
1942.85	214.208
1942.05	248.818
1941.26	223.584
1940.46	264.478
1939.67	232.953
1938.88	261.242
1938.08	248.61
1937.29	270.594
1936.49	264.257
1935.7	239.05
1934.9	216.996
1934.11	245.259
1933.31	279.799
1932.52	235.747
1931.72	229.422
1930.93	241.952
1930.13	219.92
1929.33	235.589
1928.54	260.675
1927.74	235.51
1926.95	263.728
1926.15	263.684
1925.35	257.362
1924.56	266.733
1923.76	266.689
1922.96	250.959
1922.17	235.235
1921.37	257.147
1920.57	257.104
1919.77	238.252
1918.98	253.884
1918.18	222.503
1917.38	256.932
1916.58	241.225
1915.78	234.92
1914.99	241.145
1914.19	297.466
1913.39	266.11
1912.59	234.763
1911.79	234.724
1910.99	284.751
1910.19	290.96
1909.39	231.478
1908.59	259.587
1907.8	268.925
1907	237.615
1906.2	243.827
1905.4	256.288
1904.6	253.12
1903.8	243.705
1903	253.035
1902.2	243.623
1901.39	281.056
1900.59	246.664
1899.79	265.353
1898.99	277.794
1898.19	243.419
1897.39	287.061
1896.59	243.337
1895.79	255.773
1894.99	290.036
1894.18	268.16
1893.38	277.468
1892.58	271.188
1891.78	249.326
1890.98	255.516
1890.17	258.589
1889.37	255.431
1888.57	258.502
1887.76	267.801
1886.96	249.075
1886.16	261.485
1885.36	289.453
1884.55	211.608
1883.75	273.799
1882.94	258.199
1882.14	255.045
1881.34	267.442
1880.53	289.162
1879.73	264.243
1878.92	301.498
1878.12	270.37
1877.32	257.896
1876.51	257.853
1875.71	295.083
1874.9	313.667
1874.1	254.618
1873.29	276.307
1872.49	266.949
1871.68	270.007
1870.87	322.713
1870.07	300.942
1869.26	251.26
1868.46	294.638
1867.65	297.689
1866.84	313.141
1866.04	300.689
1865.23	294.44
1864.42	334.675
1863.62	294.341
1862.81	297.389
1862	266.366
1861.2	300.386
1860.39	297.239
1859.58	300.285
1858.77	287.854
1857.96	290.9
1857.16	278.475
1856.35	309.364
1855.54	290.754
1854.73	303.075
1853.92	265.919
1853.12	262.783
1852.31	278.194
1851.5	281.238
1850.69	271.92
1849.88	302.769
1849.07	299.63
1848.26	321.198
1847.45	324.232
1846.64	311.828
1845.83	293.254
1845.02	351.846
1844.21	249.954
1843.4	305.448
1842.59	243.7
1841.78	277.586
1840.97	292.958
1840.16	305.242
1839.35	369.928
1838.54	326.715
1837.72	335.905
1836.91	326.605
1836.1	292.663
1835.29	329.575
1834.48	274.086
1833.67	283.278
1832.85	310.937
1832.04	307.807
1831.23	313.91
1830.42	295.395
1829.6	249.197
1828.79	286.067
1827.98	298.321
1827.17	322.871
1826.35	279.774
1825.54	304.318
1824.73	313.487
1823.91	374.892
1823.1	331.816
1822.29	313.329
1821.47	288.705
1820.66	328.577
1819.84	285.538
1819.03	310.048
1818.21	346.827
1817.4	340.631
1816.58	355.914
1815.77	325.177
1814.95	300.585
1814.14	361.868
1813.32	321.947
1812.51	386.271
1811.69	303.447
1810.88	349.365
1810.06	333.986
1809.25	303.294
1808.43	352.252
1807.61	339.942
1806.8	333.761
1805.98	321.458
1805.16	358.136
1804.35	315.229
1803.53	333.535
1802.71	339.598
1801.89	305.893
1801.08	342.542
1800.26	357.773
1799.44	342.426
1798.62	333.198
1797.81	317.86
1796.99	366.699
1796.17	363.582
1795.35	339.082
1794.53	323.754
1793.71	369.505
1792.9	308.378
1792.08	348.012
1791.26	402.893
1790.44	387.566
1789.62	360.04
1788.8	338.624
1787.98	359.918
1787.16	323.262
1786.34	359.797
1785.52	332.298
1784.7	365.771
1783.88	356.567
1783.06	362.601
1782.24	322.934
1781.42	377.708
1780.6	368.508
1779.78	331.905
1778.95	353.161
1778.13	356.145
1777.31	380.432
1776.49	352.982
1775.67	340.752
1774.85	334.611
1774.02	355.844
1773.2	340.579
1772.38	349.643
1771.56	361.743
1770.74	425.508
1769.91	392.009
1769.09	373.713
1768.27	422.254
1767.44	376.623
1766.62	382.633
1765.8	419.004
1764.97	346.075
1764.15	394.58
1763.33	376.305
1762.5	391.412
1761.68	421.683
1760.85	415.545
1760.03	421.54
1759.21	403.276
1758.38	394.112
1757.56	391.015
1756.73	409.132
1755.91	418.153
1755.08	451.408
1754.26	411.953
1753.43	448.226
1752.6	463.29
1751.78	511.652
1750.95	469.187
1750.13	511.479
1749.3	550.73
1748.47	586.942
1747.65	608.018
1746.82	595.817
1745.99	659.219
1745.17	701.435
1744.34	728.522
1743.51	761.645
1742.69	821.954
1741.86	918.498
1741.03	939.488
1740.2	963.492
1739.38	1020.71
1738.55	1117.15
1737.72	1162.24
1736.89	1276.74
1736.06	1261.44
1735.23	1421.14
1734.4	1396.76
1733.58	1493.05
1732.75	1541.04
1731.92	1655.36
1731.09	1646.04
1730.26	1606.57
1729.43	1787.12
1728.6	1714.5
1727.77	1801.58
1726.94	1753.08
1726.11	1891.32
1725.28	1851.85
1724.45	1764.23
1723.62	1872.29
1722.79	1808.77
1721.96	1745.27
1721.13	1747.99
1720.3	1759.72
1719.46	1708.29
1718.63	1632.83
1717.8	1629.54
1716.97	1469.95
1716.14	1439.64
1715.31	1328.21
1714.47	1246.87
1713.64	1168.55
1712.81	1120.3
1711.98	969.957
1711.14	891.729
1710.31	867.562
1709.48	777.371
1708.65	744.229
1707.81	714.098
1706.98	671.978
1706.15	620.874
1705.31	593.779
1704.48	530.712
1703.64	512.634
1702.81	509.55
1701.98	488.485
1701.14	428.476
1700.31	452.369
1699.47	521.184
1698.64	458.205
1697.8	416.207
1696.97	452.061
1696.13	437.018
1695.3	424.973
1694.46	484.746
1693.63	454.746
1692.79	472.616
1691.95	448.609
1691.12	457.504
1690.28	427.529
1689.45	442.402
1688.61	430.372
1687.77	445.239
1686.94	403.336
1686.1	445.088
1685.26	421.119
1684.42	421.047
1683.59	415.004
1682.75	447.77
1681.91	393.97
1681.07	402.855
1680.24	405.77
1679.4	414.65
1678.56	399.667
1677.72	420.473
1676.88	447.236
1676.04	411.387
1675.21	396.414
1674.37	390.386
1673.53	402.238
1672.69	402.169
1671.85	405.079
1671.01	422.878
1670.17	378.144
1669.33	443.573
1668.49	410.756
1667.65	419.614
1666.81	422.518
1665.97	407.571
1665.13	407.501
1664.29	407.432
1663.45	407.362
1662.61	407.293
1661.77	425.058
1660.92	427.957
1660.08	398.17
1659.24	398.102
1658.4	398.034
1657.56	442.515
1656.72	418.684
1655.87	475.021
1655.03	439.32
1654.19	430.341
1653.35	356.084
1652.5	418.327
1651.66	424.188
1650.82	427.081
1649.98	409.216
1649.13	403.217
1648.29	432.791
1647.45	441.609
1646.6	432.643
1645.76	456.272
1644.91	408.797
1644.07	420.575
1643.23	411.619
1642.38	464.843
1641.54	464.763
1640.69	467.643
1639.85	420.215
1639	411.267
1638.16	420.072
1637.31	449.577
1636.47	431.757
1635.62	493.775
1634.78	467.084
1633.93	437.447
1633.08	499.432
1632.24	490.482
1631.39	516.986
1630.55	508.037
1629.7	531.575
1628.85	516.721
1628.01	531.393
1627.16	546.061
1626.31	537.114
1625.46	575.381
1624.62	651.987
1623.77	645.976
1622.92	757.933
1622.07	787.29
1621.23	881.496
1620.38	1081.78
1619.53	1205.38
1618.68	1467.42
1617.83	1850.17
1616.98	2247.51
1616.13	2662.39
1615.29	3159.57
1614.44	3515.27
1613.59	3835.52
1612.74	3896.67
1611.89	3834.21
1611.04	3757.05
1610.19	3276.93
1609.34	3058.73
1608.49	2637.7
1607.64	2252.1
1606.79	2045.94
1605.94	1813.41
1605.09	1607.4
1604.24	1310.38
1603.38	1313.09
1602.53	1177.76
1601.68	1068.91
1600.83	945.408
1599.98	977.537
1599.13	848.227
1598.27	771.784
1597.42	695.367
1596.57	665.912
1595.72	607.137
1594.87	604.101
1594.01	601.065
1593.16	562.852
1592.31	533.445
1591.45	515.771
1590.6	495.172
1589.75	500.946
1588.89	515.505
1588.04	518.345
1587.19	447.984
1586.33	477.182
1585.48	453.684
1584.62	468.239
1583.77	500.345
1582.92	432.972
1582.06	459.223
1581.21	508.86
1580.35	488.305
1579.5	488.221
1578.64	499.829
1577.78	458.829
1576.93	508.424
1576.07	525.865
1575.22	508.249
1574.36	478.957
1573.51	435.075
1572.65	432.081
1571.79	458.277
1570.94	423.177
1570.08	463.956
1569.22	466.794
1568.37	440.461
1567.51	452.051
1566.65	451.973
1565.79	443.149
1564.94	440.158
1564.08	428.424
1563.22	442.921
1562.36	410.796
1561.5	454.42
1560.65	454.342
1559.79	410.585
1558.93	427.983
1558.07	445.375
1557.21	407.462
1556.35	427.762
1555.49	427.688
1554.63	418.888
1553.77	427.541
1552.91	459.455
1552.05	465.191
1551.19	421.506
1550.33	406.902
1549.47	453.327
1548.61	424.194
1547.75	406.692
1546.89	386.291
1546.03	406.552
1545.17	423.902
1544.31	409.315
1543.45	438.268
1542.58	420.781
1541.72	403.3
1540.86	388.726
1540	432.166
1539.14	443.691
1538.28	417.52
1537.41	423.246
1536.55	428.97
1535.69	382.529
1534.82	437.514
1533.96	428.748
1533.1	428.674
1532.24	431.496
1531.37	408.258
1530.51	442.927
1529.64	413.906
1528.78	474.608
1527.92	413.764
1527.05	431.05
1526.19	425.191
1525.32	428.009
1524.46	422.153
1523.59	462.553
1522.73	471.145
1521.86	410.374
1521	401.635
1520.13	413.122
1519.27	430.381
1518.4	421.643
1517.54	433.12
1516.67	421.498
1515.8	467.608
1514.94	441.554
1514.07	447.249
1513.21	426.977
1512.34	424.019
1511.47	467.205
1510.6	426.756
1509.74	429.565
1508.87	429.491
1508	449.591
1507.14	443.75
1506.27	411.982
1505.4	466.641
1504.53	460.8
1503.66	443.443
1502.8	411.698
1501.93	446.169
1501.06	431.702
1500.19	471.912
1499.32	463.2
1498.45	414.219
1497.58	451.535
1496.71	428.453
1495.84	422.629
1494.97	388.062
1494.1	442.601
1493.23	442.525
1492.36	439.575
1491.49	453.862
1490.62	410.703
1489.75	433.604
1488.88	381.85
1488.01	390.396
1487.14	413.289
1486.27	433.304
1485.4	441.837
1484.52	456.103
1483.65	453.156
1482.78	450.21
1481.91	464.468
1481.04	438.588
1480.17	409.851
1479.29	484.286
1478.42	455.551
1477.55	432.555
1476.67	481.17
1475.8	458.178
1474.93	469.551
1474.06	460.882
1473.18	483.699
1472.31	475.031
1471.43	466.365
1470.56	489.169
1469.69	534.847
1468.81	526.175
1467.94	497.493
1467.06	508.841
1466.19	520.186
1465.31	508.665
1464.44	514.291
1463.56	502.775
1462.69	551.243
1461.81	593.983
1460.94	539.631
1460.06	579.504
1459.19	607.945
1458.31	570.742
1457.43	550.67
1456.56	590.513
1455.68	590.41
1454.8	590.308
1453.93	573.098
1453.05	649.969
1452.17	547.247
1451.3	595.598
1450.42	618.289
1449.54	609.635
1448.66	589.592
1447.78	575.251
1446.91	637.791
1446.03	586.438
1445.15	552.181
1444.27	549.239
1443.39	588.978
1442.51	557.583
1441.64	520.51
1440.76	546.014
1439.88	511.8
1439	545.825
1438.12	551.415
1437.24	503.008
1436.36	539.858
1435.48	545.446
1434.6	545.351
1433.72	525.377
1432.84	559.359
1431.96	508.161
1431.08	516.588
1430.2	513.661
1429.31	507.897
1428.43	496.461
1427.55	510.557
1426.67	465.093
1425.79	518.886
1424.91	510.291
1424.02	515.871
1423.14	484.608
1422.26	487.357
1421.38	478.773
1420.49	507.015
1419.61	515.423
1418.73	543.648
1417.85	549.215
1416.96	546.289
1416.08	532.044
1415.2	568.736
1414.31	562.979
1413.43	619.452
1412.54	661.765
1411.66	641.857
1410.78	627.61
1409.89	655.766
1409.01	610.435
1408.12	664.015
1407.24	596.097
1406.35	556.449
1405.47	587.417
1404.58	584.491
1403.7	525.104
1402.81	522.19
1401.92	516.454
1401.04	519.186
1400.15	482.42
1399.27	513.364
1398.38	527.376
1397.49	530.103
1396.61	465.169
1395.72	515.825
1394.83	496.008
1393.94	487.468
1393.06	490.2
1392.17	498.565
1391.28	475.948
1390.39	467.418
1389.51	458.891
1388.62	453.181
1387.73	472.802
1386.84	481.161
1385.95	438.878
1385.06	424.737
1384.17	475.285
1383.29	458.331
1382.4	491.988
1381.51	483.469
1380.62	455.281
1379.73	477.681
1378.84	542.214
1377.95	525.266
1377.06	463.389
1376.17	499.811
1375.28	513.761
1374.39	536.127
1373.5	507.969
1372.6	524.716
1371.71	504.986
1370.82	516.118
1369.93	507.615
1369.04	513.134
1368.15	538.276
1367.26	535.379
1366.36	496.05
1365.47	493.161
1364.58	448.25
1363.69	481.785
1362.79	442.493
1361.9	506.818
1361.01	461.935
1360.11	531.833
1359.22	506.552
1358.33	464.492
1357.43	461.613
1356.54	489.504
1355.65	458.655
1354.75	466.963
1353.86	472.473
1352.96	472.39
1352.07	438.771
1351.17	519.727
1350.28	463.762
1349.39	460.887
1348.49	469.185
1347.59	457.934
1346.7	457.854
1345.8	468.939
1344.91	485.602
1344.01	460.404
1343.12	493.802
1342.22	440.718
1341.32	449.007
1340.43	448.929
1339.53	457.214
1338.63	510.094
1337.74	454.267
1336.84	476.479
1335.94	498.683
1335.04	490.239
1334.15	495.723
1333.25	445.516
1332.35	495.55
1331.45	478.762
1330.55	514.858
1329.66	509.202
1328.76	497.985
1327.86	522.932
1326.96	483.905
1326.06	517.188
1325.16	511.537
1324.26	503.109
1323.36	547.486
1322.46	561.284
1321.56	508.4
1320.66	588.864
1319.76	585.983
1318.86	530.347
1317.96	577.449
1317.06	599.554
1316.16	641.077
1315.26	657.613
1314.36	663.047
1313.46	671.252
1312.55	707.187
1311.65	765.291
1310.75	709.711
1309.85	762.251
1308.95	809.23
1308.04	870.047
1307.14	847.732
1306.24	836.503
1305.34	916.669
1304.43	891.588
1303.53	869.284
1302.63	860.828
1301.72	827.468
1300.82	899.264
1299.92	899.106
1299.01	940.438
1298.11	970.694
1297.21	1081.12
1296.3	1105.82
1295.4	1155.37
1294.49	1246.37
1293.59	1240.62
1292.68	1326.05
1291.78	1353.44
1290.87	1342.15
1289.97	1336.39
1289.06	1394.13
1288.16	1371.81
1287.25	1396.4
1286.34	1374.08
1285.44	1329.7
1284.53	1312.92
1283.62	1285.11
1282.72	1276.61
1281.81	1273.63
1280.9	1234.82
1280	1160.2
1279.09	1143.46
1278.18	1038.58
1277.27	1104.5
1276.37	1049.23
1275.46	949.92
1274.55	960.765
1273.64	924.815
1272.73	899.885
1271.82	863.957
1270.92	861.054
1270.01	858.153
1269.1	833.252
1268.19	706.627
1267.28	810.966
1266.37	706.379
1265.46	739.231
1264.55	736.353
1263.64	730.73
1262.73	736.094
1261.82	642.596
1260.91	680.922
1260	623.154
1259.09	645.002
1258.18	579.027
1257.27	603.619
1256.35	562.364
1255.44	548.551
1254.53	575.877
1253.62	509.973
1252.71	523.59
1251.79	570.092
1250.88	561.77
1249.97	542.492
1249.06	501.306
1248.14	536.823
1247.23	487.437
1246.32	509.255
1245.41	459.891
1244.49	492.654
1243.58	514.459
1242.66	514.368
1241.75	451.361
1240.84	473.161
1239.92	525.034
1239.01	478.463
1238.09	429.174
1237.18	445.497
1236.26	500.071
1235.35	469.929
1234.43	469.846
1233.52	505.269
1232.6	450.566
1231.69	477.788
1230.77	483.163
1229.86	496.724
1228.94	436.604
1228.02	463.81
1227.11	444.633
1226.19	452.737
1225.27	409.027
1224.36	430.766
1223.44	441.594
1222.52	414.262
1221.6	441.438
1220.69	446.809
1219.77	444.006
1218.85	405.799
1217.93	422.065
1217.01	421.991
1216.1	408.306
1215.18	438.171
1214.26	462.583
1213.34	467.943
1212.42	380.816
1211.5	456.899
1210.58	440.503
1209.66	470.331
1208.74	448.502
1207.82	434.834
1206.9	404.868
1205.98	415.664
1205.06	440.037
1204.14	412.801
1203.22	420.874
1202.3	420.799
1201.38	426.154
1200.46	436.934
1199.54	463.991
1198.61	450.344
1197.69	431.277
1196.77	425.777
1195.85	450.105
1194.93	460.87
1194	458.078
1193.08	439.026
1192.16	438.949
1191.24	487.634
1190.31	463.171
1189.39	446.84
1188.47	500.914
1187.54	476.461
1186.62	508.857
1185.7	527.71
1184.77	538.439
1183.85	516.702
1182.92	549.068
1182	594.944
1181.07	565.096
1180.15	605.546
1179.23	632.468
1178.3	621.546
1177.37	637.647
1176.45	626.729
1175.52	640.123
1174.6	661.613
1173.67	639.896
1172.75	672.177
1171.82	553.3
1170.89	542.408
1169.97	542.312
1169.04	547.611
1168.11	501.663
1167.19	523.147
1166.26	461.043
1165.33	442.091
1164.4	450.099
1163.48	409.598
1162.55	452.633
1161.62	474.103
1160.69	428.233
1159.76	473.935
1158.83	479.236
1157.91	436.081
1156.98	449.461
1156.05	435.926
1155.12	454.682
1154.19	457.291
1153.26	454.521
1152.33	419.483
1151.4	491.999
1150.47	430.086
1149.54	470.324
1148.61	427.247
1147.68	437.917
1146.75	478.132
1145.82	464.618
1144.89	445.74
1143.96	467.138
1143.02	491.213
1142.09	485.759
1141.16	458.84
1140.23	520.462
1139.3	485.5
1138.36	539.05
1137.43	544.317
1136.5	538.859
1135.57	528.042
1134.63	511.868
1133.7	554.649
1132.77	543.834
1131.83	543.737
1130.9	538.285
1129.97	589.063
1129.03	613.052
1128.1	655.768
1127.17	642.271
1126.23	698.346
1125.3	703.572
1124.36	708.796
1123.43	751.458
1122.49	794.104
1121.56	788.617
1120.62	804.513
1119.69	841.783
1118.75	825.602
1117.81	820.112
1116.88	827.979
1115.94	894.592
1115.01	833.024
1114.07	806.181
1113.13	741.982
1112.2	776.541
1111.26	731.046
1110.32	768.262
1109.38	752.122
1108.45	746.655
1107.51	714.528
1106.57	762.383
1105.63	724.935
1104.69	711.482
1103.76	668.727
1102.82	735.203
1101.88	735.072
1100.94	724.289
1100	694.875
1099.06	668.132
1098.12	742.532
1097.18	723.773
1096.24	795.477
1095.3	771.395
1094.36	768.598
1093.42	776.438
1092.48	765.666
1091.54	701.735
1090.6	683.007
1089.66	682.885
1088.72	648.227
1087.78	648.111
1086.84	613.471
1085.9	586.809
1084.95	605.288
1084.01	591.909
1083.07	597.111
1082.13	549.244
1081.19	594.245
1080.24	596.791
1079.3	559.558
1078.36	604.533
1077.41	551.405
1076.47	569.86
1075.53	540.608
1074.58	532.563
1073.64	521.872
1072.7	513.833
1071.75	497.852
1070.81	484.525
1069.86	484.438
1068.92	497.585
1067.98	468.388
1067.03	484.179
1066.09	470.866
1065.14	502.52
1064.19	470.698
1063.25	491.765
1062.3	507.537
1061.36	491.589
1060.41	467.719
1059.46	433.289
1058.52	459.627
1057.57	483.314
1056.63	435.697
1055.68	432.979
1054.73	480.416
1053.78	493.526
1052.84	461.773
1051.89	456.414
1050.94	495.899
1049.99	456.251
1049.05	493.085
1048.1	487.724
1047.15	456.006
1046.2	490.185
1045.25	463.748
1044.3	513.72
1043.35	460.948
1042.4	468.766
1041.45	484.48
1040.5	521.25
1039.55	513.26
1038.6	471.062
1037.65	520.97
1036.7	484.047
1035.75	489.221
1034.8	491.763
1033.85	491.675
1032.9	446.897
1031.95	507.269
1031	572.875
1030.05	530.734
1029.1	501.743
1028.14	506.906
1027.19	506.815
1026.24	506.724
1025.29	551.259
1024.33	509.167
1023.38	501.204
1022.43	469.63
1021.48	532.502
1020.52	498.312
1019.57	485.111
1018.62	490.268
1017.66	495.423
1016.71	492.713
1015.75	474.282
1014.8	505.636
1013.85	505.545
1012.89	497.598
1011.94	513.219
1010.98	505.273
1010.03	518.27
1009.07	531.262
1008.12	539.017
1007.16	502.295
1006.2	557.133
1005.25	543.957
1004.29	577.851
1003.34	551.605
1002.38	541.051
1001.42	603.673
1000.47	587.888
999.508	606.069
998.551	577.229
997.594	598.017
996.636	493.471
995.679	503.824
994.721	545.494
993.763	495.815
992.805	477.462
991.846	524.332
990.888	516.413
989.929	521.536
988.97	508.406
988.011	513.528
987.052	503.011
986.093	502.92
985.133	497.619
984.173	539.208
983.213	492.232
982.253	460.896
981.293	484.244
980.333	486.76
979.372	489.275
978.411	478.779
977.45	496.904
976.489	515.023
975.528	447.313
974.566	473.235
973.605	478.349
972.643	475.664
971.681	452.189
970.719	501.476
969.756	472.809
968.794	438.958
967.831	488.221
966.868	495.922
965.905	498.429
964.942	443.833
963.979	459.324
963.015	396.971
962.052	441
961.088	438.327
960.124	420.095
959.159	407.056
958.195	445.867
957.23	474.296
956.266	456.071
955.301	468.943
954.336	432.594
953.37	445.465
952.405	419.491
951.439	411.648
950.473	471.11
949.507	393.383
948.541	445.064
947.575	452.745
946.608	439.731
945.642	439.651
944.675	408.543
943.708	473.101
942.741	418.735
941.773	405.738
940.806	426.336
939.838	475.343
938.87	452.011
937.902	446.765
936.934	426.029
935.965	436.278
934.997	433.618
934.028	446.443
933.059	451.523
932.09	407.587
931.121	438.464
930.151	386.81
929.182	500.184
928.212	448.538
927.242	432.993
926.272	461.26
925.301	445.718
924.331	468.821
923.36	466.161
922.389	440.327
921.418	463.419
920.447	468.483
919.475	473.546
918.504	416.851
917.532	491.383
916.56	504.156
915.588	486.062
914.616	473.118
913.643	462.749
912.671	424.11
911.698	503.701
910.725	511.318
909.752	467.553
908.779	464.9
907.805	485.36
906.831	513.516
905.858	531.393
904.883	536.43
903.909	544.032
902.935	520.842
901.96	561.792
900.986	587.338
900.011	564.153
899.036	589.69
898.06	525.498
897.085	558.721
896.109	573.995
895.133	599.511
894.157	607.088
893.181	589.05
892.205	606.868
891.229	645.161
890.252	601.529
889.275	637.249
888.298	660.163
887.321	601.202
886.343	647.135
885.366	657.247
884.388	669.913
883.41	669.792
882.432	700.342
881.454	689.993
880.475	694.978
879.497	661.643
878.518	651.306
877.539	671.618
876.56	676.603
875.58	679.033
874.601	699.328
873.621	643.061
872.641	686.318
871.661	757.619
870.681	737.078
869.701	701.245
868.72	752.108
867.739	757.07
866.758	777.321
865.777	840.884
864.796	861.113
863.815	945.014
862.833	1061.99
861.851	1178.93
860.869	1265.27
859.887	1290.5
858.905	1394.61
857.922	1384.17
856.939	1383.92
855.956	1320.08
854.973	1304.59
853.99	1230.61
853.007	1174.46
852.023	1090.38
851.039	998.695
850.055	998.514
849.071	975.47
848.087	891.478
847.102	868.462
846.118	820.066
845.133	835.147
844.148	730.938
843.163	799.319
842.177	725.599
841.192	710.247
840.206	674.613
839.22	725.204
838.234	628.734
837.248	666.641
836.261	734.946
835.274	689.203
834.288	608.01
833.301	615.498
832.313	640.711
831.326	681.106
830.339	620.226
829.351	637.83
828.363	668.082
827.375	640.129
826.387	627.364
825.398	639.896
824.409	657.481
823.421	672.531
822.432	679.992
821.443	631.848
820.453	614.045
819.464	613.933
818.474	613.821
817.484	654.119
816.494	669.15
815.504	628.634
814.513	646.189
813.523	656.166
812.532	630.814
811.541	630.7
810.55	600.317
809.559	597.686
808.567	612.705
807.575	627.719
806.583	574.675
805.591	584.65
804.599	602.181
803.607	634.82
802.614	599.443
801.621	596.815
800.628	639.508
799.635	631.84
798.642	616.624
797.649	659.29
796.655	691.877
795.661	726.967
794.667	724.319
793.673	714.129
792.678	729.084
791.684	708.842
790.689	706.199
789.694	603.05
788.699	562.744
787.704	622.924
786.708	570.072
785.713	572.479
784.717	559.823
783.721	569.761
782.724	532.014
781.728	539.444
780.731	549.38
779.735	486.577
778.738	483.98
777.741	529.022
776.743	536.446
775.746	513.791
774.748	516.203
773.75	543.668
772.752	503.49
771.754	455.813
770.756	530.85
769.757	503.214
768.758	470.582
767.759	493.02
766.76	490.428
765.761	477.83
764.761	475.241
763.762	545.177
762.762	475.067
761.762	469.981
760.762	492.39
759.761	444.819
758.761	484.714
757.76	444.657
756.759	519.504
755.758	471.963
754.756	444.413
753.755	471.79
752.753	506.645
751.751	521.525
750.749	488.996
749.747	493.895
748.745	506.275
747.742	491.221
746.739	506.09
745.736	486.056
744.733	483.475
743.73	530.729
742.726	535.614
741.723	523.062
740.719	537.908
739.715	525.361
738.71	497.881
737.706	462.945
736.701	527.561
735.697	529.952
734.692	512.442
733.686	514.835
732.681	514.741
731.675	502.216
730.67	519.524
729.664	497.061
728.658	514.364
727.651	549.052
726.645	496.788
725.638	499.181
724.631	521.437
723.624	511.411
722.617	508.835
721.61	548.448
720.602	516.092
719.595	478.786
718.587	528.304
717.578	491.01
716.57	562.822
715.562	535.451
714.553	550.224
713.544	542.689
712.535	530.201
711.526	532.581
710.516	559.727
709.507	606.672
708.497	641.222
707.487	655.956
706.477	640.986
705.467	720.049
704.456	724.865
703.445	786.569
702.434	759.222
701.423	798.644
700.412	709.5
699.401	679.71
698.389	632.632
697.377	605.338
696.365	558.291
695.353	538.429
694.34	513.636
693.328	478.977
692.315	483.826
691.302	513.353
690.289	478.713
689.276	495.895
688.262	473.604
687.249	488.314
686.235	540.006
685.221	534.976
684.206	525.018
683.192	497.813
682.177	495.257
681.162	514.875
680.147	544.337
679.132	536.849
678.117	588.455
677.101	531.728
676.086	529.169
675.07	502.003
674.054	531.435
673.037	514.118
672.021	533.699
671.004	504.093
669.987	508.917
668.97	474.41
667.953	570.171
666.936	528.294
665.918	501.173
664.9	501.08
663.882	503.444
662.864	545.093
661.846	488.529
660.827	517.893
659.808	510.435
658.789	579.041
657.77	512.701
656.751	500.343
655.731	544.391
654.712	507.514
653.692	561.349
652.672	536.737
651.652	563.593
650.631	524.29
649.611	531.542
648.59	587.772
647.569	504.411
646.548	519.007
645.526	487.092
644.505	501.685
643.483	545.635
642.461	503.947
641.439	572.339
640.417	545.333
639.394	586.798
638.371	628.247
637.348	650.128
636.325	689.106
635.302	860.002
634.279	1126.1
633.255	1401.87
632.231	1555.45
631.207	1357.41
630.183	1132.59
629.159	878.575
628.134	751.531
627.109	702.6
626.084	673.201
625.059	619.426
624.034	577.862
623.008	558.253
621.983	558.15
620.957	533.678
619.931	528.706
618.904	548.097
617.878	516.333
616.851	530.849
615.824	557.532
614.797	535.521
613.77	532.988
612.743	569.389
611.715	557.12
610.687	535.125
609.659	571.506
608.631	532.496
607.603	539.691
606.574	549.313
605.546	510.33
604.517	585.556
603.487	541.721
602.458	553.765
601.429	529.379
600.399	555.988
599.369	504.909
598.339	538.794
597.309	555.68
596.278	502.203
595.248	560.326
594.217	516.568
593.186	560.118
592.155	523.65
591.123	542.944
590.091	533.15
589.06	511.245
588.028	576.558
586.996	503.789
585.963	552.128
584.931	522.972
583.898	564.028
582.865	513.098
581.832	539.621
580.798	537.101
579.765	549.097
578.731	575.598
577.697	565.819
576.663	556.044
575.629	568.027
574.594	596.922
573.56	536.405
572.525	531.474
571.49	528.961
570.455	567.501
569.419	555.324
568.384	547.979
567.348	584.08
566.312	583.972
565.276	610.403
564.239	569.282
563.203	552.295
562.166	581.128
561.129	602.718
560.092	595.375
559.054	571.165
558.017	571.059
556.979	602.271
555.941	606.977
554.903	606.864
553.865	565.82
552.826	570.529
551.787	563.203
550.749	579.943
549.709	548.558
548.67	558.079
547.631	577.215
546.591	553.062
545.551	555.364
544.511	579.298
543.471	583.997
542.43	550.249
541.39	605.401
540.349	552.446
539.308	612.381
538.267	573.851
537.225	602.551
536.184	607.24
535.142	592.729
534.1	587.82
533.058	556.526
532.015	554.024
530.973	577.901
529.93	515.459
528.887	563.304
527.844	567.992
526.801	543.925
525.757	594.134
524.713	546.118
523.669	557.991
522.625	548.309
521.581	572.147
520.537	591.188
519.492	603.043
518.447	595.753
517.402	569.329
516.357	550.089
515.311	600.203
514.265	530.758
513.22	554.563
512.174	590.309
511.127	583.03
510.081	554.254
509.034	518.322
507.987	544.495
506.94	510.966
505.893	518.032
504.846	606.248
503.798	572.726
502.75	555.918
501.702	562.971
500.654	584.331
499.606	560.376
