3200.54	29.4685
3199.95	29.4685
3199.35	16.8366
3198.76	4.20852
3198.16	12.6236
3197.57	37.8652
3196.98	16.8264
3196.38	25.2358
3195.79	29.4374
3195.19	21.0235
3194.6	12.6122
3194	21.0172
3193.41	25.2168
3192.81	4.20216
3192.22	21.0076
3191.62	29.4062
3191.03	21.0013
3190.43	33.597
3189.84	12.597
3189.24	46.1818
3188.65	41.9771
3188.05	37.7737
3187.45	29.3751
3186.86	46.1539
3186.26	50.3421
3185.67	67.1126
3185.07	37.7451
3184.47	41.9327
3183.88	20.9632
3183.28	37.728
3182.69	41.9137
3182.09	46.0981
3181.49	37.7109
3180.9	25.1368
3180.3	37.6995
3179.7	29.3174
3179.1	16.7502
3178.51	12.5608
3177.91	62.7944
3177.31	37.6709
3176.72	20.9251
3176.12	29.2908
3175.52	50.2051
3174.92	20.9156
3174.33	41.8249
3173.73	16.7274
3173.13	54.3559
3172.53	12.5418
3171.93	29.2597
3171.34	20.8966
3170.74	4.17869
3170.14	41.7806
3169.54	33.4194
3168.94	12.5304
3168.34	37.5855
3167.74	54.2819
3167.15	25.0494
3166.55	41.7426
3165.95	37.5627
3165.35	29.211
3164.75	25.0342
3164.15	20.8587
3163.55	29.1977
3162.95	8.34094
3162.35	16.6794
3161.75	20.846
3161.15	54.1915
3160.55	37.5115
3159.95	54.175
3159.35	25.0001
3158.75	45.8265
3158.15	8.33083
3157.55	33.3183
3156.95	49.9698
3156.35	37.4717
3155.75	41.6289
3155.15	37.4603
3154.55	41.6163
3153.95	33.288
3153.35	49.9244
3152.75	20.7987
3152.15	29.1137
3151.54	37.4262
3150.94	29.1049
3150.34	29.1005
3149.74	16.6263
3149.14	41.5595
3148.54	37.3979
3147.94	24.9281
3147.33	49.8487
3146.73	24.9206
3146.13	37.3752
3145.53	16.6087
3144.93	66.4246
3144.32	8.30181
3143.72	24.9016
3143.12	20.7482
3142.52	16.5961
3141.91	58.0774
3141.31	24.8865
3140.71	24.8827
3140.1	29.0255
3139.5	41.4587
3138.9	53.8881
3138.29	20.723
3137.69	16.5759
3137.09	45.5768
3136.48	24.8563
3135.88	53.8472
3135.28	24.8488
3134.67	20.7042
3134.07	66.2432
3133.47	20.6979
3132.86	45.5284
3132.26	45.5215
3131.65	33.1015
3131.05	12.4112
3130.45	33.0914
3129.84	37.2222
3129.24	37.2165
3128.63	53.7491
3128.03	28.9374
3127.42	20.6664
3126.82	37.1939
3126.21	41.3203
3125.61	12.3942
3125	20.6539
3124.4	41.3015
3123.79	4.12952
3123.19	41.2889
3122.58	41.2826
3121.97	37.1487
3121.37	53.6511
3120.76	28.8847
3120.16	28.8803
3119.55	49.5015
3118.94	28.8715
3118.34	32.991
3117.73	32.9859
3117.13	24.7357
3116.52	41.2199
3115.91	61.8204
3115.31	28.8451
3114.7	28.8407
3114.09	45.3143
3113.48	49.4262
3112.88	20.5911
3112.27	37.0584
3111.66	45.2867
3111.06	57.6289
3110.45	28.81
3109.84	74.0717
3109.23	32.9157
3108.63	37.0246
3108.02	57.585
3107.41	45.2385
3106.8	61.6794
3106.19	41.1134
3105.59	65.7714
3104.98	53.4311
3104.37	45.204
3103.76	12.3265
3103.15	45.1903
3102.54	57.5061
3101.93	36.9626
3101.33	41.0633
3100.72	45.1628
3100.11	45.1559
3099.5	20.5223
3098.89	24.623
3098.28	65.6513
3097.67	57.4361
3097.06	69.7332
3096.45	36.912
3095.84	69.712
3095.23	57.4011
3094.62	69.6907
3094.01	86.0754
3093.4	45.0803
3092.79	53.2685
3092.18	49.1635
3091.57	57.3486
3090.96	69.627
3090.35	57.3312
3089.74	94.1725
3089.13	73.689
3088.52	73.6778
3087.91	90.0369
3087.3	94.1151
3086.69	81.8268
3086.08	85.905
3085.46	73.6216
3084.85	73.6104
3084.24	85.8657
3083.63	94.029
3083.02	102.19
3082.41	98.0873
3081.79	102.159
3081.18	118.486
3080.57	102.128
3079.96	130.703
3079.35	77.5933
3078.73	142.913
3078.12	93.9
3077.51	130.624
3076.9	130.604
3076.28	110.18
3075.67	118.323
3075.06	81.5899
3074.45	61.1831
3073.83	134.582
3073.22	89.7078
3072.61	85.6171
3071.99	114.139
3071.38	114.121
3070.77	73.3525
3070.15	101.863
3069.54	97.7735
3068.93	69.2456
3068.31	65.1624
3067.7	69.2245
3067.08	93.6423
3066.47	44.7786
3065.86	93.6137
3065.24	61.0431
3064.63	85.4473
3064.01	44.7513
3063.4	101.692
3062.78	56.9388
3062.17	65.0629
3061.55	56.9214
3060.94	56.9127
3060.32	52.8394
3059.71	89.4069
3059.09	69.0766
3058.48	69.066
3057.86	40.6209
3057.25	52.799
3056.63	28.4259
3056.02	52.7829
3055.4	52.7748
3054.78	44.6488
3054.17	68.9922
3053.55	44.6352
3052.94	60.8568
3052.32	64.904
3051.7	81.1176
3051.09	60.8289
3050.47	72.9835
3049.85	68.9183
3049.24	40.534
3048.62	56.7389
3048	56.7302
3047.39	36.4639
3046.77	56.7129
3046.15	36.4527
3045.53	76.9439
3044.92	56.6869
3044.3	56.6782
3043.68	48.5739
3043.06	68.8025
3042.45	44.5124
3041.83	48.5516
3041.21	44.4988
3040.59	44.492
3039.97	52.5734
3039.35	64.6958
3038.74	28.3001
3038.12	68.7183
3037.5	52.5412
3036.88	68.6972
3036.26	52.5251
3035.64	36.358
3035.02	60.5874
3034.41	40.3854
3033.79	44.4171
3033.17	36.3357
3032.55	48.4402
3031.93	92.8295
3031.31	56.4963
3030.69	52.4528
3030.07	60.5132
3029.45	68.5711
3028.83	48.3957
3028.21	72.5825
3027.59	60.4761
3026.97	44.3424
3026.35	84.6406
3025.73	44.3288
3025.11	64.4683
3024.49	68.4871
3023.87	48.3364
3023.25	48.329
3022.63	48.3216
3022	52.3404
3021.38	40.2557
3020.76	72.4491
3020.14	88.5353
3019.52	68.4032
3018.9	76.4389
3018.28	40.2248
3017.66	56.3061
3017.03	52.2762
3016.41	60.3095
3015.79	48.2402
3015.17	28.1358
3014.55	52.2442
3013.92	76.3452
3013.3	44.1931
3012.68	56.2371
3012.06	56.2285
3011.43	64.2512
3010.81	80.3017
3010.19	72.2605
3009.57	80.2771
3008.94	72.2383
3008.32	60.1893
3007.7	68.2041
3007.07	56.1595
3006.45	76.2047
3005.83	64.1626
3005.2	100.239
3004.58	84.1875
3003.96	72.1497
3003.33	56.1078
3002.71	92.1629
3002.08	104.168
3001.46	104.152
3000.84	76.0995
3000.21	84.0971
2999.59	72.0722
2998.96	76.0645
2998.34	100.069
2997.71	48.026
2997.09	108.042
2996.46	80.0187
2995.84	60.0048
2995.21	83.9939
2994.59	79.9819
2993.96	83.9681
2993.34	103.944
2992.71	87.9395
2992.09	67.9428
2991.46	91.9085
2990.84	67.9219
2990.21	103.865
2989.58	75.8894
2988.96	87.8585
2988.33	87.845
2987.71	71.8621
2987.08	79.8345
2986.45	75.8311
2985.83	63.848
2985.2	91.7674
2984.57	95.7425
2983.95	79.7732
2983.32	91.7251
2982.69	67.7864
2982.07	79.7364
2981.44	119.586
2980.81	95.6542
2980.18	91.6546
2979.56	87.6561
2978.93	119.513
2978.3	75.6797
2977.67	87.6157
2977.05	131.403
2976.42	107.495
2975.79	87.5752
2975.16	103.482
2974.53	119.384
2973.91	111.408
2973.28	127.304
2972.65	91.4855
2972.02	83.5174
2971.39	107.363
2970.76	107.346
2970.13	123.231
2969.5	115.263
2968.88	123.193
2968.25	131.12
2967.62	115.209
2966.99	127.108
2966.36	131.06
2965.73	127.069
2965.1	115.138
2964.47	182.605
2963.84	115.103
2963.21	107.148
2962.58	154.746
2961.95	170.591
2961.32	118.999
2960.69	162.607
2960.06	138.789
2959.43	162.556
2958.8	138.746
2958.17	174.397
2957.53	158.518
2956.9	142.645
2956.27	110.929
2955.64	126.756
2955.01	150.5
2954.38	182.156
2953.75	110.86
2953.12	154.389
2952.48	158.323
2951.85	126.639
2951.22	134.533
2950.59	142.425
2949.96	118.669
2949.33	71.1905
2948.69	122.587
2948.06	138.383
2947.43	138.362
2946.8	90.9096
2946.16	102.751
2945.53	110.638
2944.9	110.621
2944.26	114.554
2943.63	86.89
2943	82.9276
2942.37	114.501
2941.73	86.8498
2941.1	98.6777
2940.47	110.502
2939.83	106.539
2939.2	86.7962
2938.56	98.6168
2937.93	78.8813
2937.3	98.5864
2936.66	114.343
2936.03	67.018
2935.39	78.8326
2934.76	102.467
2934.13	82.7487
2933.49	90.6155
2932.86	82.7231
2932.22	106.342
2931.59	118.139
2930.95	86.6222
2930.32	90.5456
2929.68	94.4678
2929.05	59.0332
2928.41	74.7639
2927.78	86.5554
2927.14	86.542
2926.5	82.5955
2925.87	58.9877
2925.23	98.2976
2924.6	70.7634
2923.96	102.198
2923.32	94.322
2922.69	90.3779
2922.05	74.6485
2921.42	98.2066
2920.78	90.3361
2920.14	51.0516
2919.51	78.5288
2918.87	70.665
2918.23	86.355
2917.6	78.4924
2916.96	82.4043
2916.32	82.3916
2915.68	94.1473
2915.05	117.666
2914.41	82.3534
2913.77	105.867
2913.13	90.1687
2912.5	101.914
2911.86	97.9791
2911.22	105.801
2910.58	94.0309
2909.94	86.1816
2909.31	74.4181
2908.67	86.155
2908.03	82.2261
2907.39	113.533
2906.75	105.687
2906.11	78.2743
2905.47	109.567
2904.83	66.5126
2904.2	101.709
2903.56	97.7823
2902.92	132.963
2902.28	125.123
2901.64	109.465
2901	85.9952
2900.36	109.431
2899.72	117.23
2899.08	101.584
2898.44	113.287
2897.8	62.4936
2897.16	97.6311
2896.52	78.0928
2895.88	109.313
2895.24	81.972
2894.6	89.765
2893.96	70.24
2893.32	105.344
2892.67	105.327
2892.03	89.7094
2891.39	124.794
2890.75	85.7824
2890.11	74.0734
2889.47	89.6539
2888.83	116.922
2888.19	85.7293
2887.54	128.574
2886.9	109.076
2886.26	81.7945
2885.62	112.937
2884.98	81.7692
2884.33	101.222
2883.69	120.669
2883.05	93.407
2882.41	101.175
2881.77	120.613
2881.12	112.814
2880.48	93.3491
2879.84	128.335
2879.19	77.7668
2878.55	108.857
2877.91	89.4041
2877.26	66.0711
2876.62	66.0608
2875.98	85.4772
2875.33	54.3862
2874.69	120.408
2874.05	81.5539
2873.4	77.6584
2872.76	81.5287
2872.11	100.925
2871.47	97.0278
2870.83	108.654
2870.18	124.157
2869.54	62.0689
2868.89	54.3019
2868.25	77.5621
2867.6	73.6725
2866.96	108.553
2866.31	77.526
2865.67	65.8868
2865.02	69.7517
2864.38	92.9879
2863.73	65.8562
2863.09	69.7192
2862.44	73.5811
2861.8	69.6976
2861.15	73.5583
2860.5	100.643
2859.86	77.4057
2859.21	81.2634
2858.57	85.1199
2857.92	88.9751
2857.27	104.433
2856.63	100.549
2855.98	73.467
2855.33	115.982
2854.69	92.7715
2854.04	108.217
2853.39	108.2
2852.75	73.4099
2852.1	77.2616
2851.45	65.6622
2850.81	84.9614
2850.16	81.0869
2849.51	88.7956
2848.86	88.7818
2848.21	104.206
2847.57	61.7421
2846.92	88.7405
2846.27	77.1536
2845.62	96.427
2844.97	77.1296
2844.33	111.821
2843.68	69.3951
2843.03	104.076
2842.38	146.455
2841.73	111.751
2841.08	119.439
2840.43	119.421
2839.78	77.0338
2839.14	46.2131
2838.49	96.2623
2837.84	100.097
2837.19	111.629
2836.54	115.461
2835.89	80.81
2835.24	115.425
2834.59	80.7849
2833.94	107.696
2833.29	126.908
2832.64	80.7472
2831.99	96.1126
2831.34	96.0977
2830.69	92.2394
2830.04	88.3823
2829.39	88.3686
2828.74	92.1963
2828.08	103.705
2827.43	92.1677
2826.78	84.4739
2826.13	115.174
2825.48	95.9631
2824.83	107.462
2824.18	76.7466
2823.53	122.775
2822.87	84.395
2822.22	92.0529
2821.57	95.8735
2820.92	95.8586
2820.27	118.846
2819.61	80.4961
2818.96	99.6464
2818.31	111.127
2817.66	80.4585
2817	99.5998
2816.35	107.245
2815.7	122.546
2815.05	103.382
2814.39	111.023
2813.74	99.5223
2813.09	53.5806
2812.43	110.971
2811.78	99.4757
2811.13	145.365
2810.47	107.094
2809.82	114.726
2809.16	80.2957
2808.51	103.221
2807.86	103.205
2807.2	114.655
2806.55	95.5305
2805.89	84.0538
2805.24	137.521
2804.58	129.861
2803.93	126.022
2803.28	103.093
2802.62	110.712
2801.97	114.512
2801.31	95.4114
2800.66	99.2124
2800	129.719
2799.34	110.625
2798.69	110.608
2798.03	125.845
2797.38	110.574
2796.72	118.181
2796.07	118.163
2795.41	114.333
2794.75	118.126
2794.1	106.678
2793.44	91.4236
2792.79	110.453
2792.13	110.436
2791.47	144.686
2790.82	98.9804
2790.16	110.384
2789.5	110.367
2788.84	102.739
2788.19	102.723
2787.53	114.119
2786.87	121.708
2786.22	95.0695
2785.56	114.066
2784.9	106.445
2784.24	114.03
2783.59	125.413
2782.93	129.194
2782.27	110.177
2781.61	110.16
2780.95	178.507
2780.29	132.91
2779.64	94.9211
2778.98	113.888
2778.32	129.052
2777.66	102.467
2777	113.834
2776.34	106.229
2775.68	106.212
2775.02	102.403
2774.36	106.179
2773.71	132.703
2773.05	128.891
2772.39	109.919
2771.73	113.692
2771.07	102.307
2770.41	98.5022
2769.75	147.73
2769.09	102.259
2768.43	87.0957
2767.77	113.585
2767.11	147.638
2766.45	121.12
2765.79	128.67
2765.12	94.5952
2764.46	94.5804
2763.8	128.609
2763.14	109.679
2762.48	113.443
2761.82	68.0553
2761.16	109.627
2760.5	117.17
2759.83	94.4769
2759.17	113.355
2758.51	124.67
2757.85	120.874
2757.19	135.962
2756.53	109.507
2755.86	117.041
2755.2	109.473
2754.54	113.23
2753.88	113.213
2753.21	124.514
2752.55	143.358
2751.89	113.159
2751.23	124.456
2750.56	116.895
2749.9	116.877
2749.24	109.319
2748.57	143.223
2747.91	131.895
2747.25	128.107
2746.58	146.923
2745.92	120.533
2745.25	135.579
2744.59	139.323
2743.93	131.771
2743.26	131.751
2742.6	143.021
2741.93	146.762
2741.27	154.264
2740.61	127.906
2739.94	131.648
2739.28	120.345
2738.61	109.045
2737.95	161.662
2737.28	101.493
2736.62	142.82
2735.95	108.977
2735.29	127.746
2734.62	112.699
2733.95	142.73
2733.29	120.175
2732.62	131.421
2731.96	142.663
2731.29	116.365
2730.62	165.137
2729.96	135.091
2729.29	127.566
2728.63	135.048
2727.96	150.03
2727.29	93.7542
2726.63	157.482
2725.96	142.462
2725.29	119.949
2724.62	138.669
2723.96	146.142
2723.29	131.132
2722.62	123.62
2721.96	176.037
2721.29	138.56
2720.62	138.539
2719.95	142.261
2719.28	138.495
2718.62	142.216
2717.95	153.419
2717.28	145.913
2716.61	149.63
2715.94	119.686
2715.27	153.323
2714.61	168.255
2713.94	119.629
2713.27	145.775
2712.6	112.117
2711.93	127.046
2711.26	130.762
2710.59	153.155
2709.92	145.661
2709.25	115.763
2708.58	134.414
2707.91	141.859
2707.24	134.372
2706.57	141.814
2705.9	134.329
2705.23	126.847
2704.56	111.906
2703.89	145.455
2703.22	134.245
2702.55	141.681
2701.88	141.658
2701.21	137.909
2700.54	126.707
2699.87	126.687
2699.2	145.295
2698.53	152.722
2697.86	108.006
2697.19	148.95
2696.51	104.249
2695.84	130.29
2695.17	137.714
2694.5	145.135
2693.83	133.95
2693.15	156.25
2692.48	148.786
2691.81	145.044
2691.14	141.302
2690.47	126.409
2689.79	137.541
2689.12	122.652
2688.45	156.078
2687.77	130.045
2687.1	111.449
2686.43	137.432
2685.76	152.266
2685.08	152.242
2684.41	159.643
2683.74	144.77
2683.06	167.016
2682.39	144.724
2681.71	148.412
2681.04	144.679
2680.37	129.819
2679.69	170.593
2679.02	122.363
2678.34	148.295
2677.67	126.031
2676.99	177.898
2676.32	137.108
2675.65	163.022
2674.97	159.292
2674.3	144.451
2673.62	137.022
2672.95	159.216
2672.27	136.979
2671.59	129.554
2670.92	133.234
2670.24	159.116
2669.57	159.091
2668.89	151.667
2668.22	144.246
2667.54	159.016
2666.86	125.714
2666.19	147.875
2665.51	158.941
2664.83	170.003
2664.16	158.89
2663.48	155.171
2662.8	184.698
2662.13	155.122
2661.45	151.405
2660.77	169.842
2660.1	162.432
2659.42	114.423
2658.74	151.309
2658.06	132.836
2657.39	166.019
2656.71	184.436
2656.03	140.149
2655.35	143.815
2654.68	154.853
2654	151.142
2653.32	165.861
2652.64	173.206
2651.96	169.494
2651.28	136.31
2650.6	162.073
2649.93	154.682
2649.25	139.928
2648.57	173.042
2647.89	191.42
2647.21	150.904
2646.53	161.92
2645.85	187.65
2645.17	169.226
2644.49	202.304
2643.81	158.14
2643.13	158.115
2642.45	172.796
2641.77	169.093
2641.09	161.715
2640.41	191.088
2639.73	180.035
2639.05	161.639
2638.37	150.594
2637.69	168.933
2637.01	179.921
2636.33	176.222
2635.65	201.889
2634.96	187.176
2634.28	183.477
2633.6	172.441
2632.92	198.093
2632.24	179.722
2631.56	168.692
2630.88	197.999
2630.19	183.303
2629.51	179.609
2628.83	153.926
2628.15	172.223
2627.46	194.179
2626.78	175.832
2626.1	164.817
2625.42	183.101
2624.73	179.41
2624.05	194.025
2623.37	204.975
2622.69	168.346
2622	190.274
2621.32	186.585
2620.64	175.582
2619.95	193.841
2619.27	186.497
2618.58	208.405
2617.9	212.027
2617.22	182.753
2616.53	197.342
2615.85	190.003
2615.16	219.2
2614.48	182.637
2613.79	197.217
2613.11	171.625
2612.43	197.155
2611.74	182.522
2611.06	200.742
2610.37	182.464
2609.69	204.327
2609	196.999
2608.31	196.968
2607.63	182.348
2606.94	171.38
2606.26	174.999
2605.57	200.488
2604.89	200.456
2604.2	189.492
2603.51	189.462
2602.83	193.075
2602.14	149.336
2601.45	178.447
2600.77	192.983
2600.08	211.156
2599.39	232.963
2598.71	189.252
2598.02	167.389
2597.33	189.192
2596.65	167.336
2595.96	196.406
2595.27	200.012
2594.58	229.068
2593.9	156.323
2593.21	181.743
2592.52	185.348
2591.83	207.121
2591.14	185.289
2590.46	236.115
2589.77	159.807
2589.08	181.57
2588.39	210.587
2587.7	250.487
2587.01	196.002
2586.32	210.487
2585.64	203.197
2584.95	224.932
2584.26	210.387
2583.57	195.846
2582.88	192.189
2582.19	195.784
2581.5	177.628
2580.81	231.967
2580.12	184.819
2579.43	173.92
2578.74	224.611
2578.05	195.598
2577.36	188.324
2576.67	206.399
2575.98	235.33
2575.29	224.433
2574.6	202.681
2573.91	177.318
2573.22	209.853
2572.52	220.673
2571.83	162.765
2571.14	180.822
2570.45	188.025
2569.76	187.995
2569.07	234.956
2568.38	191.549
2567.68	202.36
2566.99	220.392
2566.3	202.295
2565.61	213.099
2564.92	231.121
2564.22	191.367
2563.53	212.997
2562.84	209.354
2562.14	176.84
2561.45	180.42
2560.76	216.469
2560.07	220.042
2559.37	180.334
2558.68	219.972
2557.99	212.726
2557.29	205.483
2556.6	191.032
2555.91	194.606
2555.21	183.765
2554.52	205.352
2553.82	234.136
2553.13	219.693
2552.44	219.658
2551.74	194.42
2551.05	226.787
2550.35	212.354
2549.66	201.525
2548.96	241.071
2548.27	226.643
2547.57	237.398
2546.88	215.782
2546.18	215.747
2545.49	237.284
2544.79	226.463
2544.1	222.833
2543.4	208.423
2542.7	258.691
2542.01	226.319
2541.31	190.365
2540.62	211.882
2539.92	183.123
2539.22	193.864
2538.53	204.601
2537.83	183.035
2537.13	226.066
2536.44	218.855
2535.74	222.407
2535.04	251.065
2534.35	186.476
2533.65	218.715
2532.95	218.681
2532.25	218.646
2531.56	211.443
2530.86	229.326
2530.16	211.376
2529.46	229.253
2528.76	200.564
2528.07	211.275
2527.37	272.107
2526.67	214.787
2525.97	229.07
2525.27	232.612
2524.57	243.309
2523.88	218.228
2523.18	221.77
2522.48	218.158
2521.78	189.517
2521.08	196.637
2520.38	193.031
2519.68	250.186
2518.98	203.69
2518.28	221.522
2517.58	221.487
2516.88	221.452
2516.18	203.56
2515.48	257.088
2514.78	232.056
2514.08	214.171
2513.38	253.396
2512.68	217.672
2511.98	224.772
2511.28	214.035
2510.58	235.401
2509.88	260.326
2509.17	210.367
2508.47	231.723
2507.77	210.3
2507.07	253.032
2506.37	192.416
2505.67	203.073
2504.97	203.041
2504.26	220.816
2503.56	224.342
2502.86	274.152
2502.16	206.471
2501.45	242.031
2500.75	224.199
2500.05	202.814
2499.35	238.358
2498.64	231.205
2497.94	252.507
2497.24	231.132
2496.53	223.984
2495.83	266.605
2495.13	252.346
2494.42	230.984
2493.72	230.947
2493.02	238.015
2492.31	230.873
2491.61	205.977
2490.9	266.307
2490.2	223.662
2489.5	259.122
2488.79	220.041
2488.09	220.006
2487.38	251.902
2486.68	234.125
2485.97	234.088
2485.27	230.504
2484.56	237.559
2483.86	265.881
2483.15	230.394
2482.45	237.445
2481.74	269.297
2481.04	251.54
2480.33	233.788
2479.62	255.001
2478.92	237.255
2478.21	265.541
2477.51	297.359
2476.8	254.838
2476.09	237.103
2475.39	233.527
2474.68	254.716
2473.97	212.229
2473.27	236.951
2472.56	265.201
2471.85	212.127
2471.14	250.977
2470.44	250.937
2469.73	229.694
2469.02	236.724
2468.31	250.816
2467.61	229.584
2466.9	218.952
2466.19	215.386
2465.48	218.882
2464.77	264.735
2464.07	254.104
2463.36	239.949
2462.65	278.72
2461.94	215.179
2461.23	229.253
2460.52	229.216
2459.81	257.386
2459.1	222.092
2458.4	257.304
2457.69	260.786
2456.98	257.221
2456.27	246.611
2455.56	239.526
2454.85	243.01
2454.14	267.62
2453.43	239.411
2452.72	228.812
2452.01	263.972
2451.3	239.296
2450.59	274.443
2449.88	246.255
2449.16	291.941
2448.45	253.21
2447.74	263.718
2447.03	256.644
2446.32	305.815
2445.61	224.931
2444.9	263.549
2444.19	256.48
2443.47	291.567
2442.76	288.008
2442.05	266.891
2441.34	294.938
2440.63	277.337
2439.91	266.763
2439.2	259.701
2438.49	231.588
2437.78	305.226
2437.06	266.592
2436.35	287.592
2435.64	270.013
2434.93	280.487
2434.21	206.826
2433.5	255.863
2432.79	283.857
2432.07	273.3
2431.36	259.243
2430.64	266.206
2429.93	294.181
2429.22	241.61
2428.5	269.579
2427.79	297.54
2427.07	304.492
2426.36	297.444
2425.65	251.912
2424.93	258.868
2424.22	300.798
2423.5	318.235
2422.79	269.233
2422.07	290.165
2421.36	265.651
2420.64	251.629
2419.92	262.071
2419.21	272.51
2418.49	289.932
2417.78	261.945
2417.06	317.775
2416.35	307.25
2415.63	254.837
2414.91	293.189
2414.2	272.204
2413.48	247.735
2412.76	279.093
2412.05	226.727
2411.33	275.516
2410.61	296.394
2409.9	278.914
2409.18	289.326
2408.46	285.795
2407.74	250.901
2407.03	324.029
2406.31	313.526
2405.59	278.645
2404.87	261.187
2404.16	299.447
2403.44	299.398
2402.72	295.869
2402	309.743
2401.28	295.774
2400.56	281.81
2399.85	271.329
2399.13	326.933
2398.41	257.332
2397.69	260.767
2396.97	295.488
2396.25	330.199
2395.53	267.591
2394.81	305.77
2394.09	277.928
2393.37	291.777
2392.65	316.041
2391.93	295.155
2391.21	270.805
2390.49	305.474
2389.77	312.366
2389.05	277.614
2388.33	315.735
2387.61	322.622
2386.89	326.039
2386.17	277.435
2385.45	291.26
2384.73	312.014
2384	280.767
2383.28	301.516
2382.56	291.072
2381.84	277.167
2381.12	297.906
2380.4	304.785
2379.67	290.885
2378.95	301.225
2378.23	304.638
2377.51	294.205
2376.79	325.304
2376.06	290.65
2375.34	318.28
2374.62	300.933
2373.9	314.718
2373.17	307.752
2372.45	266.214
2371.73	311.109
2371	324.884
2370.28	311.009
2369.56	307.504
2368.83	317.818
2368.11	290.134
2367.38	341.889
2366.66	300.399
2365.94	334.874
2365.21	327.916
2364.49	341.668
2363.76	365.768
2363.04	307.057
2362.31	317.356
2361.59	317.305
2360.86	320.702
2360.14	344.785
2359.41	286.125
2358.69	282.632
2357.96	323.941
2357.24	379.019
2356.51	296.276
2355.79	310.006
2355.06	316.844
2354.33	334.01
2353.61	309.856
2352.88	313.248
2352.15	309.756
2351.43	371.647
2350.7	340.621
2349.98	344.006
2349.25	330.192
2348.52	316.383
2347.79	316.332
2347.07	316.281
2346.34	333.416
2345.61	367.729
2344.88	295.51
2344.16	333.254
2343.43	346.941
2342.7	298.802
2341.97	353.696
2341.25	350.206
2340.52	353.582
2339.79	346.66
2339.06	301.992
2338.33	353.41
2337.6	332.769
2336.87	343.006
2336.14	353.239
2335.42	322.321
2334.69	363.41
2333.96	346.212
2333.23	346.155
2332.5	376.94
2331.77	332.339
2331.04	356.264
2330.31	383.607
2329.58	325.328
2328.85	373.211
2328.12	314.953
2327.39	345.707
2326.66	338.807
2325.93	331.908
2325.2	372.909
2324.47	311.277
2323.73	365.948
2323	335.113
2322.27	365.829
2321.54	389.699
2320.81	352.039
2320.08	362.234
2319.35	334.842
2318.61	358.701
2317.88	321.07
2317.15	375.66
2316.42	365.355
2315.69	317.5
2314.95	348.17
2314.22	348.113
2313.49	341.232
2312.76	348
2312.02	320.654
2311.29	378.584
2310.56	344.421
2309.82	330.727
2309.09	327.264
2308.36	371.521
2307.62	381.685
2306.89	398.659
2306.16	357.713
2305.42	364.468
2304.69	354.191
2303.95	360.944
2303.22	388.122
2302.48	336.999
2301.75	330.137
2301.02	340.292
2300.28	350.444
2299.55	398.013
2298.81	445.566
2298.08	309.465
2297.34	370.618
2296.6	350.16
2295.87	380.695
2295.13	350.046
2294.4	387.367
2293.66	390.701
2292.93	383.844
2292.19	417.745
2291.45	370.137
2290.72	349.705
2289.98	400.568
2289.24	383.533
2288.51	346.141
2287.77	366.443
2287.03	352.814
2286.3	393.459
2285.56	406.961
2284.82	359.423
2284.08	376.316
2283.35	376.255
2282.61	362.637
2281.87	389.687
2281.13	420.116
2280.4	372.623
2279.66	440.301
2278.92	379.275
2278.18	396.142
2277.44	379.151
2276.7	372.32
2275.97	399.333
2275.23	341.746
2274.49	399.203
2273.75	402.521
2273.01	375.4
2272.27	388.864
2271.53	402.324
2270.79	419.161
2270.05	378.535
2269.31	429.162
2268.57	449.364
2267.83	374.972
2267.09	408.687
2266.35	408.62
2265.61	395.048
2264.87	384.856
2264.13	391.544
2263.39	415.104
2262.65	394.791
2261.91	401.474
2261.17	404.782
2260.42	435.07
2259.68	377.673
2258.94	394.47
2258.2	394.405
2257.46	444.898
2256.72	401.017
2255.97	417.798
2255.23	397.517
2254.49	400.821
2253.75	451.271
2253	383.855
2252.26	447.757
2251.52	414.024
2250.78	390.398
2250.03	444.174
2249.29	403.728
2248.55	380.116
2247.8	403.597
2247.06	447.247
2246.32	443.812
2245.57	416.846
2244.83	389.889
2244.09	413.35
2243.34	423.362
2242.6	430.012
2241.85	446.737
2241.11	433.23
2240.36	413.013
2239.62	436.446
2238.88	433.018
2238.13	476.578
2237.39	362.409
2236.64	426.096
2235.89	422.672
2235.15	496.391
2234.4	439.302
2233.66	466.053
2232.91	405.635
2232.17	422.328
2231.42	402.151
2230.67	432.242
2229.93	435.522
2229.18	385.206
2228.44	405.238
2227.69	452.051
2226.94	448.629
2226.2	391.65
2225.45	465.217
2224.7	445.063
2223.95	438.299
2223.21	454.954
2222.46	414.743
2221.71	414.675
2220.96	451.387
2220.22	431.255
2219.47	427.842
2218.72	461.192
2217.97	481.165
2217.22	491.109
2216.48	457.626
2215.73	387.415
2214.98	487.529
2214.23	444.046
2213.48	423.945
2212.73	470.602
2211.98	473.862
2211.23	497.14
2210.48	463.7
2209.73	450.282
2208.98	420.195
2208.23	443.466
2207.48	446.727
2206.73	433.321
2205.98	446.581
2205.23	449.84
2204.48	463.093
2203.73	469.68
2202.98	439.628
2202.23	456.206
2201.48	442.814
2200.73	502.661
2199.98	455.982
2199.23	475.875
2198.48	489.106
2197.72	502.332
2196.97	452.358
2196.22	422.353
2195.47	512.061
2194.72	425.54
2193.97	442.09
2193.21	461.958
2192.46	455.237
2191.71	481.741
2190.96	484.984
2190.2	451.692
2189.45	464.901
2188.7	471.465
2187.94	517.863
2187.19	467.992
2186.44	484.508
2185.68	524.244
2184.93	467.762
2184.18	471.002
2183.42	467.608
2182.67	480.795
2181.91	450.879
2181.16	517.1
2180.41	510.387
2179.65	487.108
2178.9	467.149
2178.14	467.072
2177.39	503.428
2176.63	503.346
2175.88	506.574
2175.12	480.008
2174.37	532.887
2173.61	493.088
2172.86	466.537
2172.1	479.693
2171.34	489.538
2170.59	466.307
2169.83	433.165
2169.08	492.603
2168.32	472.689
2167.56	515.576
2166.81	498.969
2166.05	548.446
2165.29	488.896
2164.54	488.816
2163.78	485.433
2163.02	524.974
2162.27	445.66
2161.51	524.802
2160.75	491.715
2159.99	551.026
2159.23	570.73
2158.48	540.95
2157.72	481.498
2156.96	497.906
2156.2	537.387
2155.44	510.928
2154.69	550.393
2153.93	514.055
2153.17	494.203
2152.41	540.24
2151.65	477.573
2150.89	546.648
2150.13	490.586
2149.37	546.469
2148.61	582.585
2147.85	542.998
2147.09	542.909
2146.33	496.763
2145.57	539.442
2144.81	542.642
2144.05	552.417
2143.29	493.149
2142.53	473.345
2141.77	565.291
2141.01	571.77
2140.25	538.821
2139.49	515.738
2138.73	541.929
2137.97	548.407
2137.2	531.9
2136.44	515.399
2135.68	528.443
2134.92	528.356
2134.16	488.895
2133.4	508.499
2132.63	587.138
2131.87	521.45
2131.11	508.248
2130.35	570.456
2129.58	488.413
2128.82	553.881
2128.06	586.558
2127.29	540.593
2126.53	501.195
2125.77	569.893
2125	556.7
2124.24	543.512
2123.48	563.064
2122.71	517.148
2121.95	579.241
2121.19	549.698
2120.42	549.608
2119.66	539.704
2118.89	595.212
2118.13	539.527
2117.36	555.784
2116.6	536.08
2115.83	571.942
2115.07	490.156
2114.3	522.747
2113.54	610.859
2112.77	535.639
2112.01	522.488
2111.24	548.522
2110.48	571.283
2109.71	564.661
2108.94	496.037
2108.18	557.95
2107.41	570.907
2106.64	642.572
2105.88	567.457
2105.11	590.189
2104.34	586.831
2103.58	593.254
2102.81	560.565
2102.04	589.8
2101.28	485.446
2100.51	602.635
2099.74	596.022
2098.97	592.667
2098.21	560.011
2097.44	550.152
2096.67	556.571
2095.9	602.039
2095.13	595.433
2094.36	553.043
2093.6	614.752
2092.83	614.651
2092.06	562.524
2091.29	585.188
2090.52	575.34
2089.75	584.995
2088.98	597.896
2088.21	578.304
2087.44	574.961
2086.67	597.6
2085.9	558.534
2085.13	564.936
2084.36	626.521
2083.59	587.469
2082.82	558.166
2082.05	584.03
2081.28	606.642
2080.51	606.542
2079.74	593.47
2078.97	632.282
2078.2	570.58
2077.43	622.349
2076.65	606.041
2075.88	547.615
2075.11	618.8
2074.34	625.177
2073.57	605.641
2072.8	586.112
2072.02	586.015
2071.25	647.423
2070.48	589.058
2069.71	592.197
2068.93	579.157
2068.16	582.296
2067.39	585.434
2066.61	611.209
2065.84	578.774
2065.07	614.239
2064.29	604.441
2063.52	643.122
2062.75	607.472
2061.97	665.524
2061.2	616.962
2060.43	600.712
2059.65	610.3
2058.88	655.398
2058.1	610.098
2057.33	587.404
2056.55	600.215
2055.78	645.286
2055	648.405
2054.23	670.875
2053.45	603.043
2052.68	622.288
2051.9	647.976
2051.13	583.404
2050.35	692.879
2049.57	621.877
2048.8	624.995
2048.02	663.545
2047.25	637.671
2046.47	631.125
2045.69	589.167
2044.92	679.2
2044.14	656.559
2043.36	621.053
2042.59	656.341
2041.81	701.268
2041.03	656.124
2040.25	649.584
2039.48	643.046
2038.7	675.086
2037.92	594.62
2037.14	681.29
2036.37	632.98
2035.59	620.025
2034.81	664.891
2034.03	674.415
2033.25	638.983
2032.47	629.245
2031.69	597.042
2030.92	680.387
2030.14	693.109
2029.36	676.953
2028.58	673.633
2027.8	712.008
2027.02	689.443
2026.24	689.329
2025.46	743.71
2024.68	641.023
2023.9	663.349
2023.12	724.116
2022.34	666.332
2021.56	682.237
2020.78	704.541
2020	633.982
2019.21	697.904
2018.43	675.382
2017.65	662.469
2016.87	732.755
2016.09	697.441
2015.31	674.934
2014.53	716.399
2013.74	652.326
2012.96	674.598
2012.18	671.289
2011.4	696.747
2010.62	671.067
2009.83	674.15
2009.05	737.928
2008.27	693.09
2007.49	715.329
2006.7	625.809
2005.92	664.013
2005.14	689.438
2004.35	670.175
2003.57	717.926
2002.79	717.806
2002	711.308
2001.22	692.054
2000.43	717.449
1999.65	701.389
1998.87	698.085
1998.08	697.969
1997.3	697.853
1996.51	735.969
1995.73	719.919
1994.94	703.875
1994.16	678.282
1993.37	719.56
1992.59	709.89
1991.8	681.127
1991.02	703.29
1990.23	715.9
1989.44	722.143
1988.66	728.384
1987.87	737.804
1987.09	756.759
1986.3	737.558
1985.51	696.114
1984.73	750.025
1983.94	702.237
1983.15	724.359
1982.37	695.651
1981.58	736.822
1980.79	679.542
1980	758.801
1979.22	726.931
1978.43	720.463
1977.64	726.689
1976.85	736.087
1976.06	735.964
1975.28	732.67
1974.49	710.349
1973.7	773.645
1972.91	735.474
1972.12	729.012
1971.33	722.553
1970.54	776.298
1969.76	738.152
1968.97	779.207
1968.18	750.574
1967.39	721.951
1966.6	728.163
1965.81	696.387
1965.02	765.898
1964.23	743.62
1963.44	721.35
1962.65	793.985
1961.86	774.876
1961.07	765.26
1960.28	743.001
1959.48	825.067
1958.69	812.287
1957.9	793.191
1957.11	758.303
1956.32	777.131
1955.53	745.416
1954.74	773.714
1953.94	783.057
1953.15	773.456
1952.36	811.204
1951.57	848.94
1950.78	779.38
1949.98	772.94
1949.19	753.885
1948.4	813.682
1947.61	763.093
1946.81	835.479
1946.02	740.773
1945.23	775.318
1944.43	734.223
1943.64	737.252
1942.85	819.032
1942.05	781.1
1941.26	850.249
1940.46	790.285
1939.67	717.748
1938.88	777.431
1938.08	827.652
1937.29	786.61
1936.49	805.354
1935.7	776.911
1934.9	761.057
1934.11	795.518
1933.31	858.261
1932.52	807.825
1931.72	864.26
1930.93	870.4
1930.13	845.121
1929.33	822.991
1928.54	810.291
1927.74	813.296
1926.95	806.881
1926.15	778.494
1925.35	844.274
1924.56	800.2
1923.76	843.992
1922.96	759.152
1922.17	849.982
1921.37	840.432
1920.57	834.021
1919.77	799.398
1918.98	887.026
1918.18	852.406
1917.38	892.996
1916.58	886.581
1915.78	836.317
1914.99	829.913
1914.19	867.349
1913.39	835.897
1912.59	895.23
1911.79	813.71
1910.99	832.348
1910.19	863.495
1909.39	825.814
1908.59	841.313
1907.8	831.791
1907	841.031
1906.2	831.513
1905.4	897.008
1904.6	837.484
1903.8	865.464
1903	880.938
1902.2	815.2
1901.39	843.169
1900.59	830.538
1899.79	811.669
1898.99	858.352
1898.19	855.087
1897.39	814.381
1896.59	823.604
1895.79	898.326
1894.99	860.752
1894.18	879.316
1893.38	813.699
1892.58	854.085
1891.78	903.807
1890.98	881.843
1890.17	844.309
1889.37	890.892
1888.57	893.858
1887.76	871.91
1886.96	924.692
1886.16	887.182
1885.36	849.685
1884.55	861.99
1883.75	830.732
1882.94	908.363
1882.14	861.556
1881.34	895.619
1880.53	911.015
1879.73	885.992
1878.92	969.766
1878.12	907.449
1877.32	860.689
1876.51	925.785
1875.71	900.78
1874.9	885.101
1874.1	850.796
1873.29	897.222
1872.49	890.863
1871.68	893.817
1870.87	912.285
1870.07	884.21
1869.26	961.611
1868.46	908.724
1867.65	837.251
1866.84	865.014
1866.04	877.268
1865.23	936.008
1864.42	911.061
1863.62	917.104
1862.81	898.363
1862	901.31
1861.2	944.513
1860.39	904.103
1859.58	900.855
1858.77	872.847
1857.96	903.647
1857.16	918.966
1856.35	897.156
1855.54	931.03
1854.73	915.41
1853.92	887.428
1853.12	918.194
1852.31	918.04
1851.5	902.433
1850.69	923.911
1849.88	942.293
1849.07	957.579
1848.26	935.799
1847.45	904.762
1846.64	923.135
1845.83	904.458
1845.02	916.651
1844.21	928.84
1843.4	900.916
1842.59	950.122
1841.78	925.287
1840.97	869.624
1840.16	946.559
1839.35	915.572
1838.54	983.227
1837.72	992.306
1836.91	942.841
1836.1	961.166
1835.29	970.244
1834.48	991.638
1833.67	883.703
1832.85	988.226
1832.04	963.435
1831.23	929.42
1830.42	978.496
1829.6	978.331
1828.79	947.406
1827.98	968.775
1827.17	944.012
1826.35	989.97
1825.54	882.216
1824.73	1020.37
1823.91	921.866
1823.1	1013.88
1822.29	943.058
1821.47	961.327
1820.66	985.732
1819.84	936.441
1819.03	917.864
1818.21	1015.93
1817.4	972.792
1816.58	991.038
1815.77	1021.55
1814.95	960.032
1814.14	981.336
1813.32	987.303
1812.51	984.071
1811.69	1026.82
1810.88	922.447
1810.06	1078.56
1809.25	958.899
1808.43	943.422
1807.61	1025.95
1806.8	1019.65
1805.98	1022.54
1805.16	1019.31
1804.35	1000.78
1803.53	1028.15
1802.71	975.962
1801.89	1024.74
1801.08	1039.86
1800.26	1030.51
1799.44	1015.05
1798.62	987.366
1797.81	1054.44
1796.99	1054.26
1796.17	1026.58
1795.35	1017.25
1794.53	1020.13
1793.71	1013.85
1792.9	1001.47
1792.08	967.716
1791.26	1013.34
1790.44	1129.13
1789.62	1028.25
1788.8	1009.77
1787.98	982.15
1787.16	1033.83
1786.34	1027.55
1785.52	1088.35
1784.7	1027.21
1783.88	1069.7
1783.06	1057.33
1782.24	1029.73
1781.42	1108.76
1780.6	1148.16
1779.78	1044.44
1778.95	1038.17
1778.13	1098.87
1777.31	1013.47
1776.49	1013.3
1775.67	1055.72
1774.85	1058.59
1774.02	1067.53
1773.2	1070.39
1772.38	1051.97
1771.56	1139.95
1770.74	1115.44
1769.91	1136.52
1769.09	1048.22
1768.27	1108.8
1767.44	1129.87
1766.62	1041.61
1765.8	1129.49
1764.97	1089.83
1764.15	1144.28
1763.33	1138.02
1762.5	1146.93
1761.68	1143.7
1760.85	1140.47
1760.03	1125.12
1759.21	1143.12
1758.38	1173.24
1757.56	1136.67
1756.73	1151.63
1755.91	1233.25
1755.08	1230.01
1754.26	1263.12
1753.43	1256.85
1752.6	1226.36
1751.78	1323.03
1750.95	1274.37
1750.13	1283.24
1749.3	1325.38
1748.47	1421.97
1747.65	1391.48
1746.82	1391.25
1745.99	1496.85
1745.17	1463.34
1744.34	1608.19
1743.51	1641.16
1742.69	1734.56
1741.86	1782.61
1741.03	1894.08
1740.2	1951.15
1739.38	2041.41
1738.55	2204.11
1737.72	2264.11
1736.89	2254.67
1736.06	2375
1735.23	2377.62
1734.4	2476.77
1733.58	2557.78
1732.75	2723.22
1731.92	2599.13
1731.09	2815.75
1730.26	2815.27
1729.43	2866.02
1728.6	2967.99
1727.77	3000.62
1726.94	3102.53
1726.11	3035.74
1725.28	3173.74
1724.45	3085.89
1723.62	3139.55
1722.79	3045.72
1721.96	3165.57
1721.13	3041.68
1720.3	2977.99
1719.46	2962.45
1718.63	2850.68
1717.8	2772.03
1716.97	2675.36
1716.14	2560.7
1715.31	2413.02
1714.47	2322.48
1713.64	2165.87
1712.81	2135.47
1711.98	1990.97
1711.14	1879.54
1710.31	1777.15
1709.48	1665.8
1708.65	1638.5
1707.81	1575.22
1706.98	1487.95
1706.15	1418.71
1705.31	1454.46
1704.48	1352.27
1703.64	1301.07
1702.81	1354.8
1701.98	1288.64
1701.14	1306.4
1700.31	1291.2
1699.47	1276
1698.64	1230.86
1697.8	1278.56
1696.97	1212.48
1696.13	1239.22
1695.3	1227.03
1694.46	1193.91
1693.63	1277.48
1692.79	1238.37
1691.95	1136.48
1691.12	1205.06
1690.28	1160.01
1689.45	1204.65
1688.61	1168.58
1687.77	1290.9
1686.94	1201.05
1686.1	1221.75
1685.26	1176.74
1684.42	1236.27
1683.59	1209.18
1682.75	1179.13
1681.91	1196.83
1681.07	1130.98
1680.24	1199.41
1679.4	1318.53
1678.56	1190.05
1677.72	1204.76
1676.88	1243.32
1676.04	1082.13
1675.21	1213.09
1674.37	1218.84
1673.53	1191.82
1672.69	1188.63
1671.85	1250.98
1671.01	1170.36
1670.17	1188.03
1669.33	1128.28
1668.49	1199.53
1667.65	1208.25
1666.81	1154.49
1665.97	1267.34
1665.13	1151.12
1664.29	1228.24
1663.45	1248.85
1662.61	1212.96
1661.77	1200.86
1660.92	1191.74
1660.08	1161.82
1659.24	1158.66
1658.4	1170.34
1657.56	1161.23
1656.72	1193.69
1655.87	1199.43
1655.03	1214.07
1654.19	1296.96
1653.35	1240.36
1652.5	1243.11
1651.66	1183.57
1650.82	1245.65
1649.98	1200.96
1649.13	1245.23
1648.29	1245.02
1647.45	1200.35
1646.6	1229.77
1645.76	1191.05
1644.91	1238.24
1644.07	1279.49
1643.23	1199.32
1642.38	1231.68
1641.54	1272.92
1640.69	1296.38
1639.85	1177.79
1639	1216.05
1638.16	1289.8
1637.31	1280.7
1636.47	1295.27
1635.62	1318.7
1634.78	1351
1633.93	1318.25
1633.08	1329.85
1632.24	1329.62
1631.39	1326.44
1630.55	1394.15
1629.7	1390.96
1628.85	1375.95
1628.01	1337.34
1627.16	1351.87
1626.31	1454.93
1625.46	1451.73
1624.62	1483.93
1623.77	1536.77
1622.92	1678.07
1622.07	1831.11
1621.23	1780.68
1620.38	2025.03
1619.53	2281.08
1618.68	2531.16
1617.83	3087.54
1616.98	3543.59
1616.13	4102.55
1615.29	4790.89
1614.44	5293.51
1613.59	5613.46
1612.74	5827.34
1611.89	5564.45
1611.04	5551.73
1610.19	5033.06
1609.34	4617.51
1608.49	4134.46
1607.64	3786.82
1606.79	3348.18
1605.94	2994.91
1605.09	2721.11
1604.24	2553.18
1603.38	2341.24
1602.53	2193.98
1601.68	2061.46
1600.83	1870.26
1599.98	1928.65
1599.13	1775.7
1598.27	1675.62
1597.42	1587.31
1596.57	1531.3
1595.72	1539.84
1594.87	1445.74
1594.01	1442.56
1593.16	1389.54
1592.31	1433.27
1591.45	1365.62
1590.6	1336.09
1589.75	1268.48
1588.89	1350.27
1588.04	1376.4
1587.19	1373.23
1586.33	1349.58
1585.48	1378.62
1584.62	1267.17
1583.77	1316.7
1582.92	1386.68
1582.06	1348.42
1581.21	1289.7
1580.35	1274.86
1579.5	1388.65
1578.64	1458.57
1577.78	1353.11
1576.93	1314.89
1576.07	1329.27
1575.22	1282.31
1574.36	1369.7
1573.51	1384.06
1572.65	1269.97
1571.79	1284.34
1570.94	1260.78
1570.08	1321.84
1569.22	1394.55
1568.37	1309.71
1567.51	1268.66
1566.65	1320.93
1565.79	1306.12
1564.94	1314.64
1564.08	1305.67
1563.22	1320.02
1562.36	1238.22
1561.5	1197.22
1560.65	1246.53
1559.79	1269.61
1558.93	1240.28
1558.07	1248.8
1557.21	1187.46
1556.35	1294.93
1555.49	1274.34
1554.63	1233.39
1553.77	1244.81
1552.91	1253.32
1552.05	1250.2
1551.19	1296.5
1550.33	1238.14
1549.47	1255.37
1548.61	1220.28
1547.75	1301.41
1546.89	1307
1546.03	1321.29
1545.17	1228.16
1544.31	1259.88
1543.45	1233.54
1542.58	1308.78
1541.72	1247.62
1540.86	1305.42
1540	1322.6
1539.14	1270.17
1538.28	1226.46
1537.41	1377
1536.55	1324.59
1535.69	1272.2
1534.82	1303.85
1533.96	1216.72
1533.1	1141.2
1532.24	1265.53
1531.37	1288.47
1530.51	1302.73
1529.64	1351.71
1528.78	1287.81
1527.92	1244.18
1527.05	1252.65
1526.19	1223.51
1525.32	1330.3
1524.46	1295.37
1523.59	1306.71
1522.73	1303.6
1521.86	1309.15
1521	1239.58
1520.13	1271.14
1519.27	1334.47
1518.4	1224.5
1517.54	1261.82
1516.67	1267.38
1515.8	1267.16
1514.94	1258.28
1514.07	1263.84
1513.21	1275.16
1512.34	1266.29
1511.47	1274.72
1510.6	1251.43
1509.74	1280.05
1508.87	1279.82
1508	1210.44
1507.14	1276.5
1506.27	1319.5
1505.4	1319.27
1504.53	1252.8
1503.66	1321.69
1502.8	1295.55
1501.93	1269.42
1501.06	1292.23
1500.19	1292
1499.32	1311.92
1498.45	1317.45
1497.58	1207.93
1496.71	1331.37
1495.84	1256.39
1494.97	1247.55
1494.1	1322.06
1493.23	1313.21
1492.36	1267.01
1491.49	1281.15
1490.62	1243.6
1489.75	1249.12
1488.88	1277.62
1488.01	1237.21
1487.14	1280.05
1486.27	1302.78
1485.4	1288.21
1484.52	1365.44
1483.65	1293.5
1482.78	1267.47
1481.91	1330.33
1481.04	1292.83
1480.17	1263.95
1479.29	1366.89
1478.42	1295.03
1477.55	1306.26
1476.67	1323.22
1475.8	1280.03
1474.93	1276.95
1474.06	1339.71
1473.18	1365.23
1472.31	1356.41
1471.43	1387.65
1470.56	1315.89
1469.69	1332.83
1468.81	1409.81
1467.94	1349.52
1467.06	1334.99
1466.19	1417.65
1465.31	1414.55
1464.44	1394.3
1463.56	1362.63
1462.69	1445.23
1461.81	1376.44
1460.94	1379.06
1460.06	1427.35
1459.19	1341.48
1458.31	1429.71
1457.43	1492.23
1456.56	1417.8
1455.68	1437.52
1454.8	1465.79
1453.93	1505.45
1453.05	1556.5
1452.17	1567.64
1451.3	1518.92
1450.42	1538.6
1449.54	1455.72
1448.66	1535.22
1447.78	1438.13
1446.91	1463.5
1446.03	1449.01
1445.15	1448.76
1444.27	1434.28
1443.39	1453.95
1442.51	1524.82
1441.64	1473.36
1440.76	1402.01
1439.88	1447.26
1439	1424.26
1438.12	1486.55
1437.24	1429.45
1436.36	1449.09
1435.48	1386.34
1434.6	1377.58
1433.72	1445.5
1432.84	1345.87
1431.96	1385.38
1431.08	1387.98
1430.2	1441.66
1429.31	1327.91
1428.43	1381.58
1427.55	1335.96
1426.67	1364.08
1425.79	1332.66
1424.91	1355.1
1424.02	1332.19
1423.14	1365.97
1422.26	1377.07
1421.38	1399.49
1420.49	1390.75
1419.61	1435.82
1418.73	1418.58
1417.85	1421.17
1416.96	1364.31
1416.08	1468.78
1415.2	1423.25
1414.31	1530.51
1413.43	1555.7
1412.54	1637.44
1411.66	1637.16
1410.78	1724.51
1409.89	1613.98
1409.01	1605.22
1408.12	1636.02
1407.24	1488.83
1406.35	1593.08
1405.47	1508.08
1404.58	1386.4
1403.7	1484.97
1402.81	1470.6
1401.92	1306.66
1401.04	1408.01
1400.15	1433.16
1399.27	1365.21
1398.38	1452.4
1397.49	1401.39
1396.61	1378.59
1395.72	1386.81
1394.83	1321.75
1393.94	1431.41
1393.06	1301.57
1392.17	1290.07
1391.28	1379.97
1390.39	1326.23
1389.51	1387.93
1388.62	1353.91
1387.73	1333.98
1386.84	1333.75
1385.95	1361.65
1385.06	1333.28
1384.17	1386.48
1383.29	1400.3
1382.4	1341.02
1381.51	1385.76
1380.62	1337.74
1379.73	1447.09
1378.84	1382.22
1377.95	1390.41
1377.06	1314.34
1376.17	1389.92
1375.28	1361.61
1374.39	1406.28
1373.5	1372.36
1372.6	1346.87
1371.71	1422.38
1370.82	1410.91
1369.93	1466.75
1369.04	1323.49
1368.15	1452.22
1367.26	1454.77
1366.36	1339.62
1365.47	1353.39
1364.58	1336.35
1363.69	1366.92
1362.79	1366.69
1361.9	1366.45
1361.01	1341.01
1360.11	1385.56
1359.22	1332.15
1358.33	1289.94
1357.43	1317.69
1356.54	1401.38
1355.65	1353.59
1354.75	1409.28
1353.86	1439.78
1352.96	1324.93
1352.07	1361.03
1351.17	1341.23
1350.28	1346.58
1349.39	1321.21
1348.49	1348.91
1347.59	1337.5
1346.7	1345.64
1345.8	1364.95
1344.91	1353.55
1344.01	1364.47
1343.12	1341.91
1342.22	1366.78
1341.32	1397.22
1340.43	1341.21
1339.53	1327.03
1338.63	1379.76
1337.74	1393.46
1336.84	1376.49
1335.94	1345.61
1335.04	1440.08
1334.15	1409.19
1333.25	1350.47
1332.35	1403.13
1331.45	1386.18
1330.55	1397.07
1329.66	1410.74
1328.76	1407.71
1327.86	1396.34
1326.96	1493.43
1326.06	1412.53
1325.16	1428.97
1324.26	1453.73
1323.36	1414.57
1322.46	1475.45
1321.56	1458.53
1320.66	1502.71
1319.76	1544.11
1318.86	1493.86
1317.96	1568.55
1317.06	1543.3
1316.16	1573.55
1315.26	1545.53
1314.36	1667.33
1313.46	1622.65
1312.55	1655.65
1311.65	1813.41
1310.75	1732.69
1309.85	1735.16
1308.95	1842.94
1308.04	1848.16
1307.14	1903.24
1306.24	1952.76
1305.34	1910.88
1304.43	1957.62
1303.53	1960.04
1302.63	1857.29
1301.72	1898.47
1300.82	1953.48
1299.92	1895.04
1299.01	1916.83
1298.11	2076.9
1297.21	2167.78
1296.3	2128.69
1295.4	2283.11
1294.49	2313.11
1293.59	2351.38
1292.68	2395.17
1291.78	2521.81
1290.87	2606.98
1289.97	2587.19
1289.06	2567.41
1288.16	2497.96
1287.25	2654.82
1286.34	2640.56
1285.44	2582.16
1284.53	2556.88
1283.62	2630.89
1282.72	2418.12
1281.81	2456.29
1280.9	2309.78
1280	2281.81
1279.09	2242.84
1278.18	2168.06
1277.27	2170.44
1276.37	2095.7
1275.46	1996.21
1274.55	1971.08
1273.64	1901.93
1272.73	1948.37
1271.82	1901.26
1270.92	1810.14
1270.01	1831.83
1269.1	1773.75
1268.19	1811.93
1267.28	1770.38
1266.37	1759.07
1265.46	1665.33
1264.55	1700.76
1263.64	1653.76
1262.73	1669.95
1261.82	1606.49
1260.91	1521.09
1260	1636.12
1259.09	1548
1258.18	1503.82
1257.27	1547.46
1256.35	1536.21
1255.44	1483.83
1254.53	1458.89
1253.62	1401.05
1252.71	1461.12
1251.79	1441.67
1250.88	1457.86
1249.97	1432.95
1249.06	1397.08
1248.14	1377.66
1247.23	1426.71
1246.32	1481.22
1245.41	1385.15
1244.49	1529.96
1243.58	1403.82
1242.66	1428.19
1241.75	1378.7
1240.84	1408.54
1239.92	1350.87
1239.01	1334.23
1238.09	1413.27
1237.18	1328.29
1236.26	1412.77
1235.35	1319.63
1234.43	1338.52
1233.52	1390.17
1232.6	1256.12
1231.69	1373.3
1230.77	1293.9
1229.86	1312.77
1228.94	1323.46
1228.02	1320.49
1227.11	1295.71
1226.19	1358.21
1225.27	1289.8
1224.36	1398.63
1223.44	1401.11
1222.52	1330
1221.6	1365.19
1220.69	1381.29
1219.77	1321.12
1218.85	1260.97
1217.93	1263.47
1217.01	1325.87
1216.1	1276.64
1215.18	1319.96
1214.26	1317
1213.34	1284.12
1212.42	1360.06
1211.5	1313.58
1210.58	1356.86
1209.66	1340.31
1208.74	1378.13
1207.82	1309.94
1206.9	1290.69
1205.98	1358.38
1205.06	1306.53
1204.14	1249.27
1203.22	1278.91
1202.3	1360.13
1201.38	1283.89
1200.46	1294.52
1199.54	1316
1198.61	1340.18
1197.69	1348.08
1196.77	1315.3
1195.85	1358.45
1194.93	1298.57
1194	1382.36
1193.08	1357.73
1192.16	1376.46
1191.24	1378.92
1190.31	1289.29
1189.39	1370.31
1188.47	1340.28
1187.54	1418.55
1186.62	1396.65
1185.7	1445.11
1184.77	1444.86
1183.85	1414.84
1182.92	1376.73
1182	1362.96
1181.07	1481.69
1180.15	1489.54
1179.23	1524.41
1178.3	1556.57
1177.37	1548.19
1176.45	1550.61
1175.52	1544.94
1174.6	1560.87
1173.67	1598.39
1172.75	1573.81
1171.82	1546.54
1170.89	1446.42
1169.97	1451.56
1169.04	1491.77
1168.11	1440.26
1167.19	1418.43
1166.26	1375.04
1165.33	1372.1
1164.4	1401.5
1163.48	1363.53
1162.55	1363.29
1161.62	1373.82
1160.69	1422.06
1159.76	1381.41
1158.83	1354.24
1157.91	1316.32
1156.98	1332.23
1156.05	1321.23
1155.12	1339.83
1154.19	1312.7
1153.26	1444.25
1152.33	1320.3
1151.4	1312
1150.47	1378.96
1149.54	1346.47
1148.61	1370.41
1147.68	1343.3
1146.75	1332.32
1145.82	1273
1144.89	1337.22
1143.96	1452.42
1143.02	1347.48
1142.09	1451.91
1141.16	1344.32
1140.23	1346.76
1139.3	1384.08
1138.36	1429.42
1137.43	1370.18
1136.5	1469.13
1135.57	1455.46
1134.63	1476.65
1133.7	1433.51
1132.77	1516.31
1131.83	1387.47
1130.9	1510.41
1129.97	1614.57
1129.03	1571.45
1128.1	1531.02
1127.17	1605.68
1126.23	1704.39
1125.3	1712.11
1124.36	1741.23
1123.43	1698.13
1122.49	1737.94
1121.56	1890.01
1120.62	1820.18
1119.69	1827.87
1118.75	1798.16
1117.81	1781.81
1116.88	1885.66
1115.94	1853.27
1115.01	1858.28
1114.07	1817.91
1113.13	1793.57
1112.2	1793.25
1111.26	1806.27
1110.32	1757.93
1109.38	1693.61
1108.45	1717.31
1107.51	1727.67
1106.57	1668.71
1105.63	1729.72
1104.69	1724.08
1103.76	1657.16
1102.82	1744.77
1101.88	1723.16
1100.94	1690.9
1100	1679.95
1099.06	1724.9
1098.12	1692.65
1097.18	1631.15
1096.24	1737.28
1095.3	1707.71
1094.36	1659.53
1093.42	1696.46
1092.48	1645.65
1091.54	1616.12
1090.6	1597.23
1089.66	1655.4
1088.72	1641.82
1087.78	1609.65
1086.84	1617.33
1085.9	1537.39
1084.95	1648.61
1084.01	1552.76
1083.07	1528.6
1082.13	1523.02
1081.19	1530.71
1080.24	1495.96
1079.3	1514.25
1078.36	1588.22
1077.41	1503.11
1076.47	1500.19
1075.53	1446.92
1074.58	1531.45
1073.64	1393.42
1072.7	1427.61
1071.75	1453.83
1070.81	1458.87
1069.86	1432.14
1068.92	1413.35
1067.98	1368.12
1067.03	1373.16
1066.09	1391.43
1065.14	1362.09
1064.19	1343.34
1063.25	1372.18
1062.3	1334.93
1061.36	1395.48
1060.41	1376.73
1059.46	1355.35
1058.52	1349.82
1057.57	1407.69
1056.63	1370.47
1055.68	1404.54
1054.73	1364.7
1053.78	1369.73
1052.84	1406.43
1051.89	1419.37
1050.94	1442.85
1049.99	1342.38
1049.05	1331.59
1048.1	1326.08
1047.15	1399.65
1046.2	1412.58
1045.25	1367.53
1044.3	1506.91
1043.35	1322.26
1042.4	1443.17
1041.45	1432.38
1040.5	1387.37
1039.55	1373.96
1038.6	1439.5
1037.65	1347.15
1036.7	1391.64
1035.75	1388.76
1034.8	1409.55
1033.85	1406.66
1032.9	1498.42
1031.95	1421.93
1031	1416.42
1030.05	1376.76
1029.1	1400.15
1028.14	1457.68
1027.19	1449.54
1026.24	1441.41
1025.29	1496.28
1024.33	1440.89
1023.38	1411.77
1022.43	1348.55
1021.48	1348.31
1020.52	1408.39
1019.57	1455.33
1018.62	1400.02
1017.66	1397.14
1016.71	1399.51
1015.75	1373.06
1014.8	1443.55
1013.85	1443.29
1012.89	1435.18
1011.94	1416.59
1010.98	1390.16
1010.03	1426.55
1009.07	1462.93
1008.12	1496.69
1007.16	1467.64
1006.2	1480.46
1005.25	1495.88
1004.29	1516.53
1003.34	1545.02
1002.38	1539.51
1001.42	1523.56
1000.47	1591.22
999.508	1549.13
998.551	1522.74
997.594	1491.12
996.636	1501.3
995.679	1529.75
994.721	1459
993.763	1513.54
992.805	1390.64
991.846	1528.65
990.888	1499.68
989.929	1408.15
988.97	1436.57
988.011	1446.74
987.052	1389.14
986.093	1513.97
985.133	1430.33
984.173	1437.89
983.213	1398.56
982.253	1406.12
981.293	1413.68
980.333	1499.33
979.372	1405.37
978.411	1418.12
977.45	1386.65
976.489	1417.61
975.528	1357.54
974.566	1406.7
973.605	1388.25
972.643	1403.6
971.681	1387.75
970.719	1439.47
969.756	1392.45
968.794	1399.99
967.831	1412.72
966.868	1402.08
965.905	1399.23
964.942	1388.6
963.979	1362.4
963.015	1362.16
962.052	1465.67
961.088	1410.94
960.124	1366.61
959.159	1358.58
958.195	1399.81
957.23	1433.25
956.266	1414.86
955.301	1334.29
954.336	1372.9
953.37	1377.83
952.405	1354.28
951.439	1284.13
950.473	1330.5
949.507	1392.37
948.541	1278.27
947.575	1384.11
946.608	1401.96
945.642	1352.57
944.675	1331.64
943.708	1424.47
942.741	1333.75
941.773	1359.35
940.806	1449.54
939.838	1420.86
938.87	1433.52
937.902	1466.84
936.934	1420.1
935.965	1368.21
934.997	1386.03
934.028	1365.13
933.059	1431.97
932.09	1398.18
931.121	1387.61
930.151	1335.78
929.182	1459.3
928.212	1394.59
927.242	1420.11
926.272	1327.09
925.301	1435.06
924.331	1383.28
923.36	1429.39
922.389	1462.61
921.418	1377.38
920.447	1397.73
919.475	1389.75
918.504	1404.94
917.532	1345.52
916.56	1363.28
915.588	1445.33
914.616	1416.78
913.643	1362.54
912.671	1449.69
911.698	1403.17
910.725	1428.61
909.752	1505.42
908.779	1448.64
907.805	1471.49
906.831	1399.33
905.858	1509.46
904.883	1429.63
903.909	1508.92
902.935	1493.25
901.96	1492.98
900.986	1582.48
900.011	1630.92
899.036	1520.37
898.06	1530.35
897.085	1558.27
896.109	1729.67
895.133	1634.57
894.157	1542.05
893.181	1598.12
892.205	1600.39
891.229	1628.26
890.252	1694.52
889.275	1666.06
888.298	1665.76
887.321	1619.41
886.343	1718.87
885.366	1749.25
884.388	1759.16
883.41	1715.38
882.432	1669.06
881.454	1663.65
880.475	1617.36
879.497	1680.93
878.518	1706.17
877.539	1718.63
876.56	1664.7
875.58	1723.11
874.601	1643.68
873.621	1732.69
872.641	1711.97
871.661	1709.11
870.681	1759.81
869.701	1736.54
868.72	1812.71
867.739	1766.5
866.758	1812.05
865.777	1847.4
864.796	2015.21
863.815	2091.26
862.833	2236.04
861.851	2268.74
860.869	2385.44
859.887	2430.82
858.905	2524.54
857.922	2455.38
856.939	2666.09
855.956	2467.21
854.973	2403.19
853.99	2349.36
853.007	2318.42
852.023	2269.71
851.039	2256.59
850.055	2164.72
849.071	2151.62
848.087	2085.2
847.102	2021.33
846.118	1924.49
845.133	1870.83
844.148	1906.02
843.163	1842.24
842.177	1750.57
841.192	1813.67
840.206	1762.62
839.22	1754.69
838.234	1701.13
837.248	1746.45
836.261	1703.05
835.274	1674.86
834.288	1674.56
833.301	1704.65
832.313	1625.84
831.326	1736.95
830.339	1650.56
829.351	1738.85
828.363	1695.51
827.375	1723.03
826.387	1692.36
825.398	1790.7
824.409	1686.69
823.421	1736.95
822.432	1713.88
821.443	1708.52
820.453	1645.03
819.464	1728.11
818.474	1677.27
817.484	1742.63
816.494	1722.11
815.504	1744.52
814.513	1731.58
813.523	1703.51
812.532	1647.69
811.541	1665.05
810.55	1629.43
809.559	1745.14
808.567	1580.93
807.575	1701.65
806.583	1771.91
805.591	1612.83
804.599	1647.81
803.607	1705.45
802.614	1687.51
801.621	1596.54
800.628	1639.05
799.635	1666.45
798.642	1713.96
797.649	1779.08
796.655	1768.69
795.661	1838.8
794.667	1810.8
793.673	1790.35
792.678	1762.37
791.684	1694.18
790.689	1771.78
789.694	1703.62
788.699	1660.6
787.704	1592.48
786.708	1624.83
785.713	1664.71
784.717	1599.14
783.721	1676.65
782.724	1548.36
781.728	1583.21
780.731	1625.56
779.735	1555.04
778.738	1604.91
777.741	1559.49
776.743	1604.32
775.746	1604.03
774.748	1556.13
773.75	1545.82
772.752	1538.02
771.754	1487.65
770.756	1537.46
769.757	1504.64
768.758	1481.83
767.759	1506.59
766.76	1546.35
765.761	1506.04
764.761	1565.79
763.762	1590.52
762.762	1517.72
761.762	1514.94
760.762	1514.66
759.761	1536.88
758.761	1549.09
757.76	1506.34
756.759	1506.06
755.758	1603.18
754.756	1540.46
753.755	1502.74
752.753	1562.36
751.751	1614.48
750.749	1486.95
749.747	1613.89
748.745	1593.64
747.742	1521.04
746.739	1538.21
745.736	1625.17
744.733	1482.82
743.73	1594.68
742.726	1494.74
741.723	1501.94
740.719	1536.53
739.715	1583.55
738.71	1588.24
737.706	1580.48
736.701	1629.96
735.697	1512.73
734.692	1542.3
733.686	1609.17
732.681	1596.44
731.675	1623.5
730.67	1623.2
729.664	1583.14
728.658	1567.94
727.651	1609.89
726.645	1609.59
725.638	1527.34
724.631	1611.49
723.624	1616.16
722.617	1474.38
721.61	1685.05
720.602	1662.41
719.595	1662.11
718.587	1622.12
717.578	1597.02
716.57	1643.84
715.562	1638.58
714.553	1598.62
713.544	1650.37
712.535	1615.38
711.526	1704.26
710.516	1689.09
709.507	1743.25
708.497	1767.69
707.487	1754.99
706.477	1767.04
705.467	1850.85
704.456	1895.04
703.445	1916.95
702.434	1966.06
701.423	1955.81
700.412	1908.48
699.401	1772.19
698.389	1769.39
697.377	1756.71
696.365	1687.22
695.353	1632.58
694.34	1590.3
693.328	1614.69
692.315	1537.87
691.302	1584.49
690.289	1645.88
689.276	1591.3
688.262	1576.21
687.249	1568.52
686.235	1592.89
685.221	1597.53
684.206	1661.32
683.192	1631.45
682.177	1677.96
681.162	1645.63
680.147	1657.64
679.132	1630.25
678.117	1634.87
677.101	1622.26
676.086	1685.96
675.07	1616.74
674.054	1559.86
673.037	1611.23
672.021	1637.99
671.004	1701.62
669.987	1711.14
668.97	1560.88
667.953	1639.24
666.936	1575.05
665.918	1641.09
664.9	1660.44
663.882	1593.83
662.864	1605.81
661.846	1630.07
660.827	1671.49
659.808	1614.74
658.789	1646.34
657.77	1682.84
656.751	1635.93
655.731	1613.55
654.712	1664.74
653.692	1745.33
652.672	1666.58
651.652	1676.08
650.631	1629.22
649.611	1690.16
648.59	1643.31
647.569	1674.84
646.548	1642.71
645.526	1652.2
644.505	1647
643.483	1668.71
642.461	1685.53
641.439	1741.48
640.417	1790.06
639.394	1777.51
638.371	1713.62
637.348	1808.63
636.325	1862.05
635.302	2118.24
634.279	2227.78
633.255	2522.88
632.231	2717.76
631.207	2687.97
630.183	2357.94
629.159	2067.09
628.134	1932.51
627.109	1797.97
626.084	1726.91
625.059	1760.73
624.034	1714.08
623.008	1623.56
621.983	1701.26
620.957	1693.63
619.931	1642.16
618.904	1693.01
617.878	1734.1
616.851	1702.12
615.824	1735.9
614.797	1667.42
613.77	1718.22
612.743	1734.93
611.715	1739.48
610.687	1744.02
609.659	1653.72
608.631	1694.75
607.603	1718.75
606.574	1691.69
605.546	1703.53
604.517	1744.52
603.487	1676.18
602.458	1734.16
601.429	1719.27
600.399	1755.37
599.369	1725.91
598.339	1740.16
597.309	1773.81
596.278	1737.09
595.248	1656.72
594.217	1734.02
593.186	1648.83
592.155	1617.01
591.123	1711.24
590.091	1645.49
589.06	1708.19
588.028	1666.69
586.996	1700.29
585.963	1678.18
584.931	1692.4
583.898	1699.35
582.865	1728.07
581.832	1657.58
580.798	1676.63
579.765	1804.52
578.731	1782.42
577.697	1748.24
576.663	1760
575.629	1742.75
574.594	1708.6
573.56	1756.61
572.525	1710.38
571.49	1734.22
570.455	1779.78
569.419	1716.67
568.384	1663.25
567.348	1720.87
566.312	1696.42
565.276	1715.4
564.239	1683.73
563.203	1808.82
562.166	1738.56
561.129	1769.58
560.092	1807.82
559.054	1771.33
558.017	1811.97
556.979	1770.68
555.941	1801.66
554.903	1825.41
553.865	1743.21
552.826	1752.51
551.787	1651.1
550.749	1744.64
549.709	1693.79
548.67	1691.07
547.631	1683.55
546.591	1738.54
545.551	1807.94
544.511	1685.01
543.471	1783.23
542.43	1761.28
541.39	1765.75
540.349	1734.2
539.308	1748.29
538.267	1690.34
537.225	1805.25
536.184	1802.52
535.142	1818.98
534.1	1770.66
533.058	1767.93
532.015	1729.23
530.973	1685.74
529.93	1750.16
528.887	1706.69
527.844	1665.63
526.801	1698.87
525.757	1667.41
524.713	1707.82
523.669	1702.71
522.625	1788.59
521.581	1797.83
520.537	1728.09
519.492	1801.95
518.447	1787.26
517.402	1856.3
516.357	1765.07
515.311	1767.13
514.265	1726.16
513.22	1723.45
512.174	1747.03
511.127	1763.43
510.081	1724.88
509.034	1712.61
507.987	1597.66
506.94	1688.1
505.893	1651.97
504.846	1637.35
503.798	1718.18
502.75	1694
501.702	1719.92
500.654	1812.62
499.606	1693.05
