3200.54	46.3077
3199.95	16.8392
3199.35	21.0458
3198.76	42.0852
3198.16	42.0788
3197.57	16.829
3196.98	33.6529
3196.38	29.4418
3195.79	42.0534
3195.19	46.2517
3194.6	54.6529
3194	12.6103
3193.41	63.0419
3192.81	42.0216
3192.22	50.4183
3191.62	33.6071
3191.03	71.4043
3190.43	54.5951
3189.84	46.1888
3189.24	37.7851
3188.65	46.1749
3188.05	41.9708
3187.45	41.9644
3186.86	50.3497
3186.26	58.7324
3185.67	67.1126
3185.07	33.5512
3184.47	67.0923
3183.88	54.5043
3183.28	41.92
3182.69	41.9137
3182.09	50.2888
3181.49	37.7109
3180.9	41.8946
3180.3	50.266
3179.7	58.6347
3179.1	33.5005
3178.51	50.2431
3177.91	58.6081
3177.31	46.0423
3176.72	4.18503
3176.12	54.3971
3175.52	50.2051
3174.92	37.6481
3174.33	46.0074
3173.73	58.546
3173.13	54.3559
3172.53	41.8059
3171.93	54.3395
3171.34	54.3312
3170.74	54.323
3170.14	33.4245
3169.54	37.5968
3168.94	20.884
3168.34	54.2901
3167.74	75.1595
3167.15	45.9239
3166.55	45.9169
3165.95	41.7363
3165.35	58.422
3164.75	58.4131
3164.15	50.0608
3163.55	16.6844
3162.95	70.898
3162.35	70.8872
3161.75	75.0457
3161.15	50.0229
3160.55	41.6794
3159.95	54.175
3159.35	50.0001
3158.75	70.8228
3158.15	45.8196
3157.55	33.3183
3156.95	66.6264
3156.35	74.9434
3155.75	41.6289
3155.15	37.4603
3154.55	70.7476
3153.95	62.4149
3153.35	74.8865
3152.75	66.5557
3152.15	37.4319
3151.54	79.0109
3150.94	49.8941
3150.34	49.8865
3149.74	24.9395
3149.14	70.6511
3148.54	37.3979
3147.94	58.1656
3147.33	24.9243
3146.73	62.3014
3146.13	16.6112
3145.53	70.5868
3144.93	70.5761
3144.32	58.1127
3143.72	74.7049
3143.12	53.9454
3142.52	78.8313
3141.91	37.3355
3141.31	45.6253
3140.71	49.7655
3140.1	41.465
3139.5	66.3338
3138.9	41.4524
3138.29	53.8799
3137.69	45.5837
3137.09	58.0069
3136.48	57.9981
3135.88	78.6997
3135.28	45.5561
3134.67	53.8308
3134.07	74.5236
3133.47	82.7915
3132.86	74.501
3132.26	41.3831
3131.65	91.0291
3131.05	62.0559
3130.45	62.0464
3129.84	82.716
3129.24	62.0276
3128.63	41.3454
3128.03	57.8748
3127.42	49.5994
3126.82	74.3879
3126.21	66.1125
3125.61	70.2338
3125	45.4385
3124.4	70.2125
3123.79	90.8494
3123.19	66.0622
3122.58	49.5391
3121.97	66.0422
3121.37	78.4131
3120.76	66.0221
3120.16	74.2635
3119.55	82.5025
3118.94	45.3695
3118.34	49.4864
3117.73	57.7254
3117.13	70.0845
3116.52	57.7078
3115.91	41.2136
3115.31	74.1732
3114.7	65.9217
3114.09	65.9117
3113.48	65.9017
3112.88	65.8916
3112.27	61.764
3111.66	65.8716
3111.06	65.8615
3110.45	65.8515
3109.84	82.3019
3109.23	49.3736
3108.63	78.163
3108.02	45.2454
3107.41	69.914
3106.8	53.4555
3106.19	61.67
3105.59	78.1035
3104.98	82.2017
3104.37	102.736
3103.76	65.7413
3103.15	73.9477
3102.54	57.5061
3101.93	73.9252
3101.33	86.2329
3100.72	98.5369
3100.11	90.3118
3099.5	69.7757
3098.89	86.1804
3098.28	77.9609
3097.67	32.8206
3097.06	94.3449
3096.45	65.6213
3095.84	102.518
3095.23	57.4011
3094.62	94.2875
3094.01	69.6801
3093.4	81.9641
3092.79	102.44
3092.18	102.424
3091.57	81.9266
3090.96	94.2013
3090.35	85.9967
3089.74	114.645
3089.13	85.9705
3088.52	81.8642
3087.91	102.315
3087.3	110.483
3086.69	98.1921
3086.08	65.4514
3085.46	81.8018
3084.85	106.326
3084.24	94.0434
3083.63	138.999
3083.02	118.54
3082.41	147.131
3081.79	130.763
3081.18	138.915
3080.57	159.319
3079.96	102.112
3079.35	122.516
3078.73	159.246
3078.12	106.148
3077.51	220.427
3076.9	146.929
3076.28	134.664
3075.67	150.964
3075.06	110.146
3074.45	118.287
3073.83	159.052
3073.22	118.251
3072.61	150.849
3071.99	122.291
3071.38	97.8183
3070.77	130.404
3070.15	101.863
3069.54	93.6996
3068.93	146.638
3068.31	138.47
3067.7	109.945
3067.08	113.999
3066.47	126.194
3065.86	130.245
3065.24	113.947
3064.63	93.5851
3064.01	134.254
3063.4	105.76
3062.78	97.6093
3062.17	81.3287
3061.55	105.711
3060.94	97.5646
3060.32	101.614
3059.71	93.4708
3059.09	69.0766
3058.48	81.2541
3057.86	117.8
3057.25	77.1678
3056.63	109.643
3056.02	105.566
3055.4	97.4305
3054.78	121.769
3054.17	56.8171
3053.55	77.0971
3052.94	117.657
3052.32	101.413
3051.7	93.2853
3051.09	101.382
3050.47	89.2021
3049.85	125.675
3049.24	121.602
3048.62	81.0556
3048	101.304
3047.39	101.289
3046.77	64.8147
3046.15	76.9557
3045.53	89.093
3044.92	97.1775
3044.3	85.0173
3043.68	89.0521
3043.06	113.322
3042.45	93.0714
3041.83	84.9653
3041.21	76.8616
3040.59	101.118
3039.97	97.0586
3039.35	93.0002
3038.74	117.243
3038.12	68.7183
3037.5	68.7078
3036.88	96.9843
3036.26	109.091
3035.64	92.9149
3035.02	105.018
3034.41	76.7323
3033.79	92.8722
3033.17	100.933
3032.55	133.211
3031.93	104.938
3031.31	129.134
3030.69	104.906
3030.07	88.7527
3029.45	96.8063
3028.83	116.956
3028.21	100.809
3027.59	120.952
3026.97	120.934
3026.35	104.793
3025.73	100.747
3025.11	84.6147
3024.49	108.774
3023.87	132.925
3023.25	124.85
3022.63	100.67
3022	112.733
3021.38	108.69
3020.76	64.3992
3020.14	104.633
3019.52	136.806
3018.9	120.693
3018.28	116.652
3017.66	124.678
3017.03	80.425
3016.41	120.619
3015.79	128.641
3015.17	116.563
3014.55	124.582
3013.92	80.3633
3013.3	108.474
3012.68	120.508
3012.06	132.539
3011.43	160.628
3010.81	80.3017
3010.19	96.3473
3009.57	128.443
3008.94	128.424
3008.32	108.341
3007.7	144.432
3007.07	124.353
3006.45	124.334
3005.83	116.295
3005.2	108.258
3004.58	100.223
3003.96	112.233
3003.33	132.254
3002.71	132.234
3002.08	144.233
3001.46	116.17
3000.84	88.1153
3000.21	132.153
2999.59	148.148
2998.96	136.115
2998.34	136.095
2997.71	160.087
2997.09	136.053
2996.46	124.029
2995.84	132.011
2995.21	155.989
2994.59	131.97
2993.96	139.947
2993.34	139.925
2992.71	199.863
2992.09	139.882
2991.46	147.853
2990.84	107.876
2990.21	131.828
2989.58	127.814
2988.96	115.813
2988.33	119.789
2987.71	115.778
2987.08	151.686
2986.45	163.636
2985.83	115.724
2985.2	127.676
2984.57	115.689
2983.95	147.58
2983.32	151.546
2982.69	143.548
2982.07	159.473
2981.44	131.545
2980.81	139.496
2980.18	135.489
2979.56	155.39
2978.93	163.334
2978.3	131.444
2977.67	139.389
2977.05	135.385
2976.42	167.215
2975.79	139.324
2975.16	175.124
2974.53	123.364
2973.91	198.943
2973.28	186.977
2972.65	123.307
2972.02	139.196
2971.39	163.033
2970.76	151.08
2970.13	151.057
2969.5	162.957
2968.88	170.88
2968.25	139.067
2967.62	210.555
2966.99	131.08
2966.36	166.804
2965.73	198.545
2965.1	166.752
2964.47	194.514
2963.84	186.546
2963.21	194.454
2962.58	222.199
2961.95	226.132
2961.32	230.064
2960.69	210.199
2960.06	178.443
2959.43	174.451
2958.8	170.46
2958.17	154.579
2957.53	166.444
2956.9	217.929
2956.27	186.202
2955.64	154.484
2955.01	205.947
2954.38	190.076
2953.75	186.087
2953.12	174.182
2952.48	186.03
2951.85	170.171
2951.22	189.929
2950.59	178.031
2949.96	170.092
2949.33	181.931
2948.69	170.04
2948.06	166.06
2947.43	177.894
2946.8	193.677
2946.16	158.079
2945.53	177.812
2944.9	197.538
2944.26	177.757
2943.63	157.982
2943	201.396
2942.37	153.985
2941.73	161.856
2941.1	173.673
2940.47	205.218
2939.83	173.619
2939.2	149.921
2938.56	157.787
2937.93	173.539
2937.3	145.908
2936.66	165.6
2936.03	130.094
2935.39	149.782
2934.76	177.346
2934.13	130.034
2933.49	126.074
2932.86	161.507
2932.22	177.237
2931.59	157.519
2930.95	141.745
2930.32	181.091
2929.68	165.319
2929.05	141.68
2928.41	161.333
2927.78	157.373
2927.14	184.885
2926.5	141.592
2925.87	192.693
2925.23	157.276
2924.6	184.771
2923.96	149.366
2923.32	133.623
2922.69	157.179
2922.05	133.582
2921.42	164.987
2920.78	161.034
2920.14	161.009
2919.51	157.058
2918.87	133.478
2918.23	113.832
2917.6	164.834
2916.96	168.733
2916.32	168.707
2915.68	164.758
2915.05	203.954
2914.41	152.942
2913.77	156.839
2913.13	192.098
2912.5	195.989
2911.86	168.524
2911.22	156.742
2910.58	160.636
2909.94	191.95
2909.31	121.419
2908.67	133.149
2908.03	191.861
2907.39	172.257
2906.75	238.773
2906.11	183.945
2905.47	223.047
2904.83	187.8
2904.2	183.859
2903.56	156.452
2902.92	175.981
2902.28	175.954
2901.64	207.202
2901	168.082
2900.36	128.973
2899.72	183.66
2899.08	156.282
2898.44	167.977
2897.8	179.669
2897.16	152.305
2896.52	179.613
2895.88	171.778
2895.24	163.944
2894.6	156.113
2893.96	210.72
2893.32	167.77
2892.67	206.754
2892.03	159.917
2891.39	198.89
2890.75	179.363
2890.11	175.437
2889.47	187.104
2888.83	190.972
2888.19	163.665
2887.54	202.602
2886.9	206.466
2886.26	194.749
2885.62	147.986
2884.98	186.901
2884.33	167.406
2883.69	167.38
2883.05	186.814
2882.41	175.111
2881.77	198.428
2881.12	171.167
2880.48	194.477
2879.84	182.78
2879.19	174.975
2878.55	128.295
2877.91	178.808
2877.26	178.781
2876.62	170.981
2875.98	147.642
2875.33	205.89
2874.69	201.974
2874.05	170.875
2873.4	170.848
2872.76	174.704
2872.11	178.559
2871.47	159.126
2870.83	194.026
2870.18	174.596
2869.54	151.293
2868.89	143.512
2868.25	186.149
2867.6	174.488
2866.96	186.091
2866.31	189.939
2865.67	158.904
2865.02	186.005
2864.38	154.98
2863.73	189.821
2863.09	189.791
2862.44	201.38
2861.8	220.709
2861.15	193.574
2860.5	193.544
2859.86	150.941
2859.21	166.396
2858.57	185.716
2857.92	197.293
2857.27	224.337
2856.63	170.16
2855.98	143.067
2855.33	201.036
2854.69	181.678
2854.04	216.433
2853.39	200.943
2852.75	181.593
2852.1	204.743
2851.45	200.849
2850.81	223.989
2850.16	193.064
2849.51	200.755
2848.86	181.424
2848.21	185.255
2847.57	231.533
2846.92	200.631
2846.27	216.03
2845.62	204.425
2844.97	177.398
2844.33	181.226
2843.68	192.764
2843.03	165.751
2842.38	192.704
2841.73	184.967
2841.08	231.173
2840.43	192.614
2839.78	196.436
2839.14	227.214
2838.49	204.076
2837.84	161.695
2837.19	196.314
2836.54	246.316
2835.89	192.405
2835.24	196.222
2834.59	207.733
2833.94	230.778
2833.29	192.285
2832.64	203.79
2831.99	196.07
2831.34	211.415
2830.69	219.069
2830.04	199.821
2829.39	188.264
2828.74	207.442
2828.08	218.932
2827.43	238.1
2826.78	218.864
2826.13	222.669
2825.48	245.666
2824.83	145.841
2824.18	226.403
2823.53	222.531
2822.87	226.332
2822.22	214.79
2821.57	214.757
2820.92	187.883
2820.27	226.191
2819.61	214.656
2818.96	241.451
2818.31	199.262
2817.66	206.893
2817	237.507
2816.35	214.489
2815.7	218.285
2815.05	222.08
2814.39	218.217
2813.74	202.872
2813.09	206.668
2812.43	221.942
2811.78	244.863
2811.13	210.397
2810.47	240.962
2809.82	198.858
2809.16	233.24
2808.51	225.558
2807.86	259.924
2807.2	221.665
2806.55	240.737
2805.89	206.314
2805.24	221.562
2804.58	221.527
2803.93	229.13
2803.28	255.822
2802.62	244.329
2801.97	213.755
2801.31	221.354
2800.66	270.926
2800	263.253
2799.34	289.915
2798.69	228.845
2798.03	213.555
2797.38	244.025
2796.72	263.048
2796.07	243.949
2795.41	240.099
2794.75	293.409
2794.1	217.165
2793.44	255.224
2792.79	274.228
2792.13	243.72
2791.47	236.067
2790.82	213.189
2790.16	262.638
2789.5	251.18
2788.84	251.14
2788.19	220.665
2787.53	251.062
2786.87	220.596
2786.22	220.561
2785.56	239.538
2784.9	235.699
2784.24	243.264
2783.59	269.829
2782.93	201.39
2782.27	231.752
2781.61	258.307
2780.95	239.276
2780.29	277.213
2779.64	261.982
2778.98	261.941
2778.32	296.061
2777.66	246.679
2777	208.696
2776.34	307.304
2775.68	246.564
2775.02	223.769
2774.36	250.279
2773.71	265.406
2773.05	272.946
2772.39	257.742
2771.73	208.435
2771.07	238.716
2770.41	208.37
2769.75	268.945
2769.09	291.627
2768.43	287.794
2767.77	223.384
2767.11	268.776
2766.45	249.809
2765.79	276.261
2765.12	291.353
2764.46	291.308
2763.8	261.001
2763.14	306.345
2762.48	268.482
2761.82	272.221
2761.16	264.618
2760.5	317.492
2759.83	287.21
2759.17	204.038
2758.51	298.453
2757.85	241.747
2757.19	287.03
2756.53	256.776
2755.86	256.736
2755.2	294.445
2754.54	271.753
2753.88	256.615
2753.21	298.08
2752.55	271.625
2751.89	279.127
2751.23	297.94
2750.56	267.727
2749.9	256.374
2749.24	331.727
2748.57	331.675
2747.91	278.864
2747.25	237.374
2746.58	271.243
2745.92	335.233
2745.25	282.456
2744.59	293.708
2743.93	256.013
2743.26	248.444
2742.6	270.988
2741.93	293.524
2741.27	312.291
2740.61	323.528
2739.94	304.67
2739.28	267.015
2738.61	304.575
2737.95	255.652
2737.28	300.72
2736.62	289.398
2735.95	270.563
2735.29	278.035
2734.62	308.045
2733.95	262.924
2733.29	240.35
2732.62	285.371
2731.96	259.046
2731.29	304.05
2730.62	273.977
2729.96	247.666
2729.29	311.411
2728.63	330.118
2727.96	303.811
2727.29	315.014
2726.63	281.219
2725.96	284.923
2725.29	296.124
2724.62	277.338
2723.96	277.295
2723.29	310.971
2722.62	284.7
2721.96	262.182
2721.29	292.1
2720.62	299.543
2719.95	303.24
2719.28	273.247
2718.62	310.63
2717.95	291.871
2717.28	291.825
2716.61	280.557
2715.94	332.876
2715.27	265.511
2714.61	321.554
2713.94	246.735
2713.27	321.453
2712.6	284.03
2711.93	276.512
2711.26	291.413
2710.59	291.367
2709.92	280.117
2709.25	287.541
2708.58	294.964
2707.91	298.65
2707.24	358.324
2706.57	283.629
2705.9	257.465
2705.23	328.309
2704.56	309.606
2703.89	268.532
2703.22	335.612
2702.55	305.732
2701.88	316.867
2701.21	320.545
2700.54	320.495
2699.87	298.088
2699.2	309.217
2698.53	320.343
2697.86	309.12
2697.19	312.795
2696.51	260.622
2695.84	297.806
2695.17	297.76
2694.5	357.255
2693.83	297.666
2693.15	316.22
2692.48	297.572
2691.81	342.154
2691.14	338.382
2690.47	297.432
2689.79	341.993
2689.12	334.505
2688.45	308.44
2687.77	338.116
2687.1	330.633
2686.43	304.58
2685.76	315.673
2685.08	315.624
2684.41	319.287
2683.74	345.221
2683.06	315.475
2682.39	337.69
2681.71	348.768
2681.04	311.616
2680.37	318.985
2679.69	318.935
2679.02	322.593
2678.34	348.493
2677.67	352.145
2676.99	333.559
2676.32	337.212
2675.65	363.094
2674.97	348.219
2674.3	296.31
2673.62	344.406
2672.95	340.649
2672.27	366.51
2671.59	325.735
2670.92	370.096
2670.24	333.034
2669.57	366.279
2668.89	314.433
2668.22	388.355
2667.54	303.239
2666.86	343.864
2666.19	321.628
2665.51	343.755
2664.83	376.962
2664.16	362.122
2663.48	413.789
2662.8	339.844
2662.13	380.418
2661.45	343.43
2660.77	365.529
2660.1	369.163
2659.42	387.56
2658.74	317.38
2658.06	372.678
2657.39	339.416
2656.71	394.693
2656.03	361.438
2655.35	342.943
2654.68	353.95
2654	346.521
2653.32	368.581
2652.64	372.208
2651.96	346.357
2651.28	383.143
2650.6	372.032
2649.93	408.802
2649.25	386.644
2648.57	371.856
2647.89	327.623
2647.21	368.058
2646.53	342.24
2645.85	378.98
2645.17	327.416
2644.49	393.573
2643.81	353.057
2643.13	378.74
2642.45	378.681
2641.77	422.732
2641.09	415.314
2640.41	374.826
2639.73	334.351
2639.05	374.708
2638.37	367.303
2637.69	414.986
2637.01	359.843
2636.33	422.198
2635.65	374.412
2634.96	422.064
2634.28	414.659
2633.6	440.276
2632.92	425.533
2632.24	396.123
2631.56	407.062
2630.88	359.331
2630.19	447.26
2629.51	388.542
2628.83	432.459
2628.15	403.076
2627.46	392.021
2626.78	424.928
2626.1	443.173
2625.42	377.187
2624.73	406.419
2624.05	406.355
2623.37	457.534
2622.69	380.608
2622	395.184
2621.32	402.439
2620.64	442.613
2619.95	427.913
2619.27	420.532
2618.58	416.809
2617.9	405.776
2617.22	420.332
2616.53	391.03
2615.85	449.43
2615.16	368.986
2614.48	423.719
2613.79	441.913
2613.11	383.417
2612.43	416.216
2611.74	449.004
2611.06	379.585
2610.37	412.369
2609.69	415.952
2609	415.886
2608.31	463.238
2607.63	390.226
2606.94	419.335
2606.26	404.685
2605.57	411.912
2604.89	404.557
2604.2	433.646
2603.51	480.943
2602.83	488.152
2602.14	466.221
2601.45	447.938
2600.77	422.379
2600.08	425.952
2599.39	418.605
2598.71	451.294
2598.02	469.416
2597.33	407.491
2596.65	443.804
2595.96	447.37
2595.27	414.57
2594.58	458.137
2593.9	458.064
2593.21	461.626
2592.52	407.039
2591.83	428.776
2591.14	479.572
2590.46	403.213
2589.77	472.156
2589.08	446.661
2588.39	490.16
2587.7	475.562
2587.01	479.116
2586.32	460.894
2585.64	457.193
2584.95	471.632
2584.26	438.911
2583.57	485.989
2582.88	413.388
2582.19	460.456
2581.5	402.382
2580.81	416.816
2580.12	413.126
2579.43	427.553
2578.74	441.977
2578.05	434.662
2577.36	438.215
2576.67	430.903
2575.98	467.039
2575.29	369.228
2574.6	459.652
2573.91	434.248
2573.22	448.652
2572.52	488.374
2571.83	459.36
2571.14	459.287
2570.45	444.751
2569.76	455.526
2569.07	469.913
2568.38	477.066
2567.68	462.536
2566.99	469.689
2566.3	447.939
2565.61	483.987
2564.92	483.91
2564.22	491.054
2563.53	480.146
2562.84	462.022
2562.14	447.512
2561.45	476.309
2560.76	458.194
2560.07	526.659
2559.37	479.688
2558.68	468.793
2557.99	457.902
2557.29	472.249
2556.6	490.196
2555.91	457.684
2555.21	443.198
2554.52	511.578
2553.82	497.089
2553.13	450.19
2552.44	460.921
2551.74	460.848
2551.05	413.977
2550.35	417.51
2549.66	457.029
2548.96	482.143
2548.27	453.286
2547.57	442.423
2546.88	514.28
2546.18	496.219
2545.49	481.759
2544.79	452.925
2544.1	488.794
2543.4	531.838
2542.7	441.93
2542.01	506.522
2541.31	463.34
2540.62	531.5
2539.92	499.099
2539.22	502.61
2538.53	531.246
2537.83	448.616
2537.13	452.133
2536.44	480.763
2535.74	505.797
2535.04	494.956
2534.35	455.431
2533.65	487.628
2532.95	512.645
2532.25	487.472
2531.56	501.73
2530.86	472.984
2530.16	505.153
2529.46	497.908
2528.76	512.155
2528.07	487.006
2527.37	511.991
2526.67	490.431
2525.97	533.303
2525.27	493.853
2524.57	504.509
2523.88	540.203
2523.18	507.925
2522.48	482.809
2521.78	568.551
2521.08	514.832
2520.38	525.474
2519.68	500.372
2518.98	518.159
2518.28	453.764
2517.58	500.132
2516.88	628.637
2516.18	489.259
2515.48	514.176
2514.78	499.813
2514.08	528.29
2513.38	521.067
2512.68	517.416
2511.98	542.308
2511.28	495.847
2510.58	506.468
2509.88	477.858
2509.17	506.306
2508.47	573.96
2507.77	513.274
2507.07	520.319
2506.37	523.799
2505.67	591.407
2504.97	552.129
2504.26	530.672
2503.56	605.368
2502.86	530.502
2502.16	551.777
2501.45	555.248
2500.75	558.718
2500.05	530.163
2499.35	490.945
2498.64	544.222
2497.94	526.353
2497.24	561.827
2496.53	568.848
2495.83	497.663
2495.13	501.137
2494.42	508.164
2493.72	586.25
2493.02	532.869
2492.31	525.68
2491.61	554.007
2490.9	529.063
2490.2	500.577
2489.5	582.138
2488.79	500.417
2488.09	581.952
2487.38	553.476
2486.68	556.934
2485.97	602.954
2485.27	588.672
2484.56	531.848
2483.86	545.943
2483.15	524.589
2482.45	602.472
2481.74	566.941
2481.04	563.308
2480.33	584.471
2479.62	548.961
2478.92	573.661
2478.21	545.245
2477.51	552.237
2476.8	587.543
2476.09	566.216
2475.39	576.74
2474.68	544.808
2473.97	597.778
2473.27	541.097
2472.56	583.443
2471.85	516.176
2471.14	611.535
2470.44	537.217
2469.73	590.137
2469.02	597.109
2468.31	604.078
2467.61	618.11
2466.9	586.227
2466.19	543.762
2465.48	603.691
2464.77	593.005
2464.07	568.206
2463.36	596.344
2462.65	589.192
2461.94	620.846
2461.23	546.68
2460.52	613.594
2459.81	602.918
2459.1	609.872
2458.4	609.774
2457.69	599.104
2456.98	549.678
2456.27	588.343
2455.56	605.861
2454.85	563.501
2454.14	559.889
2453.43	623.173
2452.72	605.472
2452.01	640.572
2451.3	619.354
2450.59	629.811
2449.88	594.53
2449.16	612.022
2448.45	618.957
2447.74	632.923
2447.03	611.727
2446.32	660.841
2445.61	636.133
2444.9	593.863
2444.19	586.741
2443.47	593.672
2442.76	621.675
2442.05	639.134
2441.34	617.965
2440.63	638.929
2439.91	628.297
2439.2	617.667
2438.49	589.497
2437.78	635.011
2437.06	606.846
2436.35	676.893
2435.64	596.132
2434.93	645.121
2434.21	659.04
2433.5	588.835
2432.79	609.766
2432.07	655.218
2431.36	606.067
2430.64	648.002
2429.93	588.362
2429.22	654.798
2428.5	644.189
2427.79	612.582
2427.07	629.983
2426.36	598.387
2425.65	647.274
2424.93	671.658
2424.22	605.094
2423.5	653.956
2422.79	615.389
2422.07	625.778
2421.36	608.201
2420.64	650.041
2419.92	677.891
2419.21	597.426
2418.49	684.659
2417.78	656.608
2417.06	659.995
2416.35	652.906
2415.63	614.401
2414.91	589.869
2414.2	659.57
2413.48	617.593
2412.76	673.313
2412.05	613.907
2411.33	694.021
2410.61	669.501
2409.9	644.988
2409.18	700.658
2408.46	738.884
2407.74	658.616
2407.03	745.614
2406.31	665.371
2405.59	710.544
2404.87	710.429
2404.16	692.905
2403.44	696.275
2402.72	636.989
2402	640.367
2401.28	675.061
2400.56	636.682
2399.85	667.886
2399.13	678.213
2398.41	667.671
2397.69	733.625
2396.97	660.503
2396.25	649.97
2395.53	667.241
2394.81	708.829
2394.09	705.241
2393.37	653.024
2392.65	687.649
2391.93	725.735
2391.21	683.956
2390.49	708.144
2389.77	690.677
2389.05	680.155
2388.33	725.15
2387.61	666.059
2386.89	641.672
2386.17	686.652
2385.45	700.411
2384.73	703.765
2384	686.32
2383.28	606.498
2382.56	724.216
2381.84	679.059
2381.12	637.381
2380.4	755.036
2379.67	699.508
2378.95	720.169
2378.23	754.671
2377.51	664.557
2376.79	719.821
2376.06	730.085
2375.34	719.589
2374.62	785.194
2373.9	708.981
2373.17	736.53
2372.45	705.295
2371.73	715.552
2371	701.611
2370.28	708.409
2369.56	680.654
2368.83	718.544
2368.11	752.968
2367.38	766.66
2366.66	697.479
2365.94	693.914
2365.21	724.868
2364.49	717.848
2363.76	783.295
2363.04	759.018
2362.31	686.455
2361.59	724.283
2360.86	717.269
2360.14	696.466
2359.41	689.459
2358.69	747.942
2357.96	672.005
2357.24	713.244
2356.51	764.805
2355.79	754.348
2355.06	726.674
2354.33	695.566
2353.61	750.539
2352.88	719.437
2352.15	722.763
2351.43	829.322
2350.7	774.138
2349.98	763.693
2349.25	808.283
2348.52	780.641
2347.79	735.816
2347.07	770.075
2346.34	711.517
2345.61	738.895
2344.88	776.574
2344.16	748.963
2343.43	820.978
2342.7	755.59
2341.97	779.505
2341.25	817.147
2340.52	782.686
2339.79	796.289
2339.06	803.023
2338.33	734.27
2337.6	809.624
2336.87	768.333
2336.14	805.933
2335.42	788.658
2334.69	740.533
2333.96	726.701
2333.23	815.693
2332.5	818.988
2331.77	791.446
2331.04	815.297
2330.31	818.59
2329.58	749.967
2328.85	773.814
2328.12	801.075
2327.39	742.757
2326.66	793.971
2325.93	824.638
2325.2	827.926
2324.47	834.633
2323.73	796.877
2323	810.426
2322.27	786.362
2321.54	844.348
2320.81	823.704
2320.08	813.318
2319.35	833.687
2318.61	857.465
2317.88	840.248
2317.15	819.621
2316.42	788.758
2315.69	822.77
2314.95	853.357
2314.22	877.109
2313.49	788.246
2312.76	812.001
2312.02	784.58
2311.29	815.148
2310.56	811.606
2309.82	852.389
2309.09	862.478
2308.36	783.944
2307.62	763.369
2306.89	831.392
2306.16	858.512
2305.42	827.716
2304.69	817.365
2303.95	841.068
2303.22	851.145
2302.48	868.027
2301.75	908.728
2301.02	837.119
2300.28	853.995
2299.55	874.268
2298.81	860.521
2298.08	853.58
2297.34	941.845
2296.6	894.098
2295.87	904.15
2295.13	778.258
2294.4	866.479
2293.66	924.094
2292.93	852.61
2292.19	896.623
2291.45	825.167
2290.72	845.404
2289.98	899.581
2289.24	831.553
2288.51	841.599
2287.77	895.75
2287.03	858.287
2286.3	878.499
2285.56	841.052
2284.82	895.168
2284.08	891.632
2283.35	864.37
2282.61	887.953
2281.87	857.312
2281.13	860.56
2280.4	918.008
2279.66	911.084
2278.92	944.8
2278.18	907.402
2277.44	903.87
2276.7	924.031
2275.97	910.344
2275.23	923.731
2274.49	896.516
2273.75	852.397
2273.01	899.606
2272.27	953.563
2271.53	953.407
2270.79	889.026
2270.05	899.021
2269.31	946.184
2268.57	905.486
2267.83	928.985
2267.09	888.303
2266.35	840.88
2265.61	881.261
2264.87	877.742
2264.13	948.482
2263.39	917.954
2262.65	931.302
2261.91	836.686
2261.17	947.864
2260.42	998.3
2259.68	934.067
2258.94	856.37
2258.2	943.876
2257.46	943.722
2256.72	913.24
2255.97	906.352
2255.23	946.63
2254.49	936.371
2253.75	929.483
2253	925.965
2252.26	983.046
2251.52	999.716
2250.78	935.609
2250.03	975.836
2249.29	915.117
2248.55	955.335
2247.8	945.089
2247.06	914.67
2246.32	1018.75
2245.57	917.734
2244.83	1015.06
2244.09	934.237
2243.34	940.805
2242.6	1004.48
2241.85	1021.11
2241.11	957.137
2240.36	943.549
2239.62	997.112
2238.88	970.096
2238.13	929.663
2237.39	929.511
2236.64	956.201
2235.89	1063.39
2235.15	979.367
2234.4	1029.51
2233.66	1042.75
2232.91	995.649
2232.17	1025.65
2231.42	991.973
2230.67	998.512
2229.93	984.949
2229.18	964.69
2228.44	991.325
2227.69	981.118
2226.94	1054.61
2226.2	964.061
2225.45	967.25
2224.7	1013.94
2223.95	1023.81
2223.21	1040.37
2222.46	1003.41
2221.71	1019.97
2220.96	989.708
2220.22	1009.6
2219.47	1042.86
2218.72	1039.35
2217.97	1005.77
2217.22	978.877
2216.48	1038.84
2215.73	1011.96
2214.98	1008.45
2214.23	1048.35
2213.48	1081.56
2212.73	987.931
2211.98	1074.53
2211.23	1017.64
2210.48	1004.13
2209.73	997.291
2208.98	1027.14
2208.23	1090.33
2207.48	1013.47
2206.73	916.641
2205.98	993.144
2205.23	1039.63
2204.48	999.482
2203.73	1062.61
2202.98	1022.47
2202.23	1048.94
2201.48	1108.7
2200.73	1145.14
2199.98	1038.44
2199.23	1081.53
2198.48	1068.05
2197.72	1044.59
2196.97	1041.09
2196.22	1034.27
2195.47	984.221
2194.72	1087.12
2193.97	1067
2193.21	1096.74
2192.46	1020.13
2191.71	1066.47
2190.96	1062.98
2190.2	1086.05
2189.45	996.216
2188.7	1082.38
2187.94	1082.2
2187.19	1048.83
2186.44	1124.99
2185.68	1118.17
2184.93	1127.94
2184.18	1061.41
2183.42	1120.93
2182.67	1074.33
2181.91	1017.79
2181.16	1117.07
2180.41	1126.83
2179.65	1129.96
2178.9	1083.39
2178.14	1093.15
2177.39	1049.91
2176.63	1053.05
2175.88	1115.79
2175.12	1092.43
2174.37	1006.2
2173.61	1072.22
2172.86	1111.75
2172.1	1091.72
2171.34	1094.84
2170.59	1114.51
2169.83	1180.46
2169.08	1084.39
2168.32	1120.57
2167.56	1110.47
2166.81	1116.9
2166.05	1139.84
2165.29	1185.9
2164.54	1119.65
2163.78	1135.98
2163.02	1099.47
2162.27	1109.2
2161.51	1181.63
2160.75	1194.64
2159.99	1098.75
2159.23	1151.36
2158.48	1184.15
2157.72	1160.87
2156.96	1206.85
2156.2	1107.74
2155.44	1071.3
2154.69	1137.04
2153.93	1153.33
2153.17	1113.6
2152.41	1146.36
2151.65	1156.05
2150.89	1136.11
2150.13	1168.85
2149.37	1158.78
2148.61	1099.34
2147.85	1161.69
2147.09	1187.82
2146.33	1174.47
2145.57	1170.98
2144.81	1154.35
2144.05	1144.29
2143.29	1150.68
2142.53	1265.54
2141.77	1206.17
2141.01	1222.41
2140.25	1182.78
2139.49	1130.02
2138.73	1169.25
2137.97	1169.06
2137.2	1182
2136.44	1165.39
2135.68	1158.64
2134.92	1148.6
2134.16	1230.44
2133.4	1200.71
2132.63	1246.44
2131.87	1170.8
2131.11	1173.89
2130.35	1203.2
2129.58	1193.17
2128.82	1186.42
2128.06	1150.18
2127.29	1208.96
2126.53	1225.14
2125.77	1231.49
2125	1178.89
2124.24	1159.06
2123.48	1221.06
2122.71	1197.95
2121.95	1214.12
2121.19	1187.74
2120.42	1210.45
2119.66	1200.43
2118.89	1219.86
2118.13	1196.77
2117.36	1248.88
2116.6	1320.59
2115.83	1232.13
2115.07	1238.46
2114.3	1248.06
2113.54	1287.05
2112.77	1286.84
2112.01	1221.32
2111.24	1188.47
2110.48	1240.5
2109.71	1223.98
2108.94	1262.94
2108.18	1204
2107.41	1321.24
2106.64	1259.05
2105.88	1265.36
2105.11	1258.63
2104.34	1183.44
2103.58	1248.44
2102.81	1202.61
2102.04	1277.36
2101.28	1335.79
2100.51	1283.45
2099.74	1182.27
2098.97	1289.54
2098.21	1214.44
2097.44	1308.65
2096.67	1357.25
2095.9	1282.18
2095.13	1268.95
2094.36	1294.77
2093.6	1346.6
2092.83	1242.31
2092.06	1248.61
2091.29	1206.14
2090.52	1248.2
2089.75	1299.99
2088.98	1277.03
2088.21	1309.31
2087.44	1292.85
2086.67	1354.34
2085.9	1292.42
2085.13	1314.94
2084.36	1249.79
2083.59	1369.68
2082.82	1349.98
2082.05	1336.78
2081.28	1356.02
2080.51	1336.34
2079.74	1280.99
2078.97	1335.9
2078.2	1312.98
2077.43	1325.73
2076.65	1296.35
2075.88	1318.81
2075.11	1357.47
2074.34	1273.03
2073.57	1321.4
2072.8	1350.32
2072.02	1353.34
2071.25	1366.06
2070.48	1265.5
2069.71	1375.32
2068.93	1310.38
2068.16	1365.16
2067.39	1397.28
2066.61	1406.75
2065.84	1367.72
2065.07	1480.64
2064.29	1480.4
2063.52	1308.87
2062.75	1305.42
2061.97	1327.82
2061.2	1408.35
2060.43	1388.74
2059.65	1404.66
2058.88	1420.57
2058.1	1397.74
2057.33	1332.96
2056.55	1313.37
2055.78	1422.85
2055	1354.88
2054.23	1364.33
2053.45	1370.55
2052.68	1354.2
2051.9	1370.1
2051.13	1363.42
2050.35	1446.99
2049.57	1446.75
2048.8	1417.51
2048.02	1517.13
2047.25	1458.91
2046.47	1378.17
2045.69	1368.28
2044.92	1400.25
2044.14	1332.43
2043.36	1345.08
2042.59	1405.99
2041.81	1341.42
2041.03	1479.5
2040.25	1376.35
2039.48	1388.98
2038.7	1401.61
2037.92	1366.02
2037.14	1433.28
2036.37	1500.52
2035.59	1416.74
2034.81	1506.44
2034.03	1425.91
2033.25	1422.46
2032.47	1335.54
2031.69	1454.09
2030.92	1550.13
2030.14	1424.72
2029.36	1389.2
2028.58	1446.71
2027.8	1526.65
2027.02	1449.43
2026.24	1445.99
2025.46	1423.31
2024.68	1371.79
2023.9	1410.02
2023.12	1486.68
2022.34	1502.45
2021.56	1434.94
2020.78	1527.57
2020	1466.48
2019.21	1447.03
2018.43	1459.59
2017.65	1504.16
2016.87	1462.31
2016.09	1542.05
2015.31	1423.44
2014.53	1448.79
2013.74	1442.15
2012.96	1499.46
2012.18	1406.51
2011.4	1521.34
2010.62	1524.28
2009.83	1485.69
2009.05	1475.86
2008.27	1558.65
2007.49	1542.43
2006.7	1593.26
2005.92	1490.84
2005.14	1522.51
2004.35	1515.87
2003.57	1467.76
2002.79	1470.71
2002	1607.62
2001.22	1556.33
2000.43	1568.82
1999.65	1530.3
1998.87	1533.24
1998.08	1529.79
1997.3	1555.03
1996.51	1516.54
1995.73	1548.14
1994.94	1519.22
1994.16	1604.95
1993.37	1537.82
1992.59	1582.13
1991.8	1613.7
1991.02	1463.86
1990.23	1485.89
1989.44	1542.9
1988.66	1593.54
1987.87	1609.18
1987.09	1545.31
1986.3	1592.74
1985.51	1608.37
1984.73	1576.32
1983.94	1576.06
1983.15	1512.26
1982.37	1597.77
1981.58	1699.14
1980.79	1571.84
1980	1600.15
1979.22	1552.27
1978.43	1523.45
1977.64	1627.91
1976.85	1545.15
1976.06	1601.99
1975.28	1703.22
1974.49	1639.51
1973.7	1588.51
1972.91	1600.92
1972.12	1572.13
1971.33	1641.59
1970.54	1571.61
1969.76	1574.51
1968.97	1621.76
1968.18	1586.66
1967.39	1580.06
1966.6	1605.12
1965.81	1623.85
1965.02	1560.28
1964.23	1588.5
1963.44	1670.49
1962.65	1587.97
1961.86	1638.31
1961.07	1628.55
1960.28	1634.6
1959.48	1621.68
1958.69	1615.09
1957.9	1674.87
1957.11	1693.54
1956.32	1598.49
1955.53	1699.3
1954.74	1569.53
1953.94	1667.15
1953.15	1676.35
1952.36	1590.84
1951.57	1625.29
1950.78	1599.78
1949.98	1646.84
1949.19	1652.87
1948.4	1592.67
1947.61	1661.78
1946.81	1664.65
1946.02	1673.83
1945.23	1692.46
1944.43	1635.46
1943.64	1704.5
1942.85	1647.51
1942.05	1622.04
1941.26	1681.6
1940.46	1675.03
1939.67	1662.15
1938.88	1743.71
1938.08	1749.71
1937.29	1655.03
1936.49	1701.94
1935.7	1635.6
1934.9	1682.5
1934.11	1770.26
1933.31	1691.37
1932.52	1753.96
1931.72	1715.95
1930.93	1677.96
1930.13	1712.23
1929.33	1799.9
1928.54	1686.54
1927.74	1739.64
1926.95	1692.25
1926.15	1761.03
1925.35	1650.89
1924.56	1703.96
1923.76	1750.73
1922.96	1703.39
1922.17	1781.51
1921.37	1677.73
1920.57	1737.02
1919.77	1768.08
1918.98	1811.67
1918.18	1748.69
1917.38	1701.39
1916.58	1766.9
1915.78	1735.28
1914.99	1775.7
1914.19	1737.83
1913.39	1803.28
1912.59	1718.47
1911.79	1777.64
1910.99	1764.83
1910.19	1755.15
1909.39	1789.26
1908.59	1757.69
1907.8	1776.16
1907	1819.63
1906.2	1806.82
1905.4	1869.03
1904.6	1740.59
1903.8	1805.91
1903	1827.48
1902.2	1802.19
1901.39	1739.43
1900.59	1745.38
1899.79	1776.31
1898.99	1832.19
1898.19	1694.57
1897.39	1806.62
1896.59	1912.38
1895.79	1759.22
1894.99	1780.76
1894.18	1783.58
1893.38	1833.16
1892.58	1820.39
1891.78	1907.34
1890.98	1813.54
1890.17	1791.43
1889.37	1806.7
1888.57	1821.97
1887.76	1806.1
1886.96	1808.91
1886.16	1743.24
1885.36	1839.43
1884.55	1851.57
1883.75	1785.92
1882.94	1801.17
1882.14	1825.75
1881.34	1862.76
1880.53	1784.72
1879.73	1815.51
1878.92	1846.29
1878.12	1883.27
1877.32	1820.81
1876.51	1814.29
1875.71	1897.85
1874.9	1841.63
1874.1	1856.85
1873.29	1797.55
1872.49	1846.91
1871.68	1793.84
1870.87	1849.39
1870.07	1836.67
1869.26	1901.51
1868.46	1919.8
1867.65	1860.56
1866.84	1885.05
1866.04	1887.83
1865.23	1881.32
1864.42	1924.38
1863.62	1917.86
1862.81	1895.86
1862	1901.73
1861.2	1932.38
1860.39	1882.52
1859.58	1941.02
1858.77	1878.79
1857.96	1878.47
1857.16	1878.16
1856.35	1961.37
1855.54	1914.64
1854.73	1960.71
1853.92	1895.45
1853.12	1950.78
1852.31	2012.27
1851.5	1841.95
1850.69	1943.61
1849.88	1838.24
1849.07	1964.58
1848.26	1964.25
1847.45	1951.57
1846.64	1911.1
1845.83	1984.87
1845.02	1919.72
1844.21	1981.11
1843.4	1986.95
1842.59	1943.43
1841.78	1986.28
1840.97	2059.96
1840.16	1970.2
1839.35	1923.63
1838.54	2006.52
1837.72	2058.57
1836.91	2012.01
1836.1	1946.98
1835.29	2060.61
1834.48	1955.56
1833.67	1979.86
1832.85	1930.27
1832.04	1979.2
1831.23	2009.64
1830.42	1978.53
1829.6	1993.58
1828.79	1996.32
1827.98	1999.06
1827.17	2020.25
1826.35	2013.76
1825.54	2016.49
1824.73	1973.13
1823.91	2040.4
1823.1	2064.63
1822.29	1987.49
1821.47	2036.29
1820.66	2085.08
1819.84	2106.22
1819.03	2072.1
1818.21	1952.05
1817.4	2043.78
1816.58	2049.58
1815.77	2036.96
1814.95	1999.81
1814.14	2085.34
1813.32	2069.66
1812.51	1974.27
1811.69	2019.92
1810.88	1952.16
1810.06	2166.31
1809.25	2025.02
1808.43	2122.7
1807.61	2039.65
1806.8	2072.99
1805.98	2011.41
1805.16	2109.02
1804.35	2105.61
1803.53	2108.31
1802.71	1988.64
1801.89	2043.36
1801.08	2055.25
1800.26	2076.31
1799.44	2036.21
1798.62	2158.14
1797.81	2099.71
1796.99	2081.02
1796.17	2044
1795.35	2101.7
1794.53	2113.56
1793.71	2210.93
1792.9	2091.48
1792.08	2078.91
1791.26	2124.34
1790.44	2081.26
1789.62	2236.52
1788.8	2187.33
1787.98	2098.51
1787.16	2110.35
1786.34	2131.34
1785.52	2021.23
1784.7	2203.77
1783.88	2224.73
1783.06	2029.34
1782.24	2089.93
1781.42	2141.36
1780.6	2177.55
1779.78	2195.45
1778.95	2106.79
1778.13	2097.3
1777.31	2154.77
1776.49	2193.96
1775.67	2126.66
1774.85	2199.3
1774.02	2159.39
1773.2	2238.09
1772.38	2079.61
1771.56	2164.38
1770.74	2182.25
1769.91	2279.12
1769.09	2236.2
1768.27	2199.37
1767.44	2120.03
1766.62	2174.33
1765.8	2237.72
1764.97	2240.38
1764.15	2200.54
1763.33	2300.31
1762.5	2257.45
1761.68	2223.69
1760.85	2308.25
1760.03	2225.97
1759.21	2407.53
1758.38	2255.54
1757.56	2358.21
1756.73	2336.6
1755.91	2314.99
1755.08	2238.86
1754.26	2344.5
1753.43	2313.82
1752.6	2407.29
1751.78	2394.77
1750.95	2315.67
1750.13	2421.2
1749.3	2390.53
1748.47	2499.04
1747.65	2540.97
1746.82	2513.32
1745.99	2521.96
1745.17	2609.22
1744.34	2663.19
1743.51	2717.14
1742.69	2807.33
1741.86	2828.01
1741.03	3051.07
1740.2	2996.19
1739.38	3131.57
1738.55	3073.67
1737.72	3320.7
1736.89	3368.43
1736.06	3503.65
1735.23	3478.92
1734.4	3577.88
1733.58	3806.51
1732.75	3673.17
1731.92	3802.21
1731.09	3834.72
1730.26	4204.82
1729.43	4360.82
1728.6	4456.5
1727.77	4410.55
1726.94	4560.41
1726.11	4665.05
1725.28	4853.96
1724.45	4783.89
1723.62	4623.54
1722.79	4631.78
1721.96	4254.86
1721.13	4227.06
1720.3	4103.01
1719.46	3966.97
1718.63	3858.04
1717.8	3613.86
1716.97	3541.1
1716.14	3585.58
1715.31	3335.56
1714.47	3307.95
1713.64	3148.18
1712.81	3078.56
1711.98	3045.01
1711.14	2921.39
1710.31	2815.82
1709.48	2809.34
1708.65	2751.85
1707.81	2733.38
1706.98	2645.91
1706.15	2549.48
1705.31	2567.04
1704.48	2527.63
1703.64	2473.24
1702.81	2334.94
1701.98	2421.45
1701.14	2522.91
1700.31	2504.51
1699.47	2396.25
1698.64	2395.84
1697.8	2464.3
1696.97	2475.86
1696.13	2511.36
1695.3	2466.04
1694.46	2307.03
1693.63	2423.31
1692.79	2375.04
1691.95	2425.48
1691.12	2437.03
1690.28	2418.68
1689.45	2448.16
1688.61	2337.16
1687.77	2459.27
1686.94	2345.32
1686.1	2437.53
1685.26	2401.27
1684.42	2397.88
1683.59	2415.38
1682.75	2450.79
1681.91	2328.01
1681.07	2423.1
1680.24	2425.67
1679.4	2362.61
1678.56	2323.44
1677.72	2421.45
1676.88	2397.18
1676.04	2343.12
1675.21	2402.33
1674.37	2556.88
1673.53	2407.47
1672.69	2383.23
1671.85	2433.45
1671.01	2421.13
1670.17	2465.38
1669.33	2405.42
1668.49	2476.44
1667.65	2380.79
1666.81	2300.04
1665.97	2344.28
1665.13	2436.08
1664.29	2379.16
1663.45	2417.41
1662.61	2387.27
1661.77	2458.2
1660.92	2389.43
1660.08	2403.88
1659.24	2445.06
1658.4	2465.44
1657.56	2473.92
1656.72	2330.97
1655.87	2538.4
1655.03	2511.25
1654.19	2537.53
1653.35	2474.78
1652.5	2489.19
1651.66	2548.09
1650.82	2491.31
1649.98	2404.89
1649.13	2478.6
1648.29	2487.07
1647.45	2534.06
1646.6	2515.85
1645.76	2393.95
1644.91	2583.12
1644.07	2496.79
1643.23	2437.14
1642.38	2519.62
1641.54	2545.84
1640.69	2465.49
1639.85	2524.25
1639	2568.2
1638.16	2558.89
1637.31	2537.75
1636.47	2490
1635.62	2637.41
1634.78	2539.4
1633.93	2618.77
1633.08	2621.28
1632.24	2585.37
1631.39	2581.98
1630.55	2593.35
1629.7	2731.71
1628.85	2619.04
1628.01	2766.2
1627.16	2804.1
1626.31	2741.64
1625.46	2885.76
1624.62	2823.31
1623.77	2967.36
1622.92	3149.7
1622.07	3104.93
1621.23	3337.3
1620.38	3531.27
1619.53	3831.28
1618.68	4151.81
1617.83	4613.64
1616.98	5334.52
1616.13	5902.02
1615.29	6678.39
1614.44	6956.93
1613.59	7394.34
1612.74	7599.09
1611.89	7335.9
1611.04	6831.54
1610.19	6453.85
1609.34	6061.58
1608.49	5457.72
1607.64	5086.34
1606.79	4603.37
1605.94	4326.31
1605.09	4143.38
1604.24	3822.42
1603.38	3686.64
1602.53	3524.47
1601.68	3409.34
1600.83	3288.38
1599.98	3149.84
1599.13	3193.33
1598.27	2996.16
1597.42	3092.47
1596.57	2945.27
1595.72	2891.97
1594.87	2826.96
1594.01	2691.6
1593.16	2872.89
1592.31	2658.43
1591.45	2666.77
1590.6	2678.03
1589.75	2712.73
1588.89	2712.26
1588.04	2597.58
1587.19	2711.33
1586.33	2678.66
1585.48	2713.33
1584.62	2651.4
1583.77	2618.76
1582.92	2790.92
1582.06	2644.19
1581.21	2728.54
1580.35	2675.44
1579.5	2736.38
1578.64	2770.98
1577.78	2598.08
1576.93	2732.05
1576.07	2538.76
1575.22	2675.61
1574.36	2494.08
1573.51	2706.81
1572.65	2665.47
1571.79	2603.72
1570.94	2617.86
1570.08	2646.59
1569.22	2701.57
1568.37	2671.93
1567.51	2668.56
1566.65	2732.25
1565.79	2615.16
1564.94	2629.29
1564.08	2701.7
1563.22	2616.73
1562.36	2735.73
1561.5	2604.18
1560.65	2644.5
1559.79	2559.6
1558.93	2655.24
1558.07	2660.6
1557.21	2735.82
1556.35	2674.24
1555.49	2670.87
1554.63	2623.87
1553.77	2675.77
1552.91	2684.03
1552.05	2689.38
1551.19	2572.64
1550.33	2740.77
1549.47	2717.05
1548.61	2626.52
1547.75	2678.35
1546.89	2628.52
1546.03	2572.89
1545.17	2572.45
1544.31	2601.03
1543.45	2664.44
1542.58	2655.28
1541.72	2738.96
1540.86	2709.48
1540	2610.4
1539.14	2598.35
1538.28	2667.49
1537.41	2638.04
1536.55	2602.8
1535.69	2619.74
1534.82	2665.65
1533.96	2726.03
1533.1	2574.94
1532.24	2467.35
1531.37	2678.29
1530.51	2643.09
1529.64	2619.48
1528.78	2653.75
1527.92	2699.59
1527.05	2652.84
1526.19	2655.27
1525.32	2692.41
1524.46	2686.16
1523.59	2723.28
1522.73	2714.14
1521.86	2754.13
1521	2666.97
1520.13	2597.18
1519.27	2671.83
1518.4	2726.24
1517.54	2702.67
1516.67	2661.79
1515.8	2681.53
1514.94	2750.33
1514.07	2796.03
1513.21	2613.79
1512.34	2696.99
1511.47	2659.03
1510.6	2698.94
1509.74	2669.65
1508.87	2775.84
1508	2593.79
1507.14	2648.09
1506.27	2748.47
1505.4	2765.28
1504.53	2710.08
1503.66	2646.26
1502.8	2830.06
1501.93	2717.31
1501.06	2670.79
1500.19	2817.09
1499.32	2738.92
1498.45	2660.78
1497.58	2786.87
1496.71	2639.73
1495.84	2650.78
1494.97	2699.18
1494.1	2655.61
1493.23	2635.03
1492.36	2798.34
1491.49	2651.36
1490.62	2699.72
1489.75	2765.3
1488.88	2652.85
1488.01	2755.74
1487.14	2786.83
1486.27	2726.09
1485.4	2788.73
1484.52	2762.44
1483.65	2756.22
1482.78	2750.01
1481.91	2738.06
1481.04	2685.99
1480.17	2757.18
1479.29	2782.49
1478.42	2756.23
1477.55	2801.58
1476.67	2758.14
1475.8	2763.39
1474.93	2745.73
1474.06	2856.9
1473.18	2770.54
1472.31	2878.8
1471.43	2852.55
1470.56	2814.87
1469.69	2874.44
1468.81	2819.61
1467.94	2896.32
1467.06	2832.93
1466.19	2906.75
1465.31	2774.79
1464.44	2842.89
1463.56	2933.81
1462.69	2907.59
1461.81	2958.49
1460.94	2946.56
1460.06	2954.61
1459.19	2888.45
1458.31	2893.66
1457.43	2915.98
1456.56	2941.15
1455.68	2900.71
1454.8	2923.02
1453.93	2882.6
1453.05	2990.43
1452.17	2941.45
1451.3	2935.24
1450.42	2903.39
1449.54	2880.1
1448.66	2848.27
1447.78	2975.93
1446.91	2952.63
1446.03	2983.43
1445.15	2783.67
1444.27	2891.33
1443.39	2839.62
1442.51	2901.71
1441.64	2921.11
1440.76	2869.42
1439.88	2880.29
1439	2876.95
1438.12	2825.29
1437.24	2864.59
1436.36	2824.31
1435.48	2829.5
1434.6	2817.65
1433.72	2944.95
1432.84	2822.35
1431.96	2824.7
1431.08	2821.37
1430.2	2888.99
1429.31	2862.95
1428.43	2737.63
1427.55	2728.64
1426.67	2886.98
1425.79	2807.09
1424.91	2894.48
1424.02	2823.12
1423.14	2995.5
1422.26	2935.47
1421.38	2915.13
1420.49	2928.79
1419.61	2880.14
1418.73	2939.1
1417.85	3012.19
1416.96	3068.28
1416.08	3113.03
1415.2	3132.29
1414.31	3094.97
1413.43	3080.29
1412.54	3116.52
1411.66	3101.84
1410.78	2957.12
1409.89	3015.96
1409.01	3015.44
1408.12	2995.13
1407.24	3048.29
1406.35	2926.3
1405.47	2931.44
1404.58	3015.64
1403.7	2905.01
1402.81	2955.31
1401.92	2813.69
1401.04	2818.84
1400.15	2973.52
1399.27	2882.74
1398.38	2851.21
1397.49	2935.31
1396.61	2906.6
1395.72	2869.45
1394.83	2871.77
1393.94	2843.09
1393.06	2856.69
1392.17	2960.41
1391.28	2810.63
1390.39	2987.53
1389.51	2840.62
1388.62	2865.46
1387.73	2814.3
1386.84	2917.92
1385.95	2793.63
1385.06	2863.46
1384.17	2961.39
1383.29	2913.07
1382.4	2876.02
1381.51	2779.95
1380.62	2925.6
1379.73	2953.19
1378.84	2843.11
1377.95	2842.61
1377.06	2937.6
1376.17	2869.7
1375.28	2902.89
1374.39	2958.52
1373.5	2890.65
1372.6	2842.45
1371.71	2951.36
1370.82	3040.61
1369.93	2953.14
1369.04	2893.74
1368.15	2870.81
1367.26	2901.14
1366.36	2909.04
1365.47	2807.66
1364.58	2882.81
1363.69	2840.29
1362.79	2859.4
1361.9	2878.5
1361.01	2827.6
1360.11	2899.89
1359.22	2949.76
1358.33	2826.12
1357.43	2822.83
1356.54	2822.34
1355.65	2847.02
1354.75	2924.81
1353.86	2873.98
1352.96	2904.22
1352.07	2889.74
1351.17	2883.65
1350.28	2972.54
1349.39	2879.85
1348.49	2926.82
1347.59	2915.14
1346.7	2872.75
1345.8	2950.41
1344.91	2885.7
1344.01	2868.46
1343.12	2893.06
1342.22	2967.87
1341.32	2936.67
1340.43	2952.89
1339.53	2983.04
1338.63	3021.54
1337.74	2831.5
1336.84	2945.25
1335.94	2894.59
1335.04	2841.16
1334.15	2960.42
1333.25	2795.61
1332.35	2939.89
1331.45	2819.69
1330.55	2885.99
1329.66	2877.13
1328.76	2954.53
1327.86	2909.5
1326.96	2950.71
1326.06	2989.12
1325.16	2857.93
1324.26	2979.74
1323.36	2956.98
1322.46	2984.25
1321.56	2994.84
1320.66	3085.98
1319.76	3010.45
1318.86	2993.27
1317.96	3114.89
1317.06	3064.39
1316.16	3235.91
1315.26	3177.08
1314.36	3068.32
1313.46	3261.95
1312.55	3161.54
1311.65	3230.31
1310.75	3340.63
1309.85	3359.45
1308.95	3364.4
1308.04	3319.48
1307.14	3302.27
1306.24	3290.62
1305.34	3525.44
1304.43	3400.22
1303.53	3460.53
1302.63	3435.01
1301.72	3381.82
1300.82	3574.92
1299.92	3474.7
1299.01	3568.13
1298.11	3639.41
1297.21	3738.31
1296.3	3817.83
1295.4	3692.78
1294.49	4059.68
1293.59	3987.13
1292.68	4058.26
1291.78	4333.76
1290.87	4125.87
1289.97	4323.95
1289.06	4237.61
1288.16	4162.34
1287.25	4205.77
1286.34	4061.55
1285.44	4063.59
1284.53	4049.09
1283.62	4029.07
1282.72	3846.39
1281.81	3953.22
1280.9	4018.68
1280	3811.29
1279.09	3885.01
1278.18	3856.78
1277.27	3955.26
1276.37	3753.53
1275.46	3667.52
1274.55	3548.5
1273.64	3572.65
1272.73	3376.63
1271.82	3442.07
1270.92	3386.45
1270.01	3248.33
1269.1	3253.26
1268.19	3329.67
1267.28	3191.63
1266.37	3257.04
1265.46	3248.22
1264.55	3261.39
1263.64	3164.66
1262.73	3002.06
1261.82	3136.09
1260.91	3110.83
1260	3096.55
1259.09	3052.09
1258.18	3111.93
1257.27	3034.56
1256.35	3058.71
1255.44	2866.18
1254.53	2994.56
1253.62	3098.22
1252.71	3015.44
1251.79	3058.76
1250.88	2937.65
1249.97	2953.57
1249.06	2958.53
1248.14	2941.57
1247.23	2957.49
1246.32	2869.35
1245.41	2956.44
1244.49	2961.4
1243.58	2988.24
1242.66	2960.35
1241.75	2976.24
1240.84	2860.85
1239.92	2931.44
1239.01	2958.27
1238.09	2944.08
1237.18	2872.5
1236.26	2932.11
1235.35	2939.79
1234.43	3004.83
1233.52	2971.53
1232.6	2897.27
1231.69	2975.94
1230.77	2918.09
1229.86	2963.97
1228.94	2867.94
1228.02	2845.61
1227.11	2937.85
1226.19	2882.79
1225.27	2950.45
1224.36	2887.22
1223.44	2889.44
1222.52	2918.91
1221.6	2891.14
1220.69	2934.23
1219.77	2800.23
1218.85	2957.7
1217.93	2823.75
1217.01	2864.09
1216.1	2909.86
1215.18	2792.32
1214.26	2881.62
1213.34	2911.04
1212.42	2964.93
1211.5	2961.68
1210.58	2969.32
1209.66	2955.2
1208.74	2903.03
1207.82	2981.33
1206.9	2820.49
1205.98	2890.63
1205.06	2939.01
1204.14	2884.17
1203.22	2975.99
1202.3	2934.74
1201.38	2980.36
1200.46	2906.56
1199.54	2941.32
1198.61	2919.1
1197.69	2945.71
1196.77	2926.2
1195.85	2866.03
1194.93	2957.7
1194	2908.39
1193.08	3100.28
1192.16	2942.58
1191.24	2996.24
1190.31	2938.83
1189.39	2962.68
1188.47	3065.05
1187.54	3037.44
1186.62	3063.97
1185.7	2895.64
1184.77	2943.83
1183.85	3051.52
1182.92	3075.32
1182	3093.71
1181.07	3052.6
1180.15	3211.56
1179.23	3094.77
1178.3	3045.58
1177.37	3126.09
1176.45	3182.27
1175.52	3230.32
1174.6	3135.24
1173.67	3069.88
1172.75	3252.9
1171.82	2968.93
1170.89	3035.87
1169.97	3081.2
1169.04	2999.72
1168.11	2980.31
1167.19	2890.79
1166.26	3014.3
1165.33	2973.33
1164.4	2953.94
1163.48	2877.97
1162.55	2947.51
1161.62	2903.88
1160.69	2973.39
1159.76	3005.18
1158.83	2789.26
1157.91	2963.74
1156.98	3006.27
1156.05	2989.59
1155.12	2924.49
1154.19	2942.8
1153.26	2953.04
1152.33	2971.34
1151.4	2884.78
1150.47	3018.67
1149.54	2983.2
1148.61	2988.04
1147.68	3009
1146.75	2960.12
1145.82	2989.13
1144.89	2967.12
1143.96	2971.97
1143.02	2966.07
1142.09	2930.65
1141.16	2946.23
1140.23	3015.46
1139.3	3039.07
1138.36	2979.53
1137.43	3078.21
1136.5	2994.55
1135.57	3069.07
1134.63	3076.57
1133.7	2960.81
1132.77	3048.69
1131.83	3091
1130.9	3178.83
1129.97	3116.68
1129.03	3166.99
1128.1	3209.25
1127.17	3224.74
1126.23	3184.03
1125.3	3228.94
1124.36	3281.86
1123.43	3217.1
1122.49	3203.15
1121.56	3304.17
1120.62	3327.64
1119.69	3321.7
1118.75	3334.47
1117.81	3320.52
1116.88	3346.64
1115.94	3362.06
1115.01	3398.85
1114.07	3403.58
1113.13	3451.02
1112.2	3375.68
1111.26	3308.38
1110.32	3371.81
1109.38	3189.85
1108.45	3194.62
1107.51	3308.69
1106.57	3284.11
1105.63	3302.18
1104.69	3378.87
1103.76	3404.91
1102.82	3289.77
1101.88	3246.57
1100.94	3517.6
1100	3381.19
1099.06	3564.26
1098.12	3356.03
1097.18	3576.29
1096.24	3485.2
1095.3	3649.5
1094.36	3704.7
1093.42	3746.58
1092.48	3527.91
1091.54	3442.22
1090.6	3571.83
1089.66	3401.14
1088.72	3360.68
1087.78	3267.12
1086.84	3210.76
1085.9	3127.88
1084.95	3074.23
1084.01	3193.12
1083.07	3221.74
1082.13	3194.64
1081.19	3053.46
1080.24	3193.5
1079.3	3126.63
1078.36	3173.8
1077.41	3117.56
1076.47	3167.36
1075.53	3124.4
1074.58	3036.4
1073.64	3173.61
1072.7	3122.72
1071.75	3196.32
1070.81	3076.6
1069.86	3081.34
1068.92	3144.32
1067.98	3077.6
1067.03	3002.97
1066.09	3005.08
1065.14	2959.58
1064.19	3019.87
1063.25	3085.43
1062.3	3024.08
1061.36	3012.96
1060.41	3057.35
1059.46	3122.85
1058.52	3085.31
1057.57	2976.48
1056.63	2991.79
1055.68	2933.17
1054.73	3117.42
1053.78	3090.47
1052.84	2981.73
1051.89	3002.31
1050.94	2993.86
1049.99	3059.25
1049.05	2974.33
1048.1	3042.34
1047.15	3102.42
1046.2	2980.64
1045.25	2951.12
1044.3	3029.63
1043.35	2923.73
1042.4	3081.22
1041.45	2983.24
1040.5	2951.12
1039.55	3116.41
1038.6	3029.01
1037.65	2999.52
1036.7	2975.31
1035.75	3085.25
1034.8	3047.88
1033.85	3039.45
1032.9	3023.13
1031.95	3069.9
1031	3095.63
1030.05	3168.64
1029.1	3076.13
1028.14	3070.33
1027.19	3088.16
1026.24	3132.24
1025.29	3155.3
1024.33	3036.63
1023.38	3146.3
1022.43	3053.91
1021.48	3124.19
1020.52	3173.46
1019.57	3209.6
1018.62	3151.35
1017.66	3127.19
1016.71	3131.87
1015.75	3078.9
1014.8	3175.29
1013.85	3169.48
1012.89	3142.72
1011.94	3236.42
1010.98	3214.9
1010.03	3248.35
1009.07	3205.89
1008.12	3247.18
1007.16	3071.32
1006.2	3253.87
1005.25	3282.05
1004.29	3310.22
1003.34	3429.88
1002.38	3363.92
1001.42	3300.6
1000.47	3388.85
999.508	3524.08
998.551	3481.66
997.594	3504.53
996.636	3378.58
995.679	3404.08
994.721	3288.63
993.763	3361.1
992.805	3389.2
991.846	3177.29
990.888	3291.48
989.929	3309.14
988.97	3180.8
988.011	3169.8
987.052	3218.75
986.093	3218.17
985.133	3298.36
984.173	3107.61
983.213	3203.41
982.253	3158.57
981.293	3144.98
980.333	3102.77
979.372	3250.56
978.411	3158.9
977.45	3163.54
976.489	3110.95
975.528	3068.78
974.566	3180.03
973.605	3093.67
972.643	3113.91
971.681	3056.17
970.719	3079.01
969.756	3088.85
968.794	3101.28
967.831	3038.39
966.868	3006.69
965.905	3133.35
964.942	3132.79
963.979	3134.82
963.015	3175.77
962.052	3190.76
961.088	3174.63
960.124	3088.48
959.159	3080.14
958.195	3064.04
957.23	2993.51
956.266	3117.35
955.301	3103.84
954.336	3139.54
953.37	3105.31
952.405	3019.3
951.439	3093.83
950.473	3080.33
949.507	3116.01
948.541	3074.05
947.575	3104.54
946.608	3085.87
945.642	3144.8
944.675	3141.65
943.708	3115.23
942.741	3130.18
941.773	3103.77
940.806	3110.96
939.838	3063.9
938.87	3189.91
937.902	3101.53
936.934	3059.66
935.965	3105.58
934.997	3063.72
934.028	3099.29
933.059	3103.9
932.09	3108.49
931.121	3084.72
930.151	3122.85
929.182	3230.57
928.212	3054.7
927.242	3105.69
926.272	3094.82
925.301	3189.59
924.331	3194.17
923.36	3124.05
922.389	3203.32
921.418	3128.07
920.447	3153.25
919.475	3206.73
918.504	3118.66
917.532	3110.38
916.56	3055.8
915.588	3142.69
914.616	3129.27
913.643	3313.8
912.671	3153.84
911.698	3235.51
910.725	3106.45
909.752	3177.82
908.779	3200.36
907.805	3248.58
906.831	3217.18
905.858	3167.82
904.883	3251.95
903.909	3151.28
902.935	3219.98
901.96	3198.88
900.986	3362.45
900.011	3213.11
899.036	3266.37
898.06	3270.91
897.085	3272.88
896.109	3223.6
895.133	3287.06
894.157	3330.02
893.181	3293.56
892.205	3336.49
891.229	3323.09
890.252	3273.85
889.275	3288.62
888.298	3272.67
887.321	3371.85
886.343	3404.49
885.366	3368.07
884.388	3316.32
883.41	3430.76
882.432	3228.22
881.454	3332.41
880.475	3293.48
879.497	3430.83
878.518	3440.43
877.539	3375.96
876.56	3492.8
875.58	3397.72
874.601	3338.4
873.621	3391.38
872.641	3500.48
871.661	3410.56
870.681	3463.5
869.701	3531.72
868.72	3531.08
867.739	3540.64
866.758	3514.51
865.777	3625.99
864.796	3612.6
863.815	3848.83
862.833	3939.82
861.851	4119.89
860.869	4287.17
859.887	4400.93
858.905	4517.2
857.922	4452.77
856.939	4380.73
855.956	4339.24
854.973	4267.24
853.99	4085.95
853.007	4118.25
852.023	4026
851.039	3875.34
850.055	3795.88
849.071	3744.38
848.087	3736.08
847.102	3595.74
846.118	3590.01
845.133	3609.66
844.148	3530.33
843.163	3529.69
842.177	3579.79
841.192	3401.58
840.206	3350.24
839.22	3392.74
838.234	3374.37
837.248	3406.71
836.261	3479.59
835.274	3428.28
834.288	3425.12
833.301	3419.43
832.313	3444.14
831.326	3370.08
830.339	3458.07
829.351	3427.07
828.363	3353.06
827.375	3377.75
826.387	3382.2
825.398	3470.11
824.409	3403.73
823.421	3478.96
822.432	3475.8
821.443	3379.12
820.453	3456.85
819.464	3400.63
818.474	3430.33
817.484	3475.16
816.494	3494.73
815.504	3430.98
814.513	3407.64
813.523	3396.92
812.532	3282.76
811.541	3352.8
810.55	3384.98
809.559	3427.23
808.567	3335.84
807.575	3408.34
806.583	3395.12
805.591	3356.7
804.599	3439.23
803.607	3468.84
802.614	3402.72
801.621	3319
800.628	3411.55
799.635	3458.76
798.642	3505.95
797.649	3409.69
796.655	3471.96
795.661	3556.86
794.667	3583.87
793.673	3482.64
792.678	3539.83
791.684	3524.1
790.689	3458.11
789.694	3379.59
788.699	3454.34
787.704	3373.33
786.708	3375.23
785.713	3389.68
784.717	3333.83
783.721	3293.07
782.724	3377.79
781.728	3424.84
780.731	3374.05
779.735	3318.25
778.738	3320.16
777.741	3302
776.743	3308.92
775.746	3433.63
774.748	3445.53
773.75	3442.4
772.752	3271.43
771.754	3378.53
770.756	3453.03
769.757	3394.82
768.758	3361.66
767.759	3298.48
766.76	3340.41
765.761	3407.35
764.761	3326.69
763.762	3493.63
762.762	3340.47
761.762	3484.86
760.762	3379.24
759.761	3458.59
758.761	3462.96
757.76	3409.87
756.759	3426.73
755.758	3398.63
754.756	3460.43
753.755	3437.33
752.753	3424.22
751.751	3276.37
750.749	3325.67
749.747	3442.3
748.745	3414.24
747.742	3321.35
746.739	3430.44
745.736	3399.9
744.733	3314.55
743.73	3239.19
742.726	3375.61
741.723	3377.49
740.719	3503.88
739.715	3358.82
738.71	3403.02
737.706	3332.7
736.701	3352
735.697	3488.23
734.692	3378.14
733.686	3365.08
732.681	3359.49
731.675	3371.31
730.67	3457.69
729.664	3414.81
728.658	3533.46
727.651	3413.56
726.645	3487.45
725.638	3437.15
724.631	3362.02
723.624	3488.02
722.617	3420.36
721.61	3355.21
720.602	3352.12
719.595	3463.14
718.587	3464.98
717.578	3504.03
716.57	3486.03
715.562	3480.43
714.553	3479.79
713.544	3367.64
712.535	3478.52
711.526	3492.74
710.516	3546.59
709.507	3664.8
708.497	3589.85
707.487	3596.62
706.477	3610.81
705.467	3545.81
704.456	3663.91
703.445	3947.69
702.434	3783.74
701.423	3872.06
700.412	3720.55
699.401	3625.94
698.389	3647.52
697.377	3478.84
696.365	3507.84
695.353	3554.13
694.34	3491.74
693.328	3513.32
692.315	3394.19
691.302	3455.26
690.289	3442.29
689.276	3555.15
688.262	3438.56
687.249	3529.18
686.235	3538.39
685.221	3493.37
684.206	3453.29
683.192	3391.04
682.177	3427.38
681.162	3480.95
680.147	3576.37
679.132	3506.76
678.117	3520.88
677.101	3507.93
676.086	3544.2
675.07	3496.8
674.054	3464.17
673.037	3554.55
672.021	3374.35
671.004	3629.47
669.987	3434.58
668.97	3532.27
667.953	3538.99
666.936	3481.82
665.918	3373.09
664.9	3546.86
663.882	3511.83
662.864	3525.91
661.846	3515.45
660.827	3585.98
659.808	3501.88
658.789	3469.34
657.77	3552.11
656.751	3683.9
655.731	3428.19
654.712	3515.82
653.692	3556.85
652.672	3570.9
651.652	3567.79
650.631	3547.53
649.611	3500.34
648.59	3573.16
647.569	3606.79
646.548	3510.64
645.526	3512.44
644.505	3467.75
643.483	3484.24
642.461	3554.54
641.439	3500.07
640.417	3643.71
639.394	3623.48
638.371	3517.69
637.348	3641.69
636.325	3721.66
635.302	3806.49
634.279	4098.91
633.255	4403.44
632.231	4522.28
631.207	4511.68
630.183	4254.55
629.159	4017.04
628.134	3821.09
627.109	3647.18
626.084	3724.56
625.059	3728.75
624.034	3640.28
623.008	3622.55
621.983	3526.82
620.957	3630.96
619.931	3618.11
618.904	3634.49
617.878	3750.72
616.851	3642.89
615.824	3578.91
614.797	3605.03
613.77	3696.85
612.743	3523.4
611.715	3719.81
610.687	3573.18
609.659	3611.43
608.631	3744.49
607.603	3585.78
606.574	3602.14
605.546	3586.89
604.517	3683.41
603.487	3485.96
602.458	3735.49
601.429	3530.81
600.399	3678.26
599.369	3743.12
598.339	3579.82
597.309	3668.94
596.278	3636.73
595.248	3640.9
594.217	3603.85
593.186	3743.82
592.155	3718.89
591.123	3638.21
590.091	3710.24
589.06	3554.48
588.028	3645.88
586.996	3635.52
585.963	3702.65
584.931	3643.86
583.898	3621.4
582.865	3657.03
581.832	3646.67
580.798	3604.87
579.765	3783.2
578.731	3627.72
577.697	3687.5
576.663	3710.99
575.629	3855.33
574.594	3709.62
573.56	3617.11
572.525	3616.44
571.49	3606.11
570.455	3680.3
569.419	3573.39
568.384	3611.35
567.348	3721.7
566.312	3655.86
565.276	3553.85
564.239	3632.79
563.203	3706.88
562.166	3788.18
561.129	3809.18
560.092	3794.01
559.054	3764.39
558.017	3751.64
556.979	3815.99
555.941	3608.14
554.903	3764
553.865	3804.24
552.826	3721.68
551.787	3660.82
550.749	3479.66
549.709	3589.69
548.67	3620.29
547.631	3646.08
546.591	3630.97
545.551	3603.85
544.511	3586.36
543.471	3677.02
542.43	3616.26
541.39	3714.09
540.349	3763.84
539.308	3808.77
538.267	3690.41
537.225	3867.37
536.184	3655.44
535.142	3642.76
534.1	3697.27
533.058	3730.16
532.015	3671.91
530.973	3558.52
529.93	3644.17
528.887	3569.19
527.844	3578.11
526.801	3601.41
525.757	3639.07
524.713	3600.07
523.669	3640.11
522.625	3651.41
521.581	3638.76
520.537	3690.74
519.492	3713.98
518.447	3806.6
517.402	3772.4
516.357	3637.77
515.311	3780.56
514.265	3660.32
513.22	3528.17
512.174	3556.19
511.127	3667.84
510.081	3449.75
509.034	3585.26
507.987	3510.56
506.94	3421.56
505.893	3397.05
504.846	3422.67
503.798	3577.15
502.75	3543.08
501.702	3673.62
500.654	3572.77
499.606	3646.02
