3200.66	33.6793
3200.06	25.2595
3199.47	42.0928
3198.87	33.6691
3198.28	33.664
3197.69	37.8663
3197.09	25.2404
3196.5	50.4731
3195.9	25.2328
3195.31	37.8434
3194.71	25.2251
3194.12	37.832
3193.52	33.6233
3192.93	0
3192.33	46.2181
3191.74	58.8141
3191.14	46.2041
3190.55	16.799
3189.95	41.991
3189.36	16.7939
3188.76	33.5827
3188.17	54.5636
3187.57	50.3588
3186.97	41.9593
3186.38	16.7812
3185.78	37.7519
3185.19	33.5522
3184.59	25.1603
3183.99	8.38551
3183.4	25.1527
3182.8	37.7234
3182.2	37.7177
3181.61	50.2826
3181.01	16.7583
3180.41	33.5116
3179.82	41.8832
3179.22	50.2522
3178.62	41.8705
3178.03	37.6777
3177.43	20.9289
3176.83	25.1109
3176.23	46.0296
3175.64	33.471
3175.04	33.466
3174.44	29.2783
3173.84	20.9099
3173.25	20.9067
3172.65	41.8071
3172.05	12.5402
3171.45	45.9739
3170.85	4.17881
3170.26	29.2473
3169.66	25.0653
3169.06	29.2384
3168.46	66.8205
3167.86	50.1078
3167.26	16.7001
3166.66	37.5695
3166.06	33.39
3165.47	37.5581
3164.87	33.3799
3164.27	50.0622
3163.67	50.0547
3163.07	25.0235
3162.47	37.5296
3161.87	54.2012
3161.27	29.1809
3160.67	16.6722
3160.07	33.3394
3159.47	8.33359
3158.87	24.997
3158.27	4.16553
3157.67	16.6596
3157.07	41.6427
3156.47	20.8182
3155.87	33.3041
3155.27	20.8119
3154.67	12.4852
3154.07	37.45
3153.46	33.2839
3152.86	37.4387
3152.26	45.7514
3151.66	24.9515
3151.06	24.9478
3150.46	33.2586
3149.86	54.0371
3149.26	24.9364
3148.65	24.9326
3148.05	0
3147.45	33.2334
3146.85	4.15354
3146.25	29.0704
3145.64	8.30457
3145.04	20.7583
3144.44	24.9061
3143.84	29.0528
3143.24	20.7488
3142.63	41.4913
3142.03	53.9305
3141.43	33.183
3140.82	49.7669
3140.22	58.0526
3139.62	53.8978
3139.02	33.1628
3138.41	29.0131
3137.81	45.5851
3137.21	62.152
3136.6	24.857
3136	33.1377
3135.4	33.1326
3134.79	41.4095
3134.19	33.1226
3133.58	28.9778
3132.98	41.3906
3132.38	33.1075
3131.77	33.1024
3131.17	37.2346
3130.56	33.0924
3129.96	33.0874
3129.35	45.4882
3128.75	45.4813
3128.14	33.0723
3127.54	37.2006
3126.93	28.9294
3126.33	33.0572
3125.72	37.1837
3125.12	28.9162
3124.51	37.1724
3123.91	41.2964
3123.3	49.5481
3122.7	33.027
3122.09	37.1498
3121.49	41.2713
3120.88	53.6445
3120.27	28.8811
3119.67	24.7515
3119.06	20.6231
3118.46	57.7358
3117.85	16.4934
3117.24	32.9819
3116.64	45.3432
3116.03	16.4859
3115.42	45.3294
3114.82	12.3607
3114.21	24.7176
3113.6	45.3087
3113	20.5917
3112.39	37.0595
3111.78	53.5222
3111.17	32.9317
3110.57	24.695
3109.96	37.0369
3109.35	45.2604
3108.74	28.7977
3108.14	53.4733
3107.53	45.2398
3106.92	53.4571
3106.31	53.4489
3105.7	45.2191
3105.1	28.7714
3104.49	32.8766
3103.88	41.0895
3103.27	32.8666
3102.66	53.4001
3102.05	28.7495
3101.44	24.6387
3100.84	36.9524
3100.23	32.8416
3099.62	36.9412
3099.01	32.8316
3098.4	16.4133
3097.79	8.20539
3097.18	32.8166
3096.57	41.0145
3095.96	49.2099
3095.35	45.1022
3094.74	61.4936
3094.13	36.8905
3093.52	28.6883
3092.91	36.8793
3092.3	20.4854
3091.69	32.7716
3091.08	40.9583
3090.47	45.0472
3089.86	53.2295
3089.25	28.6577
3088.64	49.1199
3088.03	45.0197
3087.42	53.197
3086.81	45.006
3086.19	57.2716
3085.58	57.2629
3084.97	20.4479
3084.36	57.2455
3083.75	44.9717
3083.14	65.4034
3082.53	57.2193
3081.91	24.5188
3081.3	65.3735
3080.69	28.5965
3080.08	32.6768
3079.47	53.0917
3078.85	57.1669
3078.24	57.1582
3077.63	40.821
3077.02	36.7333
3076.4	20.4043
3075.79	36.7221
3075.18	40.7961
3074.57	48.9479
3073.95	40.7837
3073.34	57.0884
3072.73	61.1568
3072.11	57.071
3071.5	44.8347
3070.89	24.4515
3070.27	44.821
3069.66	32.5921
3069.05	48.8807
3068.43	28.5094
3067.82	61.0822
3067.2	48.8583
3066.59	77.3471
3065.98	56.9839
3065.36	56.9752
3064.75	52.8975
3064.13	56.9578
3063.52	24.4068
3062.9	65.0748
3062.29	40.6655
3061.67	40.6593
3061.06	44.7184
3060.44	28.4528
3059.83	89.4095
3059.21	32.5076
3058.6	65.0052
3057.98	28.4354
3057.37	32.4927
3056.75	48.7315
3056.14	44.6637
3055.52	60.8958
3054.9	36.5319
3054.29	40.5848
3053.67	60.8679
3053.06	24.3434
3052.44	36.5096
3051.82	36.504
3051.21	44.6092
3050.59	44.6023
3049.97	44.5955
3049.36	24.3211
3048.74	52.6877
3048.12	56.7319
3047.51	56.7232
3046.89	68.8676
3046.27	40.5042
3045.65	40.498
3045.04	28.3443
3044.42	44.5342
3043.8	48.5753
3043.18	48.5678
3042.57	32.3736
3041.95	56.6452
3041.33	48.5456
3040.71	56.6278
3040.09	24.2653
3039.48	20.218
3038.86	52.5588
3038.24	44.4661
3037.62	36.3757
3037	44.4524
3036.38	36.3646
3035.76	44.4388
3035.14	52.5106
3034.53	20.1933
3033.91	32.3043
3033.29	28.2619
3032.67	64.5888
3032.05	36.3257
3031.43	56.4979
3030.81	52.4543
3030.19	32.2746
3029.57	64.5394
3028.95	44.364
3028.33	40.3248
3027.71	40.3186
3027.09	48.3749
3026.47	56.4287
3025.85	32.24
3025.23	56.4114
3024.61	32.2302
3023.99	44.3097
3023.37	40.2754
3022.75	40.2692
3022.13	40.263
3021.5	44.2825
3020.88	76.4763
3020.26	52.3178
3019.64	40.2383
3019.02	76.4411
3018.4	44.2486
3017.78	28.1539
3017.15	40.2137
3016.53	48.249
3015.91	64.3221
3015.29	56.2732
3014.67	76.3591
3014.04	44.2011
3013.42	40.1767
3012.8	52.2217
3012.18	40.1643
3011.56	52.2056
3010.93	36.1368
3010.31	24.0875
3009.69	44.1537
3009.06	80.2671
3008.44	48.1529
3007.82	56.1697
3007.19	60.1726
3006.57	68.1852
3005.95	64.1644
3005.32	36.087
3004.7	40.0905
3004.08	64.1349
3003.45	64.1251
3002.83	64.1152
3002.21	60.0988
3001.58	52.0776
3000.96	48.0643
3000.33	64.0758
2999.71	48.0495
2999.08	56.0492
2998.46	40.029
2997.84	48.0274
2997.21	48.02
2996.59	76.02
2995.96	52.0057
2995.34	55.9975
2994.71	51.9897
2994.09	51.9817
2993.46	39.9798
2992.83	47.9684
2992.21	55.9545
2991.58	47.9537
2990.96	55.9373
2990.33	79.8982
2989.71	55.9202
2989.08	55.9116
2988.45	63.8891
2987.83	63.8793
2987.2	51.8939
2986.58	51.886
2985.95	87.7935
2985.32	43.89
2984.7	55.8514
2984.07	59.8316
2983.44	27.9171
2982.82	67.7883
2982.19	47.8432
2981.56	59.7948
2980.93	59.7856
2980.31	47.8212
2979.68	63.7517
2979.05	63.7419
2978.42	75.6819
2977.8	63.7223
2977.17	59.7305
2976.54	71.6656
2975.91	71.6545
2975.28	71.6435
2974.66	43.7754
2974.03	67.6425
2973.4	83.5455
2972.77	55.6885
2972.14	87.497
2971.51	63.6244
2970.88	63.6146
2970.26	51.6789
2969.63	71.5444
2969	55.6371
2968.37	67.5489
2967.74	47.6742
2967.11	71.5003
2966.48	71.4893
2965.85	67.5073
2965.22	71.4673
2964.59	67.4865
2963.96	75.4145
2963.33	51.5914
2962.7	71.4233
2962.07	91.2491
2961.44	71.4013
2960.81	67.4242
2960.18	91.2069
2959.55	55.5087
2958.92	79.2859
2958.29	63.419
2957.66	55.4831
2957.03	79.2493
2956.4	87.1608
2955.76	83.1861
2955.13	71.2914
2954.5	83.1605
2953.87	59.3912
2953.24	67.2997
2952.61	98.9548
2951.98	98.9396
2951.34	102.881
2950.71	63.3018
2950.08	71.2036
2949.45	79.1029
2948.82	114.681
2948.18	71.1706
2947.55	98.8329
2946.92	98.8176
2946.29	110.659
2945.65	90.8842
2945.02	79.0175
2944.39	98.7567
2943.76	86.8925
2943.12	94.7772
2942.49	94.7626
2941.86	106.591
2941.22	78.9444
2940.59	90.7721
2939.96	90.7581
2939.32	110.471
2938.69	130.178
2938.05	118.325
2937.42	110.42
2936.79	114.346
2936.15	134.04
2935.52	130.078
2934.88	153.704
2934.25	141.859
2933.61	110.318
2932.98	141.815
2932.34	149.671
2931.71	133.895
2931.08	129.937
2930.44	141.728
2929.81	157.451
2929.17	133.813
2928.53	121.987
2927.9	149.509
2927.26	125.883
2926.63	188.795
2925.99	157.305
2925.36	145.485
2924.72	133.668
2924.08	137.578
2923.45	188.649
2922.81	141.465
2922.18	157.159
2921.54	153.207
2920.9	141.4
2920.27	164.941
2919.63	145.283
2918.99	184.52
2918.36	141.312
2917.72	153.065
2917.08	153.041
2916.44	184.406
2915.81	152.994
2915.17	149.048
2914.53	152.946
2913.9	156.844
2913.26	148.979
2912.62	156.795
2911.98	129.336
2911.34	180.259
2910.71	168.477
2910.07	191.956
2909.43	160.591
2908.79	148.818
2908.15	172.288
2907.51	187.922
2906.88	168.321
2906.24	168.295
2905.6	180.008
2904.96	152.592
2904.32	183.865
2903.68	203.393
2903.04	195.54
2902.4	195.51
2901.76	199.389
2901.12	183.722
2900.48	211.053
2899.84	230.559
2899.2	226.616
2898.56	234.394
2897.92	218.734
2897.28	214.795
2896.64	175.714
2896	191.303
2895.36	187.37
2894.72	222.468
2894.08	206.824
2893.44	226.3
2892.8	237.969
2892.16	214.529
2891.52	218.396
2890.88	214.462
2890.24	198.834
2889.59	261.173
2888.95	210.465
2888.31	214.33
2887.67	222.089
2887.03	241.533
2886.39	194.754
2885.74	194.724
2885.1	249.209
2884.46	249.17
2883.82	256.917
2883.18	284.121
2882.53	315.209
2881.89	256.797
2881.25	272.318
2880.6	330.621
2879.96	307.236
2879.32	338.296
2878.68	384.897
2878.03	377.063
2877.39	318.705
2876.75	334.2
2876.1	256.439
2875.46	283.593
2874.82	306.855
2874.17	271.854
2873.53	260.163
2872.88	252.358
2872.24	248.437
2871.6	267.805
2870.95	263.882
2870.31	275.482
2869.66	236.645
2869.02	228.85
2868.37	217.18
2867.73	232.657
2867.08	236.498
2866.44	209.326
2865.79	232.549
2865.15	228.637
2864.5	244.1
2863.86	224.692
2863.21	209.164
2862.57	224.623
2861.92	205.227
2861.28	209.066
2860.63	232.26
2859.98	228.354
2859.34	201.23
2858.69	243.759
2858.05	321.094
2857.4	251.42
2856.75	247.513
2856.11	255.208
2855.46	301.563
2854.81	239.667
2854.17	235.765
2853.52	297.558
2852.87	301.376
2852.23	332.235
2851.58	312.87
2850.93	335.993
2850.28	351.387
2849.64	320.446
2848.99	316.536
2848.34	343.504
2847.69	374.322
2847.05	389.698
2846.4	405.068
2845.75	358.719
2845.1	381.803
2844.45	370.176
2843.8	377.829
2843.16	331.513
2842.51	331.461
2841.86	346.824
2841.21	369.888
2840.56	315.897
2839.91	288.885
2839.26	327.352
2838.61	254.14
2837.96	250.25
2837.31	223.266
2836.66	207.836
2836.01	219.348
2835.36	180.838
2834.72	176.963
2834.07	219.246
2833.42	149.987
2832.76	149.963
2832.11	176.852
2831.46	138.385
2830.81	103.772
2830.16	146.027
2829.51	92.2134
2828.86	119.09
2828.21	122.913
2827.56	84.4895
2826.91	99.8357
2826.26	99.8201
2825.61	115.159
2824.96	80.5989
2824.3	88.2612
2823.65	72.9001
2823	84.3975
2822.35	80.5487
2821.7	65.1959
2821.04	80.5236
2820.39	84.3449
2819.74	103.498
2819.09	84.3186
2818.44	99.6338
2817.78	107.281
2817.13	88.1101
2816.48	91.9267
2815.83	107.231
2815.17	76.5817
2814.52	68.9128
2813.87	76.5578
2813.21	103.337
2812.56	84.1874
2811.91	72.6959
2811.25	68.8591
2810.6	72.6733
2809.95	87.9592
2809.29	68.8269
2808.64	84.1087
2807.98	76.4505
2807.33	84.0825
2806.68	76.4267
2806.02	68.7733
2805.37	53.482
2804.71	57.2932
2804.06	76.379
2803.4	57.2753
2802.75	49.6309
2802.09	76.3433
2801.44	72.5148
2800.78	61.0556
2800.13	91.5691
2799.47	95.3696
2798.82	61.027
2798.16	110.594
2797.51	80.073
2796.85	102.935
2796.19	72.4244
2795.54	53.357
2794.88	80.023
2794.23	80.0105
2793.57	95.2357
2792.91	91.412
2792.26	68.5483
2791.6	60.9223
2790.94	60.9128
2790.29	76.1292
2789.63	87.5349
2788.97	76.1054
2788.32	106.531
2787.66	76.0816
2787	91.2837
2786.34	60.8463
2785.69	72.2437
2785.03	87.4392
2784.37	72.2211
2783.71	83.6114
2783.06	64.5987
2782.4	94.9833
2781.74	83.5722
2781.08	60.7703
2780.42	68.3559
2779.76	83.5331
2779.11	79.7236
2778.45	75.9154
2777.79	79.6987
2777.13	64.5079
2776.47	110.026
2775.81	83.4548
2775.15	60.6849
2774.49	68.2598
2773.83	87.2073
2773.17	83.4026
2772.51	68.2278
2771.86	75.7968
2771.2	75.785
2770.54	83.3505
2769.88	98.4897
2769.22	90.8993
2768.56	64.377
2767.9	83.2983
2767.23	98.4281
2766.57	64.3468
2765.91	102.182
2765.25	75.6784
2764.59	83.2332
2763.93	68.0892
2763.27	64.2965
2762.61	105.883
2761.95	86.9621
2761.29	75.6074
2760.63	60.4764
2759.96	75.5837
2759.3	86.9077
2758.64	75.5601
2757.98	60.4386
2757.32	79.3132
2756.65	64.1959
2755.99	94.391
2755.33	75.501
2754.67	71.7147
2754.01	75.4773
2753.34	98.1052
2752.68	94.3171
2752.02	71.6698
2751.35	86.7446
2750.69	71.6473
2750.03	98.0284
2749.37	98.013
2748.7	52.768
2748.04	105.519
2747.38	94.199
2746.71	52.7432
2746.05	94.1695
2745.38	101.687
2744.72	90.3744
2744.06	94.1252
2743.39	67.7596
2742.73	101.623
2742.06	82.7913
2741.4	82.7783
2740.73	90.2895
2740.07	94.0368
2739.41	105.305
2738.74	101.528
2738.08	67.6746
2737.41	67.664
2736.75	82.6875
2736.08	67.6428
2735.41	82.6616
2734.75	90.1621
2734.08	108.929
2733.42	82.6227
2732.75	82.6098
2732.09	112.632
2731.42	90.0915
2730.75	78.8177
2730.09	112.579
2729.42	78.7929
2728.76	108.792
2728.09	93.7717
2727.42	90.0067
2726.76	93.7423
2726.09	86.2294
2725.42	119.952
2724.75	112.438
2724.09	131.157
2723.42	108.656
2722.75	131.116
2722.09	93.6393
2721.42	104.86
2720.75	89.8656
2720.08	116.058
2719.41	123.526
2718.75	108.536
2718.08	101.035
2717.41	86.0536
2716.74	119.708
2716.07	108.468
2715.41	104.712
2714.74	115.912
2714.07	130.848
2713.4	82.2346
2712.73	119.595
2712.06	97.1558
2711.39	104.613
2710.72	89.6541
2710.05	89.64
2709.38	104.564
2708.71	112.015
2708.04	100.797
2707.37	111.98
2706.7	119.426
2706.03	85.8241
2705.36	100.734
2704.69	96.988
2704.02	104.432
2703.35	74.5827
2702.68	104.399
2702.01	115.567
2701.34	126.731
2700.67	89.443
2700	78.2503
2699.33	74.5124
2698.66	93.1258
2697.99	115.458
2697.32	104.268
2696.64	78.1888
2695.97	96.79
2695.3	66.9979
2694.63	115.367
2693.96	81.8605
2693.29	89.2884
2692.61	89.2743
2691.94	100.418
2691.27	85.5276
2690.6	115.258
2689.92	96.653
2689.25	89.2041
2688.58	66.8926
2687.91	107.754
2687.23	111.452
2686.56	122.578
2685.89	81.7061
2685.21	103.973
2684.54	100.244
2683.87	103.94
2683.19	103.924
2682.52	92.7748
2681.85	96.4706
2681.17	103.875
2680.5	100.149
2679.82	96.425
2679.15	118.658
2678.48	103.81
2677.8	81.5519
2677.13	100.071
2676.45	111.172
2675.78	100.039
2675.1	85.205
2674.43	92.5996
2673.75	77.7714
2673.08	122.193
2672.4	118.471
2671.73	99.9445
2671.05	77.7224
2670.37	103.614
2669.7	92.4975
2669.02	88.7836
2668.35	110.962
2667.67	103.548
2667	92.4392
2666.32	107.213
2665.64	110.892
2664.97	77.6122
2664.29	125.638
2663.61	88.6717
2662.94	96.0458
2662.26	92.3372
2661.58	96.0155
2660.91	103.385
2660.23	121.827
2659.55	73.8232
2658.87	88.5738
2658.2	103.32
2657.52	77.4776
2656.84	81.1543
2656.16	118.024
2655.49	73.7533
2654.81	106.925
2654.13	117.968
2653.45	88.4621
2652.77	88.4481
2652.09	125.282
2651.42	106.841
2650.74	51.5703
2650.06	95.7583
2649.38	110.473
2648.7	110.455
2648.02	95.713
2647.34	88.3365
2646.66	103.043
2645.98	91.9881
2645.3	77.2578
2644.62	114.029
2643.94	114.011
2643.26	73.544
2642.58	102.945
2641.9	73.5208
2641.22	110.264
2640.54	91.8719
2639.86	84.5088
2639.18	99.1904
2638.5	84.4821
2637.82	106.504
2637.14	95.4714
2636.46	88.1135
2635.78	73.4163
2635.1	80.7452
2634.42	73.3931
2633.73	113.741
2633.05	62.3644
2632.37	69.6904
2631.69	99.018
2631.01	80.6686
2630.33	95.3206
2629.64	95.3055
2628.96	73.3003
2628.28	102.604
2627.6	106.252
2626.91	80.5921
2626.23	95.2302
2625.55	113.526
2624.87	98.8616
2624.18	113.49
2623.5	109.811
2622.82	106.134
2622.13	106.117
2621.45	80.4902
2620.77	87.7936
2620.08	113.382
2619.4	91.4227
2618.72	106.034
2618.03	102.361
2617.35	102.345
2616.67	95.0194
2615.98	116.928
2615.3	98.6428
2614.61	91.3215
2613.93	87.6547
2613.24	98.596
2612.56	120.487
2611.87	94.9142
2611.19	76.6493
2610.5	109.482
2609.82	124.06
2609.13	105.799
2608.45	94.8391
2607.76	109.412
2607.08	113.042
2606.39	120.315
2605.71	116.651
2605.02	80.1849
2604.33	80.1722
2603.65	123.883
2602.96	98.362
2602.27	101.989
2601.59	109.256
2600.9	109.239
2600.21	91.0182
2599.53	101.924
2598.84	94.6289
2598.15	83.6969
2597.47	101.876
2596.78	83.6704
2596.09	87.2944
2595.41	123.647
2594.72	105.447
2594.03	101.795
2593.34	87.239
2592.65	123.569
2591.97	109.014
2591.28	94.464
2590.59	90.8164
2589.9	112.594
2589.21	112.577
2588.52	130.713
2587.84	112.541
2587.15	119.783
2586.46	105.247
2585.77	105.23
2585.08	134.238
2584.39	108.824
2583.7	116.061
2583.01	87.0317
2582.32	112.398
2581.63	101.505
2580.94	97.864
2580.25	112.345
2579.56	101.456
2578.87	79.7031
2578.18	97.8019
2577.49	101.408
2576.8	108.634
2576.11	137.582
2575.42	94.1198
2574.73	112.202
2574.04	108.565
2573.35	108.548
2572.66	75.9716
2571.97	101.279
2571.28	115.729
2570.58	101.247
2569.89	119.308
2569.2	101.215
2568.51	72.2849
2567.82	108.41
2567.13	72.262
2566.43	75.863
2565.74	133.642
2565.05	130.01
2564.36	115.546
2563.66	108.307
2562.97	108.29
2562.28	129.927
2561.59	86.6041
2560.89	97.4142
2560.2	104.613
2559.51	104.597
2558.81	104.58
2558.12	118.986
2557.43	93.7317
2556.73	122.553
2556.04	118.929
2555.35	104.497
2554.65	75.6582
2553.96	111.668
2553.26	100.846
2552.57	82.8242
2551.88	136.818
2551.18	93.5976
2550.49	93.5827
2549.79	100.765
2549.1	97.1511
2548.4	107.928
2547.71	111.508
2547.01	79.1224
2546.32	107.877
2545.62	97.0738
2544.93	125.816
2544.23	111.42
2543.53	132.964
2542.84	100.605
2542.14	129.329
2541.45	104.165
2540.75	111.331
2540.05	100.541
2539.36	136.427
2538.66	107.688
2537.97	111.26
2537.27	114.831
2536.57	111.225
2535.88	100.445
2535.18	96.8422
2534.48	132.689
2533.78	114.739
2533.09	129.061
2532.39	100.365
2531.69	111.101
2530.99	93.1663
2530.3	118.231
2529.6	100.301
2528.9	125.356
2528.2	121.755
2527.5	132.477
2526.81	107.397
2526.11	93.0624
2525.41	132.414
2524.71	103.767
2524.01	128.794
2523.31	114.465
2522.61	132.329
2521.91	100.125
2521.21	132.287
2520.52	128.691
2519.82	121.522
2519.12	110.782
2518.42	121.484
2517.72	103.602
2517.02	142.876
2516.32	135.711
2515.62	128.548
2514.92	128.527
2514.22	132.076
2513.52	124.917
2512.82	96.3493
2512.11	110.606
2511.41	114.155
2510.71	99.87
2510.01	128.384
2509.31	124.798
2508.61	117.648
2507.91	117.629
2507.21	85.5345
2506.5	85.5209
2505.8	121.135
2505.1	78.3691
2504.4	106.85
2503.7	92.5884
2503	103.255
2502.29	121.039
2501.59	131.697
2500.89	106.765
2500.19	103.189
2499.48	135.192
2498.78	128.056
2498.08	120.923
2497.37	110.235
2496.67	120.884
2495.97	117.31
2495.26	142.171
2494.56	124.38
2493.86	131.466
2493.15	127.892
2492.45	120.768
2491.75	142.057
2491.04	134.933
2490.34	92.3077
2489.63	141.989
2488.93	120.672
2488.22	127.749
2487.52	127.729
2486.81	106.424
2486.11	145.423
2485.41	127.668
2484.7	85.0982
2483.99	124.082
2483.29	152.419
2482.58	99.2336
2481.88	120.479
2481.17	92.116
2480.47	134.61
2479.76	106.254
2479.06	148.731
2478.35	127.464
2477.64	145.144
2476.94	148.66
2476.23	106.169
2475.52	123.844
2474.82	155.664
2474.11	113.192
2473.4	123.784
2472.7	141.445
2471.99	123.745
2471.28	102.515
2470.57	123.705
2469.87	134.287
2469.16	127.199
2468.45	123.645
2467.74	116.561
2467.04	109.48
2466.33	102.4
2465.62	116.505
2464.91	130.606
2464.2	137.644
2463.5	134.093
2462.79	116.431
2462.08	126.995
2461.37	112.866
2460.66	144.587
2459.95	123.408
2459.24	119.863
2458.53	158.617
2457.82	137.446
2457.11	116.282
2456.4	137.402
2455.69	130.334
2454.99	133.836
2454.28	137.336
2453.57	130.272
2452.85	109.129
2452.14	126.71
2451.43	126.69
2450.72	112.595
2450.01	133.685
2449.3	123.112
2448.59	101.99
2447.88	119.556
2447.17	147.663
2446.46	133.578
2445.75	115.984
2445.04	122.993
2444.32	133.514
2443.61	137.005
2442.9	122.934
2442.19	147.497
2441.48	126.406
2440.76	122.875
2440.05	126.365
2439.34	150.912
2438.63	112.289
2437.92	122.796
2437.2	136.808
2436.49	133.278
2435.78	136.764
2435.06	164.791
2434.35	136.72
2433.64	112.162
2432.92	115.649
2432.21	133.15
2431.5	140.135
2430.78	129.604
2430.07	122.579
2429.36	143.57
2428.64	126.041
2427.93	115.519
2427.21	140
2426.5	111.982
2425.78	136.457
2425.07	171.418
2424.35	118.924
2423.64	164.368
2422.92	122.382
2422.21	136.347
2421.49	143.316
2420.78	146.788
2420.06	150.259
2419.35	139.753
2418.63	125.758
2417.92	143.201
2417.2	129.209
2416.48	150.138
2415.77	171.06
2415.05	125.656
2414.34	150.065
2413.62	139.573
2412.9	111.641
2412.19	129.064
2411.47	125.555
2410.75	142.971
2410.04	125.515
2409.32	139.439
2408.6	111.533
2407.88	135.909
2407.17	146.34
2406.45	121.93
2405.73	177.641
2405.01	125.374
2404.29	132.318
2403.58	139.259
2402.86	125.313
2402.14	146.175
2401.42	132.232
2400.7	153.087
2399.98	156.541
2399.27	125.212
2398.55	132.147
2397.83	166.896
2397.11	128.628
2396.39	145.987
2395.67	159.865
2394.95	138.99
2394.23	180.658
2393.51	131.998
2392.79	121.558
2392.07	152.791
2391.35	152.766
2390.63	131.913
2389.91	121.479
2389.19	135.341
2388.47	124.91
2387.75	121.421
2387.03	156.087
2386.31	145.658
2385.59	104.025
2384.87	173.346
2384.14	138.655
2383.42	180.222
2382.7	135.145
2381.98	162.841
2381.26	166.278
2380.54	138.543
2379.82	110.817
2379.09	141.961
2378.37	135.014
2377.65	145.376
2376.93	152.274
2376.2	155.71
2375.48	110.709
2374.76	145.283
2374.04	141.801
2373.31	172.9
2372.59	155.585
2371.87	148.646
2371.14	155.534
2370.42	120.952
2369.7	158.939
2368.97	134.731
2368.25	131.255
2367.52	158.862
2366.8	158.837
2366.08	162.263
2365.35	151.882
2364.63	144.955
2363.9	158.734
2363.18	148.358
2362.45	151.784
2361.73	151.759
2361	134.492
2360.28	175.846
2359.55	168.923
2358.83	165.448
2358.1	137.851
2357.38	144.721
2356.65	179.149
2355.93	175.675
2355.2	175.647
2354.47	168.732
2353.75	158.375
2353.02	141.138
2352.3	206.51
2351.57	161.74
2350.84	178.917
2350.12	172.008
2349.39	165.101
2348.66	134.123
2347.94	147.855
2347.21	171.897
2346.48	164.994
2345.75	168.405
2345.03	147.76
2344.3	140.864
2343.57	127.101
2342.84	161.426
2342.11	175.137
2341.39	164.808
2340.66	154.482
2339.93	175.052
2339.2	168.16
2338.47	150.976
2337.74	161.244
2337.02	171.508
2336.29	174.91
2335.56	120.017
2334.83	154.282
2334.1	164.541
2333.37	161.087
2332.64	150.781
2331.91	133.625
2331.18	137.029
2330.45	143.857
2329.72	174.655
2328.99	178.051
2328.26	198.563
2327.53	174.57
2326.8	164.275
2326.07	140.295
2325.34	184.749
2324.61	188.14
2323.88	171.009
2323.14	133.365
2322.41	160.696
2321.68	136.741
2320.95	184.57
2320.22	170.87
2319.49	133.257
2318.76	167.399
2318.02	150.293
2317.29	184.42
2316.56	160.488
2315.83	187.775
2315.1	170.677
2314.36	170.649
2313.63	146.734
2312.9	167.182
2312.16	163.743
2311.43	167.128
2310.7	177.331
2309.97	180.712
2309.23	153.41
2308.5	167.019
2307.76	173.808
2307.03	163.558
2306.3	166.938
2305.56	204.381
2304.83	153.261
2304.1	183.883
2303.36	177.044
2302.63	187.227
2301.89	170.179
2301.16	173.554
2300.42	183.734
2299.69	187.106
2298.95	173.47
2298.22	163.239
2297.48	166.613
2296.75	173.385
2296.01	186.954
2295.28	173.329
2294.54	176.699
2293.8	166.478
2293.07	173.245
2292.33	156.235
2291.6	200.355
2290.86	176.556
2290.12	162.948
2289.39	176.498
2288.65	176.47
2287.91	193.406
2287.18	196.768
2286.44	169.6
2285.7	162.789
2284.97	186.499
2284.23	206.811
2283.49	169.489
2282.75	189.797
2282.01	182.989
2281.28	203.288
2280.54	182.93
2279.8	182.9
2279.06	169.324
2278.32	206.542
2277.59	196.352
2276.85	199.705
2276.11	230.131
2275.37	189.489
2274.63	186.075
2273.89	189.427
2273.15	229.982
2272.41	175.84
2271.67	179.192
2270.93	175.782
2270.19	192.653
2269.45	168.967
2268.71	182.454
2267.97	192.559
2267.23	165.506
2266.49	189.119
2265.75	212.725
2265.01	178.93
2264.27	195.778
2263.53	199.121
2262.79	182.217
2262.05	195.682
2261.31	168.664
2260.57	185.501
2259.83	195.587
2259.09	242.758
2258.34	205.636
2257.6	192.121
2256.86	192.09
2256.12	165.103
2255.38	215.609
2254.63	188.627
2253.89	198.7
2253.15	202.035
2252.41	232.302
2251.66	201.969
2250.92	201.936
2250.18	215.363
2249.43	174.954
2248.69	181.654
2247.95	195.078
2247.21	164.78
2246.46	191.652
2245.72	198.344
2244.97	188.228
2244.23	178.115
2243.49	168.006
2242.74	188.136
2242	178.028
2241.25	184.716
2240.51	194.76
2239.76	181.299
2239.02	218.194
2238.27	161.102
2237.53	167.787
2236.78	197.956
2236.04	197.924
2235.29	184.475
2234.55	224.688
2233.8	201.18
2233.06	217.91
2232.31	184.355
2231.57	180.974
2230.82	157.488
2230.07	207.717
2229.33	207.683
2228.58	164.11
2227.83	184.175
2227.09	174.1
2226.34	200.852
2225.59	217.554
2224.85	244.29
2224.1	210.791
2223.35	197.376
2222.6	197.343
2221.86	247.475
2221.11	237.403
2220.36	213.963
2219.61	177.159
2218.87	193.84
2218.12	210.516
2217.37	200.459
2216.62	170.362
2215.87	220.433
2215.12	213.718
2214.37	243.732
2213.63	200.295
2212.88	183.574
2212.13	200.23
2211.38	200.197
2210.63	216.845
2209.88	216.809
2209.13	233.449
2208.38	213.404
2207.63	220.037
2206.88	206.667
2206.13	229.963
2205.38	199.935
2204.63	213.229
2203.88	219.857
2203.13	213.16
2202.38	226.445
2201.63	209.76
2200.88	219.713
2200.12	223.006
2199.37	232.953
2198.62	206.296
2197.87	226.223
2197.12	232.838
2196.37	216.172
2195.62	206.161
2194.86	192.829
2194.11	206.093
2193.36	212.707
2192.61	222.641
2191.85	199.347
2191.1	192.671
2190.35	219.21
2189.6	235.778
2188.84	215.818
2188.09	262.259
2187.34	209.109
2186.58	192.482
2185.83	212.359
2185.08	238.864
2184.32	222.24
2183.57	218.887
2182.82	225.483
2182.06	198.923
2181.31	235.354
2180.55	205.487
2179.8	182.257
2179.04	258.431
2178.29	195.448
2177.53	208.664
2176.78	218.565
2176.02	228.462
2175.27	211.872
2174.51	205.217
2173.76	228.35
2173	228.312
2172.25	224.967
2171.49	228.237
2170.74	261.272
2169.98	241.389
2169.22	218.207
2168.47	231.393
2167.71	251.186
2166.95	228.013
2166.2	218.064
2165.44	231.242
2164.68	208.083
2163.93	244.375
2163.17	270.75
2162.41	201.378
2161.65	237.653
2160.9	224.414
2160.14	214.478
2159.38	211.144
2158.62	204.512
2157.87	217.67
2157.11	214.337
2156.35	263.756
2155.59	273.602
2154.83	197.752
2154.07	207.606
2153.31	204.277
2152.56	240.48
2151.8	237.147
2151.04	246.987
2150.28	210.728
2149.52	197.525
2148.76	217.242
2148	230.37
2147.24	230.332
2146.48	207.265
2145.72	210.52
2144.96	220.352
2144.2	217.028
2143.44	240.006
2142.68	187.371
2141.92	223.494
2141.16	256.319
2140.4	233.277
2139.64	236.524
2138.87	272.615
2138.11	243.014
2137.35	246.258
2136.59	236.369
2135.83	233.047
2135.07	249.418
2134.31	229.69
2133.54	216.529
2132.78	223.054
2132.02	259.093
2131.26	232.818
2130.49	259.008
2129.73	265.521
2128.97	245.813
2128.21	209.726
2127.44	209.691
2126.68	212.933
2125.92	265.303
2125.15	245.611
2124.39	242.296
2123.63	238.982
2122.86	245.489
2122.1	255.267
2121.33	232.32
2120.57	268.269
2119.81	212.617
2119.04	245.287
2118.28	238.707
2117.51	215.782
2116.75	212.477
2115.98	205.906
2115.22	241.818
2114.45	248.312
2113.69	218.871
2112.92	231.9
2112.16	231.861
2111.39	228.558
2110.62	264.431
2109.86	228.483
2109.09	238.236
2108.33	277.352
2107.56	254.469
2106.79	280.522
2106.03	221.772
2105.26	238.039
2104.49	251.041
2103.73	228.182
2102.96	208.589
2102.19	241.141
2101.42	276.941
2100.66	254.092
2099.89	231.251
2099.12	286.573
2098.35	244.198
2097.59	231.136
2096.82	279.922
2096.05	244.078
2095.28	247.291
2094.51	260.264
2093.74	276.484
2092.98	263.43
2092.21	295.903
2091.44	269.845
2090.67	256.798
2089.9	269.756
2089.13	256.714
2088.36	266.418
2087.59	295.61
2086.82	266.33
2086.05	302.008
2085.28	279.23
2084.51	243.474
2083.74	262.909
2082.97	243.394
2082.2	269.311
2081.43	230.337
2080.66	275.71
2079.89	252.962
2079.12	246.435
2078.35	285.299
2077.57	265.803
2076.8	265.759
2076.03	233.311
2075.26	268.911
2074.49	272.106
2073.72	268.822
2072.94	259.063
2072.17	249.307
2071.4	271.926
2070.63	252.461
2069.86	291.253
2069.08	297.676
2068.31	271.747
2067.54	249.06
2066.76	294.295
2065.99	291.013
2065.22	287.732
2064.44	261.825
2063.67	235.927
2062.9	287.589
2062.12	284.311
2061.35	268.112
2060.58	245.46
2059.8	232.502
2059.03	235.692
2058.25	293.76
2057.48	284.028
2056.7	274.3
2055.93	245.216
2055.15	287.113
2054.38	225.782
2053.6	277.344
2052.83	257.951
2052.05	257.909
2051.28	277.206
2050.5	251.378
2049.72	280.337
2048.95	322.173
2048.17	267.359
2047.4	299.521
2046.62	289.811
2045.84	276.885
2045.07	302.592
2044.29	267.138
2043.51	254.221
2042.74	244.527
2041.96	273.439
2041.18	286.259
2040.4	292.643
2039.63	302.241
2038.85	286.117
2038.07	289.284
2037.29	282.808
2036.52	263.482
2035.74	298.778
2034.96	298.728
2034.18	260.14
2033.4	272.941
2032.62	288.948
2031.84	269.64
2031.07	298.481
2030.29	301.64
2029.51	298.382
2028.73	285.501
2027.95	301.49
2027.17	307.854
2026.39	294.978
2025.61	301.34
2024.83	294.88
2024.05	269.193
2023.27	310.803
2022.49	278.715
2021.71	288.278
2020.93	262.61
2020.15	288.182
2019.37	316.948
2018.59	291.288
2017.8	304.041
2017.02	284.791
2016.24	300.741
2015.46	329.481
2014.68	271.856
2013.9	326.173
2013.11	278.16
2012.33	313.278
2011.55	316.422
2010.77	316.37
2009.99	316.317
2009.2	313.07
2008.42	325.794
2007.64	316.16
2006.85	306.528
2006.07	306.477
2005.29	319.194
2004.5	309.567
2003.72	296.752
2002.94	293.512
2002.15	338.121
2001.37	318.929
2000.59	283.8
1999.8	296.505
1999.02	318.77
1998.23	315.53
1997.45	289.984
1996.66	315.425
1995.88	328.115
1995.09	328.06
1994.31	292.976
1993.52	280.191
1992.74	321.53
1991.95	315.11
1991.17	311.876
1990.38	311.824
1989.6	305.409
1988.81	302.178
1988.02	349.832
1987.24	327.515
1986.45	324.281
1985.67	321.049
1984.88	305.105
1984.09	330.475
1983.3	295.472
1982.52	295.422
1981.73	330.31
1980.94	323.904
1980.16	330.2
1979.37	257.132
1978.58	355.482
1977.79	330.035
1977.01	295.078
1976.22	358.476
1975.43	314.011
1974.64	371.042
1973.85	317.077
1973.06	339.216
1972.27	323.311
1971.49	332.765
1970.7	342.215
1969.91	361.167
1969.12	361.107
1968.33	323.042
1967.54	322.988
1966.75	313.436
1965.96	364.032
1965.17	316.497
1964.38	354.417
1963.59	341.703
1962.8	385.933
1962.01	328.937
1961.22	347.856
1960.43	316.18
1959.64	341.418
1958.85	360.326
1958.06	341.304
1957.26	331.768
1956.47	347.509
1955.68	337.975
1954.89	353.709
1954.1	341.02
1953.31	369.376
1952.51	378.784
1951.72	353.473
1950.93	325.015
1950.14	350.2
1949.34	353.296
1948.55	359.545
1947.76	334.258
1946.97	321.591
1946.17	334.146
1945.38	330.939
1944.59	340.337
1943.79	374.939
1943	359.125
1942.21	352.766
1941.41	393.646
1940.62	349.499
1939.82	346.293
1939.03	377.711
1938.24	377.648
1937.44	402.757
1936.65	342.916
1935.85	402.623
1935.06	396.265
1934.26	386.766
1933.47	399.277
1932.67	367.776
1931.88	352.001
1931.08	355.084
1930.28	361.308
1929.49	383.237
1928.69	398.877
1927.9	351.707
1927.1	392.464
1926.3	364.146
1925.51	338.976
1924.71	373.438
1923.91	354.55
1923.12	341.943
1922.32	360.705
1921.52	382.597
1920.73	369.991
1919.93	360.524
1919.13	366.733
1918.33	388.609
1917.53	394.811
1916.74	385.346
1915.94	385.282
1915.14	375.822
1914.34	378.89
1913.54	356.911
1912.74	403.805
1911.95	363.051
1911.15	372.378
1910.35	362.93
1909.55	356.613
1908.75	409.723
1907.95	359.62
1907.15	387.7
1906.35	387.635
1905.55	450.081
1904.75	365.63
1903.95	399.938
1903.15	396.747
1902.35	377.94
1901.55	437.213
1900.75	330.977
1899.95	383.994
1899.15	424.507
1898.35	383.865
1897.54	399.402
1896.74	408.695
1895.94	439.819
1895.14	380.489
1894.34	377.307
1893.54	411.539
1892.73	395.884
1891.93	389.584
1891.13	398.867
1890.33	423.726
1889.53	433
1888.72	364.406
1887.92	386.144
1887.12	454.577
1886.31	423.37
1885.51	457.537
1884.71	451.236
1883.9	420.046
1883.1	410.643
1882.3	351.476
1881.49	413.615
1880.69	397.999
1879.88	404.15
1879.08	438.273
1878.28	369.828
1877.47	431.912
1876.67	413.199
1875.86	453.51
1875.06	428.589
1874.25	363.308
1873.45	400.503
1872.64	378.706
1871.84	391.057
1871.03	459.26
1870.22	431.26
1869.42	443.596
1868.61	455.927
1867.81	443.447
1867	434.071
1866.19	393.698
1865.39	427.726
1864.58	446.248
1863.77	436.878
1862.97	436.804
1862.16	436.731
1861.35	405.689
1860.54	433.488
1859.74	399.361
1858.93	455.009
1858.12	488.975
1857.31	451.762
1856.51	405.28
1855.7	411.398
1854.89	436.071
1854.08	405.076
1853.27	463.749
1852.46	414.213
1851.65	429.596
1850.84	444.975
1850.04	457.258
1849.23	413.934
1848.42	454.016
1847.61	478.644
1846.8	401.376
1845.99	426.004
1845.18	425.932
1844.37	425.861
1843.56	428.874
1842.75	419.547
1841.94	441.068
1841.13	437.91
1840.31	459.419
1839.5	456.259
1838.69	459.265
1837.88	480.76
1837.07	409.81
1836.26	440.548
1835.45	483.597
1834.64	446.559
1833.82	449.563
1833.01	440.252
1832.2	403.24
1831.39	495.501
1830.57	400.027
1829.76	449.185
1828.95	446.033
1828.14	436.731
1827.32	402.832
1826.51	424.286
1825.7	470.325
1824.88	467.172
1824.07	507.042
1823.26	414.783
1822.44	451.576
1821.63	454.572
1820.81	497.488
1820	475.911
1819.19	481.971
1818.37	469.612
1817.56	457.258
1816.74	481.727
1815.93	472.442
1815.11	521.439
1814.3	475.35
1813.48	493.667
1812.67	450.664
1811.85	521.088
1811.03	484.223
1810.22	474.949
1809.4	490.187
1808.59	471.726
1807.77	441.02
1806.95	496.064
1806.14	480.672
1805.32	480.591
1804.5	440.722
1803.69	480.429
1802.87	458.931
1802.05	501.68
1801.24	556.648
1800.42	480.104
1799.6	504.483
1798.78	437.145
1797.96	492.087
1797.15	492.004
1796.33	476.644
1795.51	479.618
1794.69	464.265
1793.87	500.833
1793.05	500.749
1792.23	500.664
1791.42	500.579
1790.6	515.754
1789.78	469.898
1788.96	475.92
1788.14	488.04
1787.32	503.206
1786.5	484.826
1785.68	503.036
1784.86	472.47
1784.04	496.771
1783.22	493.64
1782.4	472.23
1781.58	505.658
1780.76	514.709
1779.93	502.442
1779.11	468.866
1778.29	505.316
1777.47	493.056
1776.65	520.36
1775.83	495.932
1775.01	489.764
1774.18	468.391
1773.36	523.049
1772.54	519.92
1771.72	525.912
1770.89	513.665
1770.07	510.539
1769.25	510.453
1768.43	565.049
1767.6	498.131
1766.78	452.493
1765.96	504.035
1765.13	506.985
1764.31	482.617
1763.49	512.883
1762.66	518.865
1761.84	485.406
1761.01	479.257
1760.19	506.471
1759.36	533.675
1758.54	527.521
1757.72	527.432
1756.89	494.005
1756.07	545.434
1755.24	542.312
1754.41	530.104
1753.59	542.129
1752.76	560.205
1751.94	563.138
1751.11	526.717
1750.29	565.974
1749.46	553.774
1748.63	559.731
1747.81	535.436
1746.98	517.198
1746.15	556.422
1745.33	550.281
1744.5	553.211
1743.67	631.702
1742.85	583.243
1742.02	571.058
1741.19	640.443
1740.36	652.417
1739.54	588.887
1738.71	618.982
1737.88	576.612
1737.05	621.79
1736.22	567.363
1735.39	687.961
1734.57	663.71
1733.74	675.663
1732.91	642.374
1732.08	648.295
1731.25	696.422
1730.42	732.476
1729.59	705.227
1728.76	729.214
1727.93	732.103
1727.1	771.138
1726.27	767.995
1725.44	855.191
1724.61	846.013
1723.78	749.543
1722.95	734.367
1722.12	734.242
1721.29	676.953
1720.46	685.862
1719.62	679.73
1718.79	673.601
1717.96	655.446
1717.13	658.341
1716.3	637.19
1715.47	589
1714.63	633.969
1713.8	618.841
1712.97	627.746
1712.14	603.615
1711.31	591.502
1710.47	603.41
1709.64	585.298
1708.81	609.207
1707.97	573.097
1707.14	612
1706.31	605.897
1705.47	617.789
1704.64	602.692
1703.81	593.596
1702.97	653.444
1702.14	584.403
1701.3	587.3
1700.47	587.2
1699.63	542.169
1698.8	589.995
1697.96	610.855
1697.13	562.849
1696.29	586.701
1695.46	550.686
1694.62	604.455
1693.79	646.238
1692.95	589.293
1692.12	586.202
1691.28	624.976
1690.44	600.951
1689.61	591.881
1688.77	609.713
1687.93	573.75
1687.1	579.627
1686.26	591.478
1685.42	609.297
1684.59	627.111
1683.75	576.247
1682.91	608.986
1682.07	587.989
1681.24	572.968
1680.4	557.952
1679.56	602.605
1678.72	596.537
1677.88	605.382
1677.05	632.113
1676.21	581.326
1675.37	649.782
1674.53	584.108
1673.69	610.825
1672.85	634.554
1672.01	571.895
1671.17	601.578
1670.33	604.453
1669.49	574.579
1668.65	607.224
1667.81	622.001
1666.97	612.968
1666.13	639.639
1665.29	562.191
1664.45	571.018
1663.61	672.021
1662.77	615.418
1661.93	633.148
1661.09	597.376
1660.25	609.16
1659.4	617.969
1658.56	668.362
1657.72	611.818
1656.88	596.867
1656.04	602.703
1655.19	629.316
1654.35	655.92
1653.51	646.906
1652.67	637.895
1651.82	605.155
1650.98	590.222
1650.14	658.326
1649.3	607.81
1648.45	652.172
1647.61	574.999
1646.77	622.315
1645.92	681.467
1645.08	684.313
1644.23	657.539
1643.39	722.577
1642.54	710.61
1641.7	648.321
1640.86	719.247
1640.01	630.343
1639.17	689.412
1638.32	662.669
1637.48	718.755
1636.63	656.528
1635.78	697.812
1634.94	756.819
1634.09	712.352
1633.25	664.945
1632.4	712.108
1631.56	652.901
1630.71	703.003
1629.86	679.257
1629.02	738.196
1628.17	652.454
1627.32	702.523
1626.47	714.207
1625.63	737.691
1624.78	770.018
1623.93	707.941
1623.09	772.704
1622.24	722.443
1621.39	804.87
1620.54	792.941
1619.69	839.961
1618.84	875.178
1618	928.06
1617.15	1057.51
1616.3	1139.8
1615.45	1121.93
1614.6	1201.24
1613.75	1195.14
1612.9	1256.75
1612.05	1262.42
1611.2	1303.39
1610.35	1206.09
1609.5	1244.12
1608.65	1176.27
1607.8	1120.21
1606.95	1149.41
1606.1	1061.04
1605.25	1093.18
1604.4	1113.56
1603.55	1107.5
1602.7	1130.8
1601.85	1136.48
1600.99	1068.76
1600.14	1103.8
1599.29	1006.75
1598.44	1006.58
1597.59	1003.47
1596.74	979.832
1595.88	909.269
1595.03	935.506
1594.18	932.414
1593.32	835.51
1592.47	876.403
1591.62	876.252
1590.77	873.172
1589.91	808.571
1589.06	828.936
1588.21	831.722
1587.35	814.011
1586.5	825.581
1585.64	807.877
1584.79	801.885
1583.93	833.935
1583.08	784.057
1582.23	769.296
1581.37	807.184
1580.52	818.742
1579.66	780.595
1578.81	800.922
1577.95	736.488
1577.09	786.037
1576.24	823.882
1575.38	777.003
1574.53	776.87
1573.67	785.497
1572.81	732.81
1571.96	788.146
1571.1	811.359
1570.24	770.367
1569.39	746.894
1568.53	761.351
1567.67	816.634
1566.82	729.012
1565.96	758.043
1565.1	804.553
1564.24	839.389
1563.39	763.48
1562.53	775.003
1561.67	859.348
1560.81	780.561
1559.95	893.997
1559.09	759.912
1558.23	852.935
1557.38	878.983
1556.52	808.991
1555.66	861.223
1554.8	846.53
1553.94	837.658
1553.08	889.859
1552.22	851.908
1551.36	927.344
1550.5	930.091
1549.64	880.528
1548.78	886.188
1547.92	868.605
1547.06	914.928
1546.2	964.139
1545.34	929.131
1544.47	981.226
1543.61	937.519
1542.75	893.827
1541.89	995.226
1541.03	980.55
1540.17	1073.2
1539.3	1116.51
1538.44	1200.41
1537.58	1165.41
1536.72	1255.07
1535.85	1307.01
1534.99	1541.49
1534.13	1604.96
1533.27	1868.27
1532.4	2125.69
1531.54	2574.14
1530.68	3158.49
1529.81	3893.16
1528.95	4616
1528.08	4910.35
1527.22	4935.54
1526.36	4416.92
1525.49	3456
1524.63	2668.9
1523.76	2191.42
1522.9	1734.33
1522.03	1476.82
1521.17	1308.97
1520.3	1172.96
1519.44	1126.54
1518.57	1120.57
1517.7	1056.85
1516.84	964.279
1515.97	987.205
1515.11	906.225
1514.24	949.352
1513.37	900.142
1512.51	914.41
1511.64	928.672
1510.77	940.046
1509.91	951.416
1509.04	879.187
1508.17	899.21
1507.3	901.937
1506.44	904.662
1505.57	921.789
1504.7	1002.27
1503.83	941.628
1502.96	1004.81
1502.09	967.21
1501.23	967.043
1500.36	1012.92
1499.49	952.323
1498.62	1029.83
1497.75	1035.4
1496.88	1075.48
1496.01	1014.92
1495.14	1043.49
1494.27	1095.04
1493.4	1149.45
1492.53	1111.9
1491.66	1100.22
1490.79	1062.69
1489.92	1065.38
1489.05	1154.2
1488.18	1182.71
1487.31	1070.57
1486.44	1213.87
1485.56	1127.58
1484.69	1167.55
1483.82	1075.56
1482.95	1106.92
1482.08	1080.93
1481.21	1158.14
1480.33	1049.02
1479.46	1077.5
1478.59	991.357
1477.72	1068.53
1476.84	1088.4
1475.97	1036.66
1475.1	1065.11
1474.22	1001.95
1473.35	1047.57
1472.48	990.156
1471.6	984.262
1470.73	1107.1
1469.85	1043.99
1468.98	1023.79
1468.11	1086.51
1467.23	980.551
1466.36	1046.12
1465.48	1097.38
1464.61	1100.05
1463.73	1122.71
1462.86	1168.22
1461.98	1108.04
1461.11	1127.84
1460.23	1147.63
1459.35	1207.37
1458.48	1175.77
1457.6	1209.8
1456.73	1203.89
1455.85	1255.02
1454.97	1277.62
1454.1	1417.11
1453.22	1602.17
1452.34	1784.31
1451.46	2029.09
1450.59	2185.45
1449.71	2167.98
1448.83	1999.55
1447.95	1799.85
1447.08	1600.22
1446.2	1443.37
1445.32	1374.8
1444.44	1297.73
1443.56	1328.8
1442.68	1260.29
1441.81	1362.47
1440.93	1348.02
1440.05	1288.07
1439.17	1287.85
1438.29	1381.42
1437.41	1281.72
1436.53	1295.7
1435.65	1281.27
1434.77	1190.15
1433.89	1172.91
1433.01	1209.62
1432.13	1146.95
1431.25	1138.23
1430.37	1123.85
1429.48	1166.21
1428.6	1180.2
1427.72	1168.65
1426.84	1145.75
1425.96	1029.3
1425.08	1097.16
1424.19	1006.26
1423.31	1076.94
1422.43	1042.75
1421.55	994.407
1420.67	1082.04
1419.78	1067.7
1418.9	1067.51
1418.02	1036.18
1417.13	1126.58
1416.25	1075.44
1415.37	1143.17
1414.48	1128.82
1413.6	1072.05
1412.71	1091.66
1411.83	1034.92
1410.95	1020.61
1410.06	1017.6
1409.18	1020.25
1408.29	983.339
1407.41	1031.2
1406.52	982.997
1405.64	968.705
1404.75	988.302
1403.87	931.666
1402.98	951.263
1402.1	982.142
1401.21	959.397
1400.32	883.056
1399.44	942.138
1398.55	930.693
1397.66	953.089
1396.78	950.104
1395.89	921.75
1395	910.317
1394.12	955.243
1393.23	921.269
1392.34	878.856
1391.45	898.417
1390.57	951.762
1389.68	920.627
1388.79	968.32
1387.9	911.863
1387.01	1015.82
1386.12	1010.01
1385.24	964.832
1384.35	992.788
1383.46	972.931
1382.57	1012.12
1381.68	1031.62
1380.79	1006.15
1379.9	1062.17
1379.01	1061.99
1378.12	1078.66
1377.23	1072.85
1376.34	1120.4
1375.45	1038.79
1374.56	1232.29
1373.67	1125.43
1372.78	1158.9
1371.89	1150.28
1370.99	1265.09
1370.1	1225.61
1369.21	1245.02
1368.32	1272.84
1367.43	1323.07
1366.54	1362.08
1365.64	1451.51
1364.75	1473.67
1363.86	1428.6
1362.97	1419.94
1362.07	1321.69
1361.18	1257.07
1360.29	1240.05
1359.39	1251.03
1358.5	1206.04
1357.61	1233.81
1356.71	1166.46
1355.82	1079.55
1354.93	1087.75
1354.03	1109.93
1353.14	1053.83
1352.24	1087.18
1351.35	1140.08
1350.45	1159.44
1349.56	1145.27
1348.66	1234.44
1347.77	1220.27
1346.87	1345.69
1345.98	1476.65
1345.08	1819.67
1344.18	2131.88
1343.29	2616.96
1342.39	2976.34
1341.5	3003.71
1340.6	3025.49
1339.7	2966.41
1338.81	2848.82
1337.91	2689.46
1337.01	2351.82
1336.11	2139.67
1335.22	1910.88
1334.32	1696.1
1333.42	1422.91
1332.52	1355.85
1331.63	1333.34
1330.73	1324.76
1329.83	1232.7
1328.93	1229.7
1328.03	1196.11
1327.13	1265.43
1326.23	1293.01
1325.33	1234.4
1324.43	1228.63
1323.53	1200.62
1322.64	1233.75
1321.74	1169.64
1320.84	1169.43
1319.94	1188.67
1319.03	1163.47
1318.13	1202.13
1317.23	1088.11
1316.33	1137.88
1315.43	1173.75
1314.53	1217.94
1313.63	1165.02
1312.73	1220.28
1311.83	1261.66
1310.92	1364.02
1310.02	1377.64
1309.12	1521.51
1308.22	1609.92
1307.32	1545.91
1306.41	1637.05
1305.51	1548.14
1304.61	1572.79
1303.71	1470.08
1302.8	1431.07
1301.9	1469.56
1301	1433.34
1300.09	1391.59
1299.19	1394.11
1298.28	1385.57
1297.38	1357.67
1296.48	1534.37
1295.57	1641.9
1294.67	1655.43
1293.76	1597.11
1292.86	1491.85
1291.95	1441.87
1291.05	1333.91
1290.14	1256.36
1289.24	1280.99
1288.33	1189.67
1287.42	1197.74
1286.52	1136.83
1285.61	1142.15
1284.71	1122.64
1283.8	1092.11
1282.89	1100.19
1281.99	1075.18
1281.08	1047.43
1280.17	1094.09
1279.26	1102.17
1278.36	1115.75
1277.45	1071.48
1276.54	1090.57
1275.63	1051.83
1274.72	1079.18
1273.82	1076.23
1272.91	1098.06
1272	1037.33
1271.09	1100.43
1270.18	1061.72
1269.27	1047.79
1268.36	1086.1
1267.45	1085.91
1266.54	1110.45
1265.64	1132.24
1264.73	1178.75
1263.82	1142.83
1262.91	1123.41
1261.99	1128.7
1261.08	1112.03
1260.17	1150.26
1259.26	996.355
1258.35	1037.34
1257.44	1034.42
1256.53	962.909
1255.62	965.482
1254.71	995.478
1253.79	1011.75
1252.88	981.421
1251.97	962.061
1251.06	950.93
1250.15	1024.74
1249.23	945.116
1248.32	969.601
1247.41	1024.2
1246.49	947.355
1245.58	1026.58
1244.67	1026.4
1243.75	1045.37
1242.84	946.688
1241.93	1014.91
1241.01	1012
1240.1	1074.72
1239.18	1052.65
1238.27	1047
1237.35	1060.48
1236.44	1134.08
1235.53	1043.71
1234.61	1018.94
1233.69	1070.66
1232.78	1048.62
1231.86	1127.62
1230.95	1075.55
1230.03	1110.84
1229.12	1197.97
1228.2	1121.37
1227.28	1132.08
1226.37	1101.88
1225.45	1161.68
1224.53	1218.73
1223.62	1153.09
1222.7	1231.92
1221.78	1174.48
1220.86	1288.7
1219.95	1326.61
1219.03	1340
1218.11	1380.61
1217.19	1344.97
1216.27	1374.68
1215.35	1423.42
1214.44	1311.6
1213.52	1330.42
1212.6	1351.94
1211.68	1234.76
1210.76	1286.2
1209.84	1193.54
1208.92	1261.28
1208	1269.22
1207.08	1271.71
1206.16	1295.94
1205.24	1279.41
1204.32	1173.26
1203.4	1137.75
1202.48	1208.14
1201.56	1240.5
1200.64	1253.85
1199.71	1191.22
1198.79	1231.7
1197.87	1266.75
1196.95	1323.48
1196.03	1323.24
1195.1	1377.23
1194.18	1444.75
1193.26	1393.01
1192.34	1319.6
1191.41	1357.29
1190.49	1278.5
1189.57	1262.03
1188.65	1307.83
1187.72	1283.24
1186.8	1304.66
1185.87	1363.97
1184.95	1428.67
1184.03	1401.36
1183.1	1376.77
1182.18	1357.6
1181.25	1511.48
1180.33	1349.01
1179.4	1340.66
1178.48	1275.56
1177.55	1110.52
1176.63	1183.26
1175.7	1110.12
1174.78	1128.83
1173.85	1117.83
1172.92	1052.84
1172	1176.81
1171.07	1149.62
1170.15	1127.83
1169.22	1130.33
1168.29	1060
1167.36	1094.87
1166.44	1094.68
1165.51	1048.65
1164.58	1053.86
1163.65	1026.72
1162.73	1072.35
1161.8	1126.03
1160.87	1058.5
1159.94	1077.16
1159.01	1122.74
1158.08	1095.62
1157.16	1055.06
1156.23	1097.93
1155.3	1092.35
1154.37	1030.28
1153.44	1075.82
1152.51	1056.81
1151.58	1110.39
1150.65	1110.2
1149.72	1091.19
1148.79	1176.98
1147.86	1260.06
1146.93	1375.35
1146	1474.47
1145.07	1672.92
1144.13	1962.58
1143.2	1959.55
1142.27	1870.64
1141.34	1762.97
1140.41	1687.53
1139.48	1472.64
1138.54	1391.92
1137.61	1316.59
1136.68	1230.57
1135.75	1216.95
1134.81	1297.13
1133.88	1232.59
1132.95	1256.49
1132.01	1309.83
1131.08	1373.88
1130.15	1429.86
1129.21	1509.92
1128.28	1474.86
1127.35	1514.74
1126.41	1474.33
1125.48	1407.19
1124.54	1254.48
1123.61	1240.88
1122.67	1272.75
1121.74	1216.38
1120.8	1186.76
1119.87	1167.85
1118.93	1114.2
1117.99	1146.06
1117.06	1164.55
1116.12	1148.32
1115.19	1204.19
1114.25	1273.38
1113.31	1206.43
1112.38	1294.28
1111.44	1262.03
1110.5	1437.87
1109.56	1472.29
1108.63	1389.36
1107.69	1498.43
1106.75	1519.49
1105.81	1335.31
1104.88	1220.49
1103.94	1164.32
1103	1177.43
1102.06	1105.31
1101.12	1102.45
1100.18	1080.95
1099.24	1086.08
1098.3	1080.57
1097.36	1109.65
1096.42	1128.07
1095.49	1074.67
1094.55	1111.71
1093.6	1154.06
1092.66	1137.9
1091.72	1119.09
1090.78	1180.02
1089.84	1110.72
1088.9	1129.12
1087.96	1089.08
1087.02	1160.59
1086.08	1088.69
1085.14	1059.29
1084.19	1101.57
1083.25	1119.95
1082.31	1146.29
1081.37	1069.15
1080.43	1106.09
1079.48	1052.85
1078.54	1065.92
1077.6	1121.4
1076.65	1092.05
1075.71	1105.1
1074.77	1059.86
1073.82	1025.23
1072.88	1067.43
1071.93	1019.57
1070.99	1077.64
1070.05	1088.04
1069.1	1101.08
1068.16	1143.22
1067.21	1116.56
1066.27	1156.04
1065.32	1206.09
1064.38	1211.16
1063.43	1234.74
1062.49	1290.03
1061.54	1310.95
1060.59	1300.14
1059.65	1262.92
1058.7	1149.11
1057.75	1127.77
1056.81	1151.34
1055.86	1164.33
1054.91	1069.09
1053.97	1087.38
1053.02	1063.43
1052.07	1084.35
1051.12	1073.6
1050.18	1078.69
1049.23	1133.87
1048.28	1065.12
1047.33	1075.47
1046.38	1127.99
1045.43	1111.98
1044.48	1111.78
1043.54	1101.04
1042.59	1103.48
1041.64	1103.28
1040.69	1068.86
1039.74	1131.84
1038.79	1105.32
1037.84	1152.49
1036.89	1115.45
1035.94	1107.36
1034.99	1088.75
1034.04	1109.59
1033.08	1062.07
1032.13	1164.39
1031.18	1114.25
1030.23	1079.9
1029.28	1153.26
1028.33	1076.88
1027.37	1063.56
1026.42	1055.49
1025.47	1113.06
1024.52	1097.11
1023.57	1039.18
1022.61	1130.82
1021.66	1125.37
1020.71	1156.65
1019.75	1096.13
1018.8	1103.8
1017.85	1082.63
1016.89	1056.22
1015.94	1100.58
1014.98	1082.04
1014.03	1066.13
1013.07	1081.66
1012.12	1065.75
1011.16	1083.89
1010.21	1099.4
1009.25	1182.95
1008.3	1167.04
1007.34	1219.15
1006.39	1205.85
1005.43	1239.64
1004.48	1194.96
1003.52	1142.46
1002.56	1142.26
1001.61	1074.1
1000.65	1134.01
999.693	1094.62
998.736	1073.53
997.778	1112.51
996.821	1078.36
995.863	1106.88
994.905	1132.79
993.947	1145.63
992.989	1161.08
992.031	1100.87
991.072	1103.28
990.114	1108.3
989.155	1144.6
988.196	1040.12
987.237	1039.94
986.277	1110.11
985.318	1102.09
984.358	1156.6
983.398	1145.97
982.438	1044.21
981.478	1033.61
980.517	1124.53
979.557	1085.29
978.596	1131.93
977.635	1157.75
976.674	1079.5
975.713	1123.52
974.751	1118.12
973.79	1115.32
972.828	1068.33
971.866	1109.72
970.904	1164.09
969.942	1171.67
968.979	1228.6
968.017	1121.91
967.054	1145.07
966.091	1150.06
965.128	1142.07
964.164	1214.52
963.201	1141.65
962.237	1164.8
961.273	1172.37
960.309	1141.04
959.345	1177.13
958.381	1200.25
957.416	1246.69
956.451	1440.82
955.486	1489.79
954.521	1660.49
953.556	1745.66
952.591	1729.81
951.625	1620.76
950.659	1418.55
949.693	1325.13
948.727	1213.62
947.761	1161.65
946.794	1156.27
945.828	1158.65
944.861	1145.51
943.894	1153.06
942.927	1199.38
941.959	1173.32
940.992	1113.68
940.024	1188.4
939.056	1121.03
938.088	1195.72
937.12	1141.28
936.152	1123
935.183	1169.26
934.214	1200.02
933.246	1163.68
932.276	1119.61
931.307	1214.84
930.338	1230.1
929.368	1193.78
928.398	1157.47
927.428	1139.22
926.458	1151.9
925.488	1169.73
924.517	1130.88
923.547	1128.1
922.576	1169.1
921.605	1179.18
920.634	1117.19
919.662	1183.9
918.691	1127.08
917.719	1111.44
916.747	1160.11
915.775	1177.91
914.803	1177.69
913.831	1198.05
912.858	1079.59
911.885	1110.23
910.912	1166.56
909.939	1161.21
908.966	1137.89
907.992	1181.34
907.019	1114.37
906.045	1116.73
905.071	1178.13
904.097	1188.19
903.122	1170.01
902.148	1151.84
901.173	1205.5
900.198	1212.97
899.223	1174.29
898.248	1158.7
897.273	1186.68
896.297	1222.34
895.321	1124.76
894.345	1173.23
893.369	1144.85
892.393	1198.41
891.416	1221.24
890.44	1146.78
889.463	1202.88
888.486	1174.52
887.509	1192.21
886.531	1174.09
885.554	1184.11
884.576	1232.48
883.598	1155.56
882.62	1193.69
881.642	1216.47
880.664	1195.81
879.685	1195.6
878.706	1231.14
877.727	1230.92
876.748	1230.69
875.769	1222.81
874.789	1255.77
873.81	1237.68
872.83	1280.83
871.85	1290.8
870.87	1259.96
869.889	1213.83
868.909	1262.05
867.928	1259.28
866.947	1259.05
865.966	1215.5
864.985	1278.97
864.003	1286.38
863.022	1375.29
862.04	1252.81
861.058	1395.16
860.076	1361.81
859.094	1420.1
858.111	1419.84
857.128	1355.99
856.146	1396.44
855.162	1398.73
854.179	1383.22
853.196	1418.56
852.212	1344.59
851.229	1420.58
850.245	1453.36
849.261	1394.66
848.276	1424.89
847.292	1340.83
846.307	1424.37
845.322	1342.88
844.337	1408.63
843.352	1370.31
842.367	1319.32
841.381	1339.37
840.396	1293.47
839.41	1354.1
838.424	1282.86
837.437	1262.35
836.451	1333.08
835.464	1228.95
834.477	1350.33
833.49	1464.07
832.503	1451.15
831.516	1504.06
830.528	1417.71
829.541	1425.04
828.553	1412.13
827.565	1308.13
826.577	1224.41
825.588	1252.01
824.6	1226.5
823.611	1281.9
822.622	1304.42
821.633	1246.05
820.643	1266.04
819.654	1245.59
818.664	1283.26
817.674	1247.67
816.684	1189.36
815.694	1194.19
814.704	1274.75
813.713	1277.04
812.723	1216.25
811.732	1291.72
810.741	1248.6
809.749	1268.55
808.758	1185.11
807.766	1235.31
806.774	1242.65
805.782	1247.46
804.79	1269.91
803.798	1262.13
802.805	1209
801.812	1176.04
800.819	1180.86
799.826	1231
798.833	1245.87
797.84	1260.75
796.846	1235.36
795.852	1303.05
794.858	1265.09
793.864	1232.17
792.87	1329.99
791.875	1224.18
790.88	1291.81
789.885	1309.16
788.89	1281.29
787.895	1338.83
786.9	1368.72
785.904	1381.03
784.908	1365.71
783.912	1463.36
782.916	1417.92
781.92	1422.68
780.923	1382.28
779.926	1432.19
778.929	1354.19
777.932	1414.12
776.935	1423.89
775.938	1426.13
774.94	1298.07
773.942	1357.96
772.944	1302.61
771.946	1347.45
770.948	1299.63
769.949	1279.36
768.95	1274.12
767.951	1293.91
766.952	1198.59
765.953	1285.93
764.954	1295.7
763.954	1322.97
762.954	1292.73
761.954	1259.99
760.954	1294.75
759.954	1284.52
758.953	1244.31
757.952	1231.59
756.951	1316.29
755.95	1298.57
754.949	1330.79
753.948	1365.49
752.946	1360.25
751.944	1467.31
750.942	1546.88
749.94	1860.9
748.937	2518.99
747.935	3318.97
746.932	3712.28
745.929	3168.2
744.926	2434.9
743.923	1843.91
742.919	1552.09
741.916	1477.08
740.912	1312.44
739.908	1339.59
738.903	1354.28
737.899	1311.72
736.894	1229.36
735.89	1261.48
734.885	1218.96
733.88	1268.48
732.874	1238.41
731.869	1332.66
730.863	1240.44
729.857	1277.49
728.851	1384.11
727.845	1361.5
726.838	1264.37
725.832	1281.52
724.825	1256.46
723.818	1293.47
722.811	1275.85
721.804	1374.89
720.796	1317.57
719.788	1371.91
718.78	1426.22
717.772	1418.52
716.764	1378.59
715.756	1289.09
714.747	1338.43
713.738	1305.97
712.729	1340.41
711.72	1352.55
710.71	1349.83
709.701	1426.35
708.691	1401.33
707.681	1307.01
706.671	1363.69
705.661	1306.53
704.65	1501.73
703.64	1459.41
702.629	1501.18
701.618	1426.73
700.606	1463.55
699.595	1488
698.583	1401.23
697.572	1452.86
696.56	1403.19
695.547	1479.5
694.535	1466.88
693.523	1372.78
692.51	1449.06
691.497	1399.43
690.484	1409.04
689.471	1421.12
688.457	1494.86
687.443	1492.12
686.43	1420.34
685.416	1540.88
684.401	1580.04
683.387	1971.6
682.372	2518.26
681.358	3109.06
680.343	3236.57
679.327	2881.35
678.312	2164.31
677.297	1875.88
676.281	1624.48
675.265	1461.76
674.249	1419.67
673.233	1389.89
672.216	1342.9
671.2	1350.03
670.183	1307.99
669.166	1361.83
668.148	1305.05
667.131	1346.58
666.113	1316.85
665.096	1360.82
664.078	1274.62
663.06	1345.59
662.041	1252.05
661.023	1296
660.004	1249.14
658.985	1280.8
657.966	1307.55
656.947	1334.29
655.927	1336.5
654.908	1309.28
653.888	1318.85
652.868	1316.15
651.848	1303.66
650.827	1264.22
649.807	1317.88
648.786	1307.84
647.765	1300.25
646.744	1339.18
645.723	1331.59
644.701	1394.98
643.679	1309.08
642.657	1414.04
641.635	1418.67
640.613	1459.98
639.591	1469.49
638.568	1417.88
637.545	1439.62
636.522	1402.7
635.499	1441.53
634.475	1470.58
633.452	1428.79
632.428	1545.74
631.404	1547.89
630.38	1479.26
629.356	1442.38
628.331	1429.91
627.306	1385.73
626.281	1361.08
625.256	1404.73
624.231	1397.16
623.205	1452.97
622.18	1425.89
621.154	1467.06
620.128	1491.15
619.102	1442.15
618.075	1475.99
617.049	1461.1
616.022	1387.79
614.995	1409.44
613.968	1440.82
612.94	1447.86
611.913	1484.08
610.885	1435.16
609.857	1417.87
608.829	1483.26
607.8	1470.83
606.772	1417.08
605.743	1465.43
604.714	1472.44
603.685	1479.46
602.656	1491.33
601.626	1476.48
600.597	1478.64
599.567	1560.9
598.537	1529.06
597.507	1601.58
596.476	1652.23
595.446	1620.39
594.415	1637.07
593.384	1634.34
592.353	1600.1
591.321	1594.95
590.29	1575.27
589.258	1482.9
588.226	1504.43
587.194	1467.82
586.162	1501.45
585.129	1464.86
584.096	1394.38
583.063	1401.39
582.03	1386.61
580.997	1458.93
579.964	1342.55
578.93	1301.19
577.896	1417.02
576.862	1300.71
575.828	1430.99
574.793	1421.06
573.759	1345.89
572.724	1338.4
571.689	1355.06
570.654	1410.35
569.618	1356.97
568.583	1366.37
567.547	1327.5
566.511	1358.63
565.475	1295.64
564.438	1280.93
563.402	1362.7
562.365	1306.98
561.328	1316.38
560.291	1390.86
559.254	1383.38
558.216	1344.57
557.178	1370.82
556.141	1356.11
555.102	1396.8
554.064	1338.75
553.026	1338.5
551.987	1347.88
550.948	1340.41
549.909	1330.54
548.87	1315.86
547.83	1265.11
546.791	1317.78
545.751	1199.72
544.711	1365.36
543.671	1252.15
542.63	1261.53
541.59	1290.13
540.549	1292.29
539.508	1292.05
538.467	1263
537.425	1284.37
536.384	1324.93
535.342	1312.69
534.3	1281.25
533.258	1261.82
532.216	1273.58
531.173	1273.34
530.13	1289.89
529.088	1272.87
528.044	1275.03
527.001	1281.98
525.958	1305.7
524.914	1293.48
523.87	1247.74
522.826	1300.18
521.782	1393.31
520.737	1294.91
519.693	1352.11
518.648	1394.92
517.603	1342.04
516.557	1332.22
515.512	1408.49
514.466	1243.26
513.42	1276.5
512.374	1309.72
511.328	1218.67
510.282	1347.46
509.235	1273.16
508.188	1275.31
507.141	1315.66
506.094	1227.09
505.047	1207.76
503.999	1295.84
502.951	1319.46
501.903	1326.37
500.855	1304.65
499.807	1309.18
