3200.54	54.7273
3199.95	4.20979
3199.35	16.8366
3198.76	21.0426
3198.16	-4.20788
3197.57	8.41449
3196.98	37.8595
3196.38	54.6777
3195.79	50.4641
3195.19	63.0705
3194.6	33.6325
3194	29.424
3193.41	25.2168
3192.81	29.4151
3192.22	54.6198
3191.62	50.4107
3191.03	8.40051
3190.43	25.1977
3189.84	20.9949
3189.24	-4.19835
3188.65	50.3726
3188.05	16.7883
3187.45	33.5716
3186.86	25.1749
3186.26	-4.19517
3185.67	37.7509
3185.07	12.5817
3184.47	20.9664
3183.88	29.3485
3183.28	46.112
3182.69	12.5741
3182.09	41.9073
3181.49	25.1406
3180.9	20.9473
3180.3	41.8883
3179.7	12.5646
3179.1	58.6259
3178.51	58.617
3177.91	33.4904
3177.31	0
3176.72	29.2952
3176.12	20.922
3175.52	25.1026
3174.92	29.2819
3174.33	29.2775
3173.73	41.8186
3173.13	20.9061
3172.53	54.3477
3171.93	50.1595
3171.34	37.6139
3170.74	37.6082
3170.14	25.0684
3169.54	33.4194
3168.94	41.7679
3168.34	41.7616
3167.74	29.2287
3167.15	45.9239
3166.55	25.0456
3165.95	37.5627
3165.35	45.903
3164.75	37.5513
3164.15	29.2021
3163.55	8.3422
3162.95	33.3638
3162.35	33.3587
3161.75	41.6921
3161.15	58.36
3160.55	29.1756
3159.95	41.6731
3159.35	29.1667
3158.75	29.1623
3158.15	29.1579
3157.55	49.9774
3156.95	41.6415
3156.35	33.3082
3155.75	16.6516
3155.15	16.649
3154.55	41.6163
3153.95	33.288
3153.35	49.9244
3152.75	37.4376
3152.15	41.591
3151.54	41.5847
3150.94	54.0519
3150.34	37.4149
3149.74	58.1921
3149.14	37.4035
3148.54	37.3979
3147.94	49.8562
3147.33	41.5406
3146.73	8.30685
3146.13	33.2224
3145.53	20.7608
3144.93	24.9092
3144.32	24.9054
3143.72	24.9016
3143.12	24.8979
3142.52	45.6392
3141.91	12.4452
3141.31	16.591
3140.71	29.0299
3140.1	12.4395
3139.5	33.1669
3138.9	16.5809
3138.29	37.3015
3137.69	37.2958
3137.09	49.7202
3136.48	45.5699
3135.88	16.5684
3135.28	49.6975
3134.67	53.8308
3134.07	24.8412
3133.47	66.2332
3132.86	78.6399
3132.26	16.5533
3131.65	16.5507
3131.05	28.9594
3130.45	24.8186
3129.84	28.9506
3129.24	24.811
3128.63	45.48
3128.03	33.0713
3127.42	28.933
3126.82	45.4592
3126.21	28.9242
3125.61	45.4454
3125	37.177
3124.4	37.1713
3123.79	37.1657
3123.19	57.8045
3122.58	37.1544
3121.97	45.404
3121.37	33.0161
3120.76	33.011
3120.16	45.3833
3119.55	41.2512
3118.94	24.747
3118.34	20.6193
3117.73	53.6022
3117.13	53.594
3116.52	37.0979
3115.91	41.2136
3115.31	24.7244
3114.7	57.6815
3114.09	49.4338
3113.48	37.0697
3112.88	53.5369
3112.27	37.0584
3111.66	32.9358
3111.06	45.2798
3110.45	53.5044
3109.84	37.0358
3109.23	53.4881
3108.63	28.7969
3108.02	57.585
3107.41	61.6888
3106.8	49.3436
3106.19	61.67
3105.59	65.7714
3104.98	36.9908
3104.37	12.3284
3103.76	41.0883
3103.15	53.4067
3102.54	57.5061
3101.93	20.5348
3101.33	45.1696
3100.72	36.9513
3100.11	20.5254
3099.5	28.7312
3098.89	53.3498
3098.28	53.3417
3097.67	49.2309
3097.06	53.3254
3096.45	65.6213
3095.84	73.8127
3095.23	49.201
3094.62	61.4918
3094.01	40.9883
3093.4	45.0803
3092.79	57.3661
3092.18	57.3574
3091.57	49.156
3090.96	49.1485
3090.35	36.8557
3089.74	32.7557
3089.13	81.8767
3088.52	45.0253
3087.91	36.8333
3087.3	40.9196
3086.69	32.7307
3086.08	57.27
3085.46	57.2613
3084.85	81.7893
3084.24	73.5992
3083.63	49.0586
3083.02	81.7519
3082.41	69.4785
3081.79	53.1225
3081.18	36.7715
3080.57	57.1914
3079.96	61.2672
3079.35	73.5094
3078.73	61.2485
3078.12	81.6522
3077.51	73.4758
3076.9	85.7086
3076.28	106.099
3075.67	48.9614
3075.06	61.1924
3074.45	53.0253
3073.83	48.939
3073.22	81.5526
3072.61	85.6171
3071.99	77.4513
3071.38	69.2879
3070.77	73.3525
3070.15	44.8197
3069.54	36.665
3068.93	85.5387
3068.31	85.5256
3067.7	65.1524
3067.08	48.8569
3066.47	61.0618
3065.86	36.6315
3065.24	65.1127
3064.63	48.827
3064.01	89.5026
3063.4	36.6091
3062.78	32.5364
3062.17	65.0629
3061.55	44.7239
3060.94	56.9127
3060.32	44.7103
3059.71	44.7034
3059.09	28.4433
3058.48	65.0033
3057.86	56.8692
3057.25	40.6147
3056.63	60.9127
3056.02	85.2647
3055.4	56.8344
3054.78	44.6488
3054.17	52.7587
3053.55	24.3464
3052.94	32.457
3052.32	40.565
3051.7	32.447
3051.09	52.7184
3050.47	81.0928
3049.85	56.7563
3049.24	44.5874
3048.62	48.6334
3048	48.6259
3047.39	52.67
3046.77	44.5601
3046.15	44.5533
3045.53	64.7949
3044.92	40.4906
3044.3	48.5813
3043.68	64.7652
3043.06	44.5192
3042.45	52.6056
3041.83	40.4597
3041.21	40.4535
3040.59	44.492
3039.97	28.3088
3039.35	60.6523
3038.74	64.6859
3038.12	52.5493
3037.5	28.2914
3036.88	56.5742
3036.26	60.6059
3035.64	52.5171
3035.02	56.5482
3034.41	60.5781
3033.79	44.4171
3033.17	68.6342
3032.55	52.4769
3031.93	68.6131
3031.31	44.3899
3030.69	56.4876
3030.07	48.4105
3029.45	56.4703
3028.83	60.4946
3028.21	40.3236
3027.59	60.4761
3026.97	60.4669
3026.35	52.3966
3025.73	72.538
3025.11	76.5561
3024.49	84.6017
3023.87	60.4205
3023.25	32.2193
3022.63	84.5628
3022	84.5499
3021.38	12.0767
3020.76	80.499
3020.14	56.3407
3019.52	64.3795
3018.9	88.5082
3018.28	72.4047
3017.66	88.4811
3017.03	64.34
3016.41	64.3301
3015.79	40.2002
3015.17	64.3104
3014.55	80.3757
3013.92	28.1272
3013.3	48.2106
3012.68	36.1524
3012.06	92.3753
3011.43	76.2983
3010.81	28.1056
3010.19	64.2315
3009.57	64.2217
3008.94	60.1986
3008.32	32.101
3007.7	60.1801
3007.07	48.1367
3006.45	60.1616
3005.83	68.1727
3005.2	76.1814
3004.58	76.1697
3003.96	60.1247
3003.33	60.1155
3002.71	80.1417
3002.08	52.0841
3001.46	60.0878
3000.84	48.0629
3000.21	36.0416
2999.59	68.0682
2998.96	56.0475
2998.34	36.025
2997.71	96.052
2997.09	72.0279
2996.46	68.0159
2995.84	96.0077
2995.21	59.9956
2994.59	83.981
2993.96	79.9696
2993.34	71.9616
2992.71	91.9368
2992.09	59.9495
2991.46	67.9324
2990.84	55.9357
2990.21	51.9323
2989.58	83.8778
2988.96	75.8778
2988.33	95.8309
2987.71	59.8851
2987.08	75.8428
2986.45	83.8134
2985.83	67.8385
2985.2	51.8685
2984.57	71.8069
2983.95	95.7278
2983.32	59.8207
2982.69	99.6858
2982.07	63.7891
2981.44	51.8207
2980.81	99.6398
2980.18	51.8048
2979.56	75.703
2978.93	75.6914
2978.3	87.6291
2977.67	83.6331
2977.05	79.6383
2976.42	95.5513
2975.79	39.8069
2975.16	39.8008
2974.53	59.692
2973.91	71.6194
2973.28	67.6301
2972.65	107.396
2972.02	59.6553
2971.39	71.5753
2970.76	111.322
2970.13	63.6029
2969.5	83.466
2968.88	95.375
2968.25	95.3604
2967.62	91.3729
2966.99	47.6655
2966.36	107.231
2965.73	83.389
2965.1	87.3464
2964.47	83.3633
2963.84	75.4123
2963.21	71.4322
2962.58	99.1962
2961.95	75.3775
2961.32	71.3992
2960.69	111.048
2960.06	83.2735
2959.43	59.4719
2958.8	107.033
2958.17	75.3078
2957.53	75.2962
2956.9	110.946
2956.27	79.2348
2955.64	110.912
2955.01	79.2104
2954.38	91.0779
2953.75	71.2674
2953.12	110.843
2952.48	98.9519
2951.85	67.277
2951.22	83.094
2950.59	67.2562
2949.96	106.802
2949.33	110.741
2948.69	83.0428
2948.06	94.8914
2947.43	83.0172
2946.8	106.72
2946.16	63.2317
2945.53	75.0761
2944.9	75.0645
2944.26	59.2523
2943.63	75.0413
2943	126.366
2942.37	98.7081
2941.73	86.8498
2941.1	82.8893
2940.47	86.823
2939.83	82.8637
2939.2	90.7415
2938.56	102.561
2937.93	74.9372
2937.3	90.6995
2936.66	63.0855
2936.03	90.6715
2935.39	82.7742
2934.76	51.2333
2934.13	74.8679
2933.49	70.9165
2932.86	70.9055
2932.22	86.649
2931.59	63.0077
2930.95	98.4343
2930.32	59.0515
2929.68	74.787
2929.05	90.5176
2928.41	94.4386
2927.78	74.7524
2927.14	47.2047
2926.5	82.5955
2925.87	78.6502
2925.23	66.8424
2924.6	82.5572
2923.96	58.9604
2923.32	113.972
2922.69	70.7306
2922.05	74.6485
2921.42	78.5652
2920.78	66.7701
2920.14	94.2492
2919.51	82.4553
2918.87	78.5167
2918.23	70.6541
2917.6	51.0201
2916.96	78.4803
2916.32	82.3916
2915.68	98.0701
2915.05	101.977
2914.41	50.9807
2913.77	62.7357
2913.13	62.726
2912.5	70.5559
2911.86	70.545
2911.22	82.2897
2910.58	58.7693
2909.94	74.4296
2909.31	109.669
2908.67	78.3227
2908.03	62.6485
2907.39	86.1283
2906.75	82.2007
2906.11	66.5331
2905.47	74.3491
2904.83	82.1626
2904.2	74.3261
2903.56	78.2259
2902.92	74.3031
2902.28	117.302
2901.64	82.099
2901	82.0863
2900.36	89.8902
2899.72	66.4303
2899.08	54.6988
2898.44	89.8484
2897.8	93.7404
2897.16	113.252
2896.52	113.235
2895.88	81.9847
2895.24	58.5515
2894.6	93.6678
2893.96	97.5556
2893.32	93.6388
2892.67	93.6243
2892.03	74.1078
2891.39	70.1965
2890.75	62.3872
2890.11	77.972
2889.47	93.5519
2888.83	85.7426
2888.19	113.007
2887.54	81.8198
2886.9	97.3895
2886.26	116.849
2885.62	70.0987
2884.98	120.707
2884.33	97.3291
2883.69	89.5289
2883.05	105.083
2882.41	89.5012
2881.77	93.3781
2881.12	105.034
2880.48	93.3491
2879.84	97.2236
2879.19	73.8785
2878.55	62.2038
2877.91	97.1784
2877.26	89.3903
2876.62	85.4905
2875.98	66.0506
2875.33	69.9251
2874.69	104.871
2874.05	66.0199
2873.4	100.956
2872.76	100.94
2872.11	124.215
2871.47	108.671
2870.83	85.3712
2870.18	89.2379
2869.54	77.5861
2868.89	69.8167
2868.25	93.0745
2867.6	89.1825
2866.96	81.4149
2866.31	100.784
2865.67	62.0112
2865.02	81.377
2864.38	112.36
2863.73	104.595
2863.09	65.846
2862.44	89.0719
2861.8	96.8022
2861.15	89.0442
2860.5	81.2886
2859.86	112.238
2859.21	73.524
2858.57	88.9889
2857.92	123.791
2857.27	112.169
2856.63	104.417
2855.98	88.9337
2855.33	77.3216
2854.69	119.83
2854.04	77.2976
2853.39	88.8784
2852.75	50.2278
2852.1	88.8508
2851.45	84.9746
2850.81	88.8232
2850.16	81.0869
2849.51	96.517
2848.86	111.942
2848.21	127.363
2847.57	104.19
2846.92	92.5987
2846.27	84.869
2845.62	61.7133
2844.97	92.5556
2844.33	119.532
2843.68	107.948
2843.03	104.076
2842.38	88.6439
2841.73	80.9232
2841.08	107.881
2840.43	77.0457
2839.78	115.551
2839.14	96.2772
2838.49	73.1593
2837.84	130.896
2837.19	115.479
2836.54	76.9739
2835.89	115.443
2835.24	96.1874
2834.59	96.1725
2833.94	84.6186
2833.29	92.2968
2832.64	76.9021
2831.99	103.802
2831.34	111.473
2830.69	80.7095
2830.04	107.596
2829.39	107.579
2828.74	99.8794
2828.08	115.228
2827.43	119.05
2826.78	122.871
2826.13	103.656
2825.48	118.994
2824.83	126.652
2824.18	95.9333
2823.53	115.102
2822.87	103.576
2822.22	99.724
2821.57	80.5338
2820.92	84.3556
2820.27	103.511
2819.61	114.994
2818.96	107.311
2818.31	111.127
2817.66	118.772
2817	88.1075
2816.35	95.7541
2815.7	111.057
2815.05	134.014
2814.39	122.508
2813.74	107.178
2813.09	141.606
2812.43	103.318
2811.78	103.302
2811.13	137.714
2810.47	99.4447
2809.82	107.078
2809.16	87.9429
2808.51	103.221
2807.86	87.9155
2807.2	122.298
2806.55	95.5305
2805.89	118.439
2805.24	103.141
2804.58	72.5692
2803.93	118.384
2803.28	99.2743
2802.62	103.076
2801.97	99.2434
2801.31	103.044
2800.66	106.844
2800	125.904
2799.34	129.699
2798.69	122.05
2798.03	114.404
2797.38	106.761
2796.72	121.993
2796.07	99.1041
2795.41	95.2775
2794.75	83.8312
2794.1	114.297
2793.44	95.2329
2792.79	106.644
2792.13	114.244
2791.47	110.418
2790.82	140.857
2790.16	125.609
2789.5	144.619
2788.84	95.1289
2788.19	125.551
2787.53	133.139
2786.87	117.905
2786.22	102.675
2785.56	117.868
2784.9	148.262
2784.24	125.433
2783.59	129.214
2782.93	167.192
2782.27	136.772
2781.61	110.16
2780.95	106.345
2780.29	136.708
2779.64	125.296
2778.98	117.684
2778.32	140.439
2777.66	113.852
2777	113.834
2776.34	125.198
2775.68	128.972
2775.02	125.159
2774.36	128.931
2773.71	136.494
2773.05	121.309
2772.39	136.452
2771.73	117.482
2771.07	136.409
2770.41	121.233
2769.75	132.578
2769.09	143.92
2768.43	109.816
2767.77	121.158
2767.11	143.852
2766.45	113.55
2765.79	121.101
2765.12	128.649
2764.46	128.629
2763.8	132.392
2763.14	128.589
2762.48	151.258
2761.82	117.206
2761.16	132.309
2760.5	132.288
2759.83	117.151
2759.17	128.468
2758.51	124.67
2757.85	105.764
2757.19	147.292
2756.53	117.06
2755.86	139.695
2755.2	120.798
2754.54	124.553
2753.88	154.724
2753.21	135.834
2752.55	124.495
2751.89	124.475
2751.23	113.142
2750.56	154.603
2749.9	116.877
2749.24	101.78
2748.57	154.53
2747.91	116.822
2747.25	146.946
2746.58	135.621
2745.92	120.533
2745.25	150.643
2744.59	105.434
2743.93	158.126
2743.26	165.63
2742.6	143.021
2741.93	154.288
2741.27	158.027
2740.61	127.906
2739.94	150.454
2739.28	127.866
2738.61	109.045
2737.95	146.624
2737.28	105.252
2736.62	150.336
2735.95	142.797
2735.29	146.532
2734.62	105.186
2733.95	123.95
2733.29	131.441
2732.62	116.401
2731.96	157.68
2731.29	146.394
2730.62	138.865
2729.96	112.576
2729.29	138.822
2728.63	187.567
2727.96	135.027
2727.29	116.255
2726.63	131.235
2725.96	153.709
2725.29	134.943
2724.62	123.678
2723.96	123.658
2723.29	157.359
2722.62	131.112
2721.96	157.309
2721.29	108.601
2720.62	116.073
2719.95	175.954
2719.28	123.523
2718.62	145.958
2717.95	130.968
2717.28	134.689
2716.61	149.63
2715.94	142.127
2715.27	108.448
2714.61	153.299
2713.94	145.798
2713.27	134.562
2712.6	164.438
2711.93	141.993
2711.26	134.498
2710.59	138.213
2709.92	145.661
2709.25	138.169
2708.58	119.479
2707.91	141.859
2707.24	167.964
2706.57	141.814
2705.9	145.523
2705.23	141.77
2704.56	149.208
2703.89	108.159
2703.22	160.348
2702.55	123.038
2701.88	160.298
2701.21	171.454
2700.54	152.794
2699.87	134.139
2699.2	167.648
2698.53	167.622
2697.86	130.352
2697.19	167.569
2696.51	208.497
2695.84	193.574
2695.17	152.602
2694.5	174.906
2693.83	163.716
2693.15	145.089
2692.48	141.347
2691.81	167.358
2691.14	137.584
2690.47	174.741
2689.79	163.562
2689.12	178.403
2688.45	167.226
2687.77	159.769
2687.1	163.459
2686.43	133.718
2685.76	155.98
2685.08	163.382
2684.41	170.781
2683.74	148.482
2683.06	155.882
2682.39	166.99
2681.71	144.702
2681.04	178.066
2680.37	166.911
2679.69	170.593
2679.02	152.026
2678.34	122.343
2677.67	170.512
2676.99	140.836
2676.32	159.342
2675.65	140.792
2674.97	177.814
2674.3	140.747
2673.62	129.615
2672.95	140.703
2672.27	199.915
2671.59	185.077
2670.92	170.244
2670.24	181.318
2669.57	173.89
2668.89	140.57
2668.22	159.041
2667.54	159.016
2666.86	122.016
2666.19	177.45
2665.51	181.118
2664.83	192.177
2664.16	158.89
2663.48	136.698
2662.8	210.556
2662.13	151.429
2661.45	166.176
2660.77	177.226
2660.1	173.507
2659.42	147.642
2658.74	162.381
2658.06	191.874
2657.39	188.154
2656.71	177.059
2656.03	169.654
2655.35	191.753
2654.68	210.158
2654	154.828
2653.32	180.605
2652.64	180.576
2651.96	162.124
2651.28	213.676
2650.6	191.541
2649.93	191.511
2649.25	206.21
2648.57	184.087
2647.89	184.058
2647.21	180.348
2646.53	187.68
2645.85	139.818
2645.17	180.263
2644.49	172.878
2643.81	213.305
2643.13	183.855
2642.45	165.443
2641.77	198.5
2641.09	154.365
2640.41	161.69
2639.73	187.384
2639.05	165.312
2638.37	190.997
2637.69	165.26
2637.01	220.312
2636.33	190.907
2635.65	198.218
2634.96	176.166
2634.28	183.477
2633.6	154.097
2632.92	227.44
2632.24	231.072
2631.56	161.358
2630.88	179.666
2630.19	190.635
2629.51	175.943
2628.83	201.57
2628.15	164.895
2627.46	208.834
2626.78	208.801
2626.1	186.792
2625.42	190.425
2624.73	194.056
2624.05	201.347
2623.37	197.655
2622.69	208.603
2622	204.91
2621.32	201.219
2620.64	186.556
2619.95	153.61
2619.27	182.84
2618.58	168.186
2617.9	201.06
2617.22	190.063
2616.53	186.379
2615.85	190.003
2615.16	186.32
2614.48	252.04
2613.79	208.174
2613.11	204.489
2612.43	211.759
2611.74	178.871
2611.06	189.793
2610.37	175.165
2609.69	167.84
2609	171.462
2608.31	200.615
2607.63	196.936
2606.94	226.076
2606.26	185.937
2605.57	218.714
2604.89	196.812
2604.2	200.424
2603.51	189.462
2602.83	207.647
2602.14	207.614
2601.45	236.715
2600.77	222.113
2600.08	189.312
2599.39	203.842
2598.71	229.286
2598.02	218.333
2597.33	196.469
2596.65	218.264
2595.96	189.132
2595.27	189.102
2594.58	214.524
2593.9	236.303
2593.21	192.647
2592.52	225.325
2591.83	214.388
2591.14	228.887
2590.46	148.934
2589.77	203.39
2589.08	217.884
2588.39	177.91
2587.7	214.184
2587.01	206.891
2586.32	206.858
2585.64	228.596
2584.95	185.025
2584.26	235.779
2583.57	224.861
2582.88	221.199
2582.19	228.415
2581.5	192.128
2580.81	221.094
2580.12	217.435
2579.43	228.27
2578.74	228.234
2578.05	199.22
2577.36	239.026
2576.67	228.125
2575.98	195.505
2575.29	170.135
2574.6	231.636
2573.91	188.174
2573.22	188.144
2572.52	235.143
2571.83	227.872
2571.14	209.753
2570.45	231.415
2569.76	216.917
2569.07	249.415
2568.38	213.234
2567.68	191.519
2566.99	195.101
2566.3	245.644
2565.61	241.993
2564.92	191.397
2564.22	227.474
2563.53	256.318
2562.84	194.915
2562.14	227.365
2561.45	209.287
2560.76	227.293
2560.07	223.65
2559.37	227.221
2558.68	205.548
2557.99	227.148
2557.29	234.322
2556.6	219.867
2555.91	230.644
2555.21	212.591
2554.52	194.544
2553.82	198.115
2553.13	237.7
2552.44	216.057
2551.74	230.424
2551.05	212.388
2550.35	233.95
2549.66	259.103
2548.96	208.689
2548.27	251.826
2547.57	215.816
2546.88	215.782
2546.18	219.343
2545.49	276.832
2544.79	248.031
2544.1	265.961
2543.4	255.139
2542.7	244.319
2542.01	244.28
2541.31	222.691
2540.62	269.341
2539.92	254.936
2539.22	201.044
2538.53	254.854
2537.83	226.102
2537.13	265.538
2536.44	261.908
2535.74	258.279
2535.04	233.132
2534.35	283.299
2533.65	261.741
2532.95	225.85
2532.25	254.489
2531.56	225.778
2530.86	257.991
2530.16	243.62
2529.46	247.163
2528.76	222.053
2528.07	268.57
2527.37	272.107
2526.67	261.325
2525.97	243.387
2525.27	211.14
2524.57	254.043
2523.88	254.003
2523.18	246.809
2522.48	250.346
2521.78	236.002
2521.08	225.239
2520.38	289.547
2519.68	264.482
2518.98	268.014
2518.28	267.971
2517.58	260.783
2516.88	253.598
2516.18	271.414
2515.48	224.952
2514.78	246.336
2514.08	232.019
2513.38	264.103
2512.68	203.398
2511.98	249.747
2511.28	253.274
2510.58	249.667
2509.88	253.194
2509.17	221.063
2508.47	238.853
2507.77	260.201
2507.07	274.415
2506.37	245.865
2505.67	242.263
2504.97	256.473
2504.26	256.432
2503.56	267.074
2502.86	270.592
2502.16	249.189
2501.45	252.709
2500.75	249.11
2500.05	259.744
2499.35	249.03
2498.64	256.104
2497.94	266.733
2497.24	266.69
2496.53	252.426
2495.83	238.167
2495.13	263.008
2494.42	277.181
2493.72	245.159
2493.02	294.854
2492.31	277.048
2491.61	298.311
2490.9	308.916
2490.2	259.164
2489.5	276.871
2488.79	255.532
2488.09	237.749
2487.38	255.45
2486.68	276.694
2485.97	280.196
2485.27	237.597
2484.56	280.106
2483.86	230.43
2483.15	280.017
2482.45	297.692
2481.74	287.014
2481.04	265.711
2480.33	286.922
2479.62	297.501
2478.92	286.83
2478.21	297.406
2477.51	279.659
2476.8	265.456
2476.09	304.341
2475.39	240.603
2474.68	304.244
2473.97	275.898
2473.27	293.536
2472.56	300.562
2471.85	268.694
2471.14	268.651
2470.44	265.074
2469.73	279.167
2469.02	279.122
2468.31	342.664
2467.61	271.968
2466.9	278.988
2466.19	282.474
2465.48	300.081
2464.77	236.496
2464.07	278.809
2463.36	289.35
2462.65	243.439
2461.94	292.785
2461.23	285.684
2460.52	264.48
2459.81	320.851
2459.1	292.598
2458.4	331.322
2457.69	281.931
2456.98	267.792
2456.27	278.318
2455.56	306.453
2454.85	306.404
2454.14	295.791
2453.43	292.222
2452.72	327.378
2452.01	330.845
2451.3	306.158
2450.59	267.406
2449.88	295.506
2449.16	281.389
2448.45	256.727
2447.74	302.396
2447.03	246.097
2446.32	281.209
2445.61	333.882
2444.9	235.437
2444.19	340.802
2443.47	323.183
2442.76	291.52
2442.05	309.032
2441.34	291.427
2440.63	301.912
2439.91	291.333
2439.2	312.343
2438.49	294.748
2437.78	287.684
2437.06	333.239
2436.35	329.679
2435.64	305.079
2434.93	322.561
2434.21	311.992
2433.5	336.477
2432.79	318.901
2432.07	332.865
2431.36	350.328
2430.64	297.731
2429.93	336.207
2429.22	315.143
2428.5	322.095
2427.79	294.039
2427.07	304.492
2426.36	321.939
2425.65	318.389
2424.93	311.341
2424.22	328.779
2423.5	332.224
2422.79	314.688
2422.07	297.157
2421.36	346.045
2420.64	318.031
2419.92	297.014
2419.21	321.422
2418.49	317.877
2417.78	317.826
2417.06	289.839
2416.35	331.69
2415.63	338.618
2414.91	331.583
2414.2	286.163
2413.48	324.498
2412.76	320.957
2412.05	310.441
2411.33	327.829
2410.61	313.829
2409.9	331.21
2409.18	327.671
2408.46	334.589
2407.74	306.657
2407.03	324.029
2406.31	344.878
2405.59	316.958
2404.87	323.872
2404.16	302.928
2403.44	351.619
2402.72	355.043
2402	351.506
2401.28	341.01
2400.56	365.309
2399.85	372.207
2399.13	326.933
2398.41	340.79
2397.69	382.458
2396.97	340.681
2396.25	364.956
2395.53	350.997
2394.81	378.737
2394.09	326.565
2393.37	361.248
2392.65	371.608
2391.93	343.769
2391.21	343.714
2390.49	347.13
2389.77	340.132
2389.05	381.72
2388.33	329.614
2387.61	329.561
2386.89	374.598
2386.17	315.583
2385.45	357.14
2384.73	360.55
2384	353.559
2383.28	308.448
2382.56	325.724
2381.84	325.671
2381.12	398.363
2380.4	318.639
2379.67	353.217
2378.95	342.773
2378.23	377.336
2377.51	359.969
2376.79	339.146
2376.06	356.392
2375.34	363.254
2374.62	338.982
2373.9	332.011
2373.17	383.825
2372.45	345.733
2371.73	362.961
2371	355.99
2370.28	376.666
2369.56	342.055
2368.83	373.09
2368.11	341.944
2367.38	397.144
2366.66	352.192
2365.94	345.231
2365.21	386.596
2364.49	372.729
2363.76	345.064
2363.04	327.758
2362.31	362.2
2361.59	379.386
2360.86	386.222
2360.14	379.264
2359.41	375.755
2358.69	337.78
2357.96	358.403
2357.24	385.91
2356.51	403.073
2355.79	365.118
2355.06	385.723
2354.33	378.774
2353.61	358.055
2352.88	371.767
2352.15	333.848
2351.43	402.617
2350.7	388.79
2349.98	392.167
2349.25	398.982
2348.52	381.723
2347.79	419.484
2347.07	323.156
2346.34	360.914
2345.61	415.843
2344.88	388.287
2344.16	422.58
2343.43	381.291
2342.7	384.664
2341.97	388.036
2341.25	398.273
2340.52	374.179
2339.79	360.389
2339.06	404.943
2338.33	401.447
2337.6	384.229
2336.87	370.446
2336.14	363.527
2335.42	401.187
2334.69	401.122
2333.96	401.057
2333.23	380.428
2332.5	414.634
2331.77	404.288
2331.04	380.244
2330.31	390.457
2329.58	380.12
2328.85	407.451
2328.12	383.421
2327.39	366.244
2326.66	393.563
2325.93	390.078
2325.2	424.227
2324.47	403.634
2323.73	406.989
2323	424.02
2322.27	441.047
2321.54	355.515
2320.81	423.814
2320.08	406.659
2319.35	406.593
2318.61	471.435
2317.88	389.383
2317.15	385.905
2316.42	416.573
2315.69	372.124
2314.95	440.332
2314.22	402.719
2313.49	443.602
2312.76	382.118
2312.02	399.112
2311.29	446.797
2310.56	405.803
2309.82	443.242
2309.09	412.489
2308.36	432.873
2307.62	405.54
2306.89	446.362
2306.16	453.103
2305.42	453.03
2304.69	435.928
2303.95	415.426
2303.22	432.382
2302.48	405.079
2301.75	384.593
2301.02	449.186
2300.28	411.687
2299.55	411.62
2298.81	452.369
2298.08	448.894
2297.34	438.621
2296.6	431.751
2295.87	373.897
2295.13	421.415
2294.4	421.347
2293.66	380.509
2292.93	448.384
2292.19	427.934
2291.45	448.239
2290.72	400.633
2289.98	434.515
2289.24	424.262
2288.51	434.374
2287.77	427.517
2287.03	451.195
2286.3	413.811
2285.56	434.091
2284.82	447.584
2284.08	433.95
2283.35	420.321
2282.61	460.922
2281.87	471.013
2281.13	430.28
2280.4	430.21
2279.66	416.593
2278.92	433.457
2278.18	419.843
2277.44	433.316
2276.7	446.784
2275.97	443.327
2275.23	477.092
2274.49	409.352
2273.75	439.729
2273.01	453.185
2272.27	409.153
2271.53	422.61
2270.79	459.725
2270.05	496.827
2269.31	483.23
2268.57	456.122
2267.83	479.694
2267.09	442.463
2266.35	472.784
2265.61	459.201
2264.87	499.638
2264.13	452.301
2263.39	448.852
2262.65	465.651
2261.91	425.09
2261.17	499.231
2260.42	441.815
2259.68	505.813
2258.94	488.873
2258.2	475.309
2257.46	475.232
2256.72	492.004
2255.97	515.509
2255.23	512.056
2254.49	491.763
2253.75	434.432
2253	457.932
2252.26	508.356
2251.52	454.416
2250.78	491.363
2250.03	498.013
2249.29	471.016
2248.55	474.303
2247.8	487.679
2247.06	447.247
2246.32	494.245
2245.57	467.271
2244.83	487.361
2244.09	541.051
2243.34	500.643
2242.6	460.247
2241.85	517.274
2241.11	507.115
2240.36	496.958
2239.62	510.306
2238.88	469.942
2238.13	490.003
2237.39	466.434
2236.64	489.843
2235.89	479.7
2235.15	469.559
2234.4	472.836
2233.66	512.994
2232.91	489.444
2232.17	479.308
2231.42	542.904
2230.67	492.555
2229.93	458.973
2229.18	512.492
2228.44	499.012
2227.69	525.719
2226.94	505.545
2226.2	542.284
2225.45	491.992
2224.7	548.8
2223.95	491.832
2223.21	551.966
2222.46	558.565
2221.71	525.032
2220.96	518.259
2220.22	578.35
2219.47	521.432
2218.72	558.109
2217.97	547.994
2217.22	561.268
2216.48	534.453
2215.73	524.346
2214.98	517.582
2214.23	484.111
2213.48	540.78
2212.73	520.666
2211.98	487.211
2211.23	483.794
2210.48	533.755
2209.73	520.326
2208.98	500.232
2208.23	546.83
2207.48	573.411
2206.73	563.318
2205.98	513.235
2205.23	509.819
2204.48	549.715
2203.73	536.301
2202.98	529.552
2202.23	529.466
2201.48	542.697
2200.73	509.319
2199.98	529.206
2199.23	512.48
2198.48	505.742
2197.72	578.847
2196.97	542.164
2196.22	568.68
2195.47	541.987
2194.72	528.6
2193.97	548.457
2193.21	588.249
2192.46	525.018
2191.71	558.155
2190.96	571.351
2190.2	571.257
2189.45	554.56
2188.7	554.47
2187.94	554.379
2187.19	564.245
2186.44	567.471
2185.68	620.466
2184.93	563.968
2184.18	603.679
2183.42	550.518
2182.67	567.007
2181.91	583.49
2181.16	573.45
2180.41	593.242
2179.65	543.44
2178.9	589.734
2178.14	526.699
2177.39	579.605
2176.63	553.018
2175.88	592.659
2175.12	542.906
2174.37	572.605
2173.61	638.698
2172.86	529.403
2172.1	578.94
2171.34	608.614
2170.59	631.665
2169.83	558.816
2169.08	571.948
2168.32	545.41
2167.56	545.321
2166.81	581.58
2166.05	578.181
2165.29	611.12
2164.54	558.174
2163.78	561.385
2163.02	594.31
2162.27	617.321
2161.51	607.318
2160.75	623.719
2159.99	630.215
2159.23	557.534
2158.48	606.919
2157.72	587.032
2156.96	563.854
2156.2	636.292
2155.44	629.595
2154.69	609.717
2153.93	586.55
2153.17	576.57
2152.41	599.534
2151.65	612.61
2150.89	559.821
2150.13	576.191
2149.37	592.557
2148.61	608.916
2147.85	608.816
2147.09	681.104
2146.33	602.037
2145.57	572.334
2144.81	591.973
2144.05	529.4
2143.29	618.08
2142.53	634.414
2141.77	631.023
2141.01	575.056
2140.25	614.388
2139.49	630.712
2138.73	647.03
2137.97	574.678
2137.2	659.951
2136.44	617.166
2135.68	649.887
2134.92	646.498
2134.16	679.204
2133.4	652.847
2132.63	567.457
2131.87	609.998
2131.11	583.665
2130.35	636.025
2129.58	596.585
2128.82	632.538
2128.06	645.542
2127.29	632.33
2126.53	615.847
2125.77	671.425
2125	658.216
2124.24	605.721
2123.48	608.895
2122.71	680.803
2121.95	605.422
2121.19	683.85
2120.42	670.652
2119.66	654.187
2118.89	670.431
2118.13	614.733
2117.36	595.016
2116.6	686.444
2115.83	617.698
2115.07	643.738
2114.3	663.235
2113.54	571.66
2112.77	630.355
2112.01	649.845
2111.24	692.183
2110.48	630.044
2109.71	656.052
2108.94	655.943
2108.18	623.207
2107.41	681.826
2106.64	704.546
2105.88	671.817
2105.11	645.621
2104.34	687.897
2103.58	622.591
2102.81	700.707
2102.04	664.747
2101.28	645.089
2100.51	729.677
2099.74	661.161
2098.97	693.616
2098.21	618.617
2097.44	667.345
2096.67	670.489
2095.9	689.904
2095.13	715.821
2094.36	705.943
2093.6	748.111
2092.83	747.988
2092.06	708.845
2091.29	721.732
2090.52	708.611
2089.75	646.745
2088.98	705.128
2088.21	672.523
2087.44	695.15
2086.67	730.761
2085.9	698.168
2085.13	698.053
2084.36	694.691
2083.59	704.314
2082.82	671.746
2082.05	733.283
2081.28	668.28
2080.51	716.823
2079.74	804.265
2078.97	700.374
2078.2	778.064
2077.43	735.798
2076.65	716.231
2075.88	742.035
2075.11	690.076
2074.34	735.311
2073.57	696.325
2072.8	641.161
2072.02	673.432
2071.25	686.269
2070.48	676.446
2069.71	728.111
2068.93	702.106
2068.16	685.815
2067.39	721.281
2066.61	704.992
2065.84	746.909
2065.07	707.992
2064.29	762.824
2063.52	759.466
2062.75	743.184
2061.97	733.369
2061.2	726.787
2060.43	707.289
2059.65	736.234
2058.88	758.713
2058.1	700.482
2057.33	700.367
2056.55	745.428
2055.78	738.852
2055	748.407
2054.23	687.002
2053.45	712.687
2052.68	738.363
2051.9	789.821
2051.13	760.681
2050.35	721.883
2049.57	753.985
2048.8	789.298
2048.02	769.841
2047.25	785.816
2046.47	830.766
2045.69	743.703
2044.92	708.171
2044.14	746.675
2043.36	778.73
2042.59	762.514
2041.81	736.653
2041.03	778.343
2040.25	784.646
2039.48	742.718
2038.7	758.668
2037.92	761.757
2037.14	768.058
2036.37	780.783
2035.59	761.378
2034.81	777.312
2034.03	777.183
2033.25	725.679
2032.47	783.346
2031.69	837.785
2030.92	811.971
2030.14	818.254
2029.36	824.535
2028.58	856.476
2027.8	830.676
2027.02	756.784
2026.24	791.926
2025.46	788.589
2024.68	759.613
2023.9	756.282
2023.12	752.952
2022.34	791.27
2021.56	781.53
2020.78	807.02
2020	771.664
2019.21	781.141
2018.43	845.028
2017.65	739.277
2016.87	822.349
2016.09	841.408
2015.31	793.288
2014.53	786.759
2013.74	892.152
2012.96	808.878
2012.18	770.385
2011.4	827.786
2010.62	827.649
2009.83	827.511
2009.05	843.346
2008.27	820.849
2007.49	807.938
2006.7	814.19
2005.92	823.632
2005.14	801.152
2004.35	839.315
2003.57	781.741
2002.79	794.373
2002	810.189
2001.22	727.136
2000.43	841.806
1999.65	838.478
1998.87	838.339
1998.08	863.696
1997.3	863.553
1996.51	863.409
1995.73	783.629
1994.94	872.677
1994.16	837.503
1993.37	830.996
1992.59	846.775
1991.8	856.183
1991.02	875.134
1990.23	798.626
1989.44	858.937
1988.66	861.975
1987.87	849.11
1987.09	817.173
1986.3	937.844
1985.51	886.83
1984.73	889.86
1983.94	883.357
1983.15	895.918
1982.37	851.298
1981.58	806.693
1980.79	838.313
1980	898.497
1979.22	869.778
1978.43	879.155
1977.64	875.835
1976.85	882.035
1976.06	885.06
1975.28	859.539
1974.49	906.964
1973.7	862.423
1972.91	906.662
1972.12	900.172
1971.33	906.36
1970.54	865.018
1969.76	861.705
1968.97	890.069
1968.18	889.921
1967.39	896.106
1966.6	943.445
1965.81	911.634
1965.02	898.823
1964.23	879.687
1963.44	933.325
1962.65	945.823
1961.86	939.34
1961.07	901.236
1960.28	973.805
1959.48	894.613
1958.69	888.143
1957.9	929.076
1957.11	938.4
1956.32	859.267
1955.53	897.026
1954.74	871.613
1953.94	918.83
1953.15	972.345
1952.36	899.584
1951.57	912.058
1950.78	905.595
1949.98	943.302
1949.19	902.139
1948.4	898.834
1947.61	904.991
1946.81	920.604
1946.02	929.907
1945.23	967.572
1944.43	939.05
1943.64	907.386
1942.85	926.136
1942.05	916.532
1941.26	951.019
1940.46	1004.39
1939.67	997.922
1938.88	937.953
1938.08	915.767
1937.29	972.25
1936.49	1022.42
1935.7	965.635
1934.9	959.184
1934.11	927.58
1933.31	914.85
1932.52	949.273
1931.72	949.115
1930.93	926.961
1930.13	936.231
1929.33	992.616
1928.54	976.746
1927.74	1004.84
1926.95	948.163
1926.15	982.535
1925.35	969.816
1924.56	947.688
1923.76	975.767
1922.96	991.289
1922.17	972.305
1921.37	987.822
1920.57	1000.2
1919.77	1009.44
1918.98	965.386
1918.18	962.09
1917.38	914.93
1916.58	999.362
1915.78	955.343
1914.99	1036.61
1914.19	945.63
1913.39	970.517
1912.59	1014.18
1911.79	926.377
1910.99	995.063
1910.19	960.482
1909.39	954.065
1908.59	1032.09
1907.8	991.27
1907	987.977
1906.2	990.938
1905.4	1056.41
1904.6	987.481
1903.8	999.814
1903	999.646
1902.2	1027.59
1901.39	1027.42
1900.59	1049.1
1899.79	1011.46
1898.99	1073.72
1898.19	1073.54
1897.39	1073.36
1896.59	970.23
1895.79	1038.69
1894.99	1066.58
1894.18	947.915
1893.38	1016.34
1892.58	1081.63
1891.78	994.188
1890.98	1059.46
1890.17	1021.89
1889.37	1034.18
1888.57	981.063
1887.76	1052.52
1886.96	1108.39
1886.16	1089.52
1885.36	1042.65
1884.55	1076.71
1883.75	1017.41
1882.94	1042.13
1882.14	1097.94
1881.34	1041.78
1880.53	1041.6
1879.73	1072.52
1878.92	1047.47
1878.12	1078.37
1877.32	1078.19
1876.51	1078.01
1875.71	1090.25
1874.9	1024.85
1874.1	1099.2
1873.29	1061.76
1872.49	1024.34
1871.68	1067.62
1870.87	1042.61
1870.07	1079.67
1869.26	1039.16
1868.46	1082.41
1867.65	1085.32
1866.84	1134.75
1866.04	1035.36
1865.23	1007.29
1864.42	1075.3
1863.62	1140.18
1862.81	1081.13
1862	1080.95
1861.2	1012.64
1860.39	1105.36
1859.58	1136.13
1858.77	1120.46
1857.96	1114.09
1857.16	1095.33
1856.35	1101.34
1855.54	1107.34
1854.73	1153.54
1853.92	1140.98
1853.12	1100.6
1852.31	1152.96
1851.5	1121.86
1850.69	1106.22
1849.88	1050.42
1849.07	1176.9
1848.26	1080.96
1847.45	1157.97
1846.64	1105.29
1845.83	1160.67
1845.02	1030.85
1844.21	1138.68
1843.4	1104.55
1842.59	1162.97
1841.78	1159.69
1840.97	1110.16
1840.16	1094.56
1839.35	1134.45
1838.54	1189.74
1837.72	1072.43
1836.91	1075.33
1836.1	1090.55
1835.29	1158.13
1834.48	1201.05
1833.67	1105.4
1832.85	1114.45
1832.04	1181.98
1831.23	1163.31
1830.42	1166.19
1829.6	1159.85
1828.79	1051.99
1827.98	1165.61
1827.17	1162.33
1826.35	1186.73
1825.54	1118.91
1824.73	1170.97
1823.91	1164.62
1823.1	1201.3
1822.29	1087.44
1821.47	1185.53
1820.66	1237.54
1819.84	1197.42
1819.03	1166.52
1818.21	1206.22
1817.4	1132.37
1816.58	1110.7
1815.77	1110.51
1814.95	1174.74
1814.14	1168.4
1813.32	1140.61
1812.51	1183.34
1811.69	1152.49
1810.88	1256.49
1810.06	1216.44
1809.25	1127.4
1808.43	1121.08
1807.61	1102.51
1806.8	1151.32
1805.98	1132.76
1805.16	1218.27
1804.35	1202.77
1803.53	1193.38
1802.71	1245.19
1801.89	1241.92
1801.08	1174.43
1800.26	1174.23
1799.44	1207.66
1798.62	1201.35
1797.81	1213.37
1796.99	1185.66
1796.17	1219.07
1795.35	1221.92
1794.53	1203.39
1793.71	1218.45
1792.9	1233.51
1792.08	1236.36
1791.26	1175.1
1790.44	1263.4
1789.62	1266.24
1788.8	1256.88
1787.98	1162.11
1787.16	1238.15
1786.34	1213.55
1785.52	1207.25
1784.7	1200.95
1783.88	1200.75
1783.06	1282.81
1782.24	1258.22
1781.42	1282.38
1780.6	1242.57
1779.78	1297.17
1778.95	1278.69
1778.13	1266.29
1777.31	1229.56
1776.49	1296.29
1775.67	1195.67
1774.85	1253.27
1774.02	1246.97
1773.2	1252.84
1772.38	1301.28
1771.56	1304.1
1770.74	1285.64
1769.91	1279.35
1769.09	1336.86
1768.27	1284.99
1767.44	1351.59
1766.62	1327.07
1765.8	1238.79
1764.97	1344.83
1764.15	1286.94
1763.33	1238.16
1762.5	1237.95
1761.68	1319.65
1760.85	1295.17
1760.03	1288.88
1759.21	1285.63
1758.38	1285.41
1757.56	1227.6
1756.73	1300.13
1755.91	1345.36
1755.08	1293.63
1754.26	1369.14
1753.43	1356.79
1752.6	1395.93
1751.78	1374.5
1750.95	1319.78
1750.13	1461.8
1749.3	1295.12
1748.47	1382.64
1747.65	1445.93
1746.82	1345.88
1745.99	1460.56
1745.17	1457.29
1744.34	1408.68
1743.51	1477.95
1742.69	1435.4
1741.86	1471.41
1741.03	1552.72
1740.2	1609.85
1739.38	1564.28
1738.55	1618.36
1737.72	1609.03
1736.89	1708.36
1736.06	1696
1735.23	1695.71
1734.4	1797.99
1733.58	1800.7
1732.75	1779.29
1731.92	1851.35
1731.09	1920.38
1730.26	1832.64
1729.43	1883.56
1728.6	1967.61
1727.77	1907.02
1726.94	1972.97
1726.11	2002.75
1725.28	2026.5
1724.45	1932.82
1723.62	1980.66
1722.79	2013.43
1721.96	1952.9
1721.13	2115.03
1720.3	1982.32
1719.46	2003.04
1718.63	1993.67
1717.8	1918.17
1716.97	1956.92
1716.14	1860.42
1715.31	1848.08
1714.47	1823.73
1713.64	1748.32
1712.81	1702.97
1711.98	1696.67
1711.14	1570.28
1710.31	1543
1709.48	1557.74
1708.65	1509.46
1707.81	1530.21
1706.98	1508.95
1706.15	1595.68
1705.31	1496.44
1704.48	1463.21
1703.64	1477.95
1702.81	1459.71
1701.98	1540.38
1701.14	1456.22
1700.31	1446.98
1699.47	1416.78
1698.64	1392.58
1697.8	1395.34
1696.97	1487.91
1696.13	1484.66
1695.3	1406.6
1694.46	1433.29
1693.63	1480.91
1692.79	1423.83
1691.95	1429.57
1691.12	1468.2
1690.28	1473.93
1689.45	1503.57
1688.61	1425.61
1687.77	1515.01
1686.94	1490.85
1686.1	1490.6
1685.26	1382.82
1684.42	1409.46
1683.59	1427.14
1682.75	1528.39
1681.91	1474.4
1681.07	1390.6
1680.24	1456
1679.4	1390.12
1678.56	1524.1
1677.72	1431.4
1676.88	1428.17
1676.04	1398.12
1675.21	1463.45
1674.37	1490.02
1673.53	1486.79
1672.69	1406.1
1671.85	1480.33
1671.01	1486.03
1670.17	1420.27
1669.33	1414.08
1668.49	1431.69
1667.65	1508.82
1666.81	1449.06
1665.97	1475.58
1665.13	1466.41
1664.29	1448.32
1663.45	1442.12
1662.61	1477.55
1661.77	1468.38
1660.92	1432.47
1660.08	1435.2
1659.24	1455.75
1658.4	1550.55
1657.56	1493.86
1656.72	1452.03
1655.87	1451.78
1655.03	1534.65
1654.19	1549.23
1653.35	1456.98
1652.5	1495.3
1651.66	1409.02
1650.82	1462.16
1649.98	1455.98
1649.13	1426.08
1648.29	1473.27
1647.45	1556
1646.6	1478.69
1645.76	1513.99
1644.91	1510.77
1644.07	1460.16
1643.23	1501.37
1642.38	1412.29
1641.54	1491.98
1640.69	1503.56
1639.85	1488.51
1639	1473.46
1638.16	1520.54
1637.31	1472.96
1636.47	1514.11
1635.62	1519.76
1634.78	1569.76
1633.93	1486.73
1633.08	1572.18
1632.24	1536.45
1631.39	1583.45
1630.55	1532.97
1629.7	1544.52
1628.85	1591.5
1628.01	1532.18
1627.16	1570.29
1626.31	1602.49
1625.46	1608.12
1624.62	1575.39
1623.77	1592.82
1622.92	1686.92
1622.07	1671.89
1621.23	1745.3
1620.38	1727.32
1619.53	1874.38
1618.68	1835.75
1617.83	2000.42
1616.98	2241.62
1616.13	2423.83
1615.29	2653.1
1614.44	2693.86
1613.59	2775.82
1612.74	2848.92
1611.89	2810.18
1611.04	2721.44
1610.19	2720.97
1609.34	2567.57
1608.49	2428.92
1607.64	2281.5
1606.79	2198.8
1605.94	2001.51
1605.09	2012.92
1604.24	1933.25
1603.38	1912.35
1602.53	1806.29
1601.68	1946.93
1600.83	1773.37
1599.98	1699.68
1599.13	1658.3
1598.27	1663.88
1597.42	1690
1596.57	1657.45
1595.72	1704.09
1594.87	1609.96
1594.01	1636.07
1593.16	1641.65
1592.31	1606.2
1591.45	1652.81
1590.6	1623.23
1589.75	1661.03
1588.89	1537.73
1588.04	1566.75
1587.19	1645.54
1586.33	1525.23
1585.48	1563.02
1584.62	1568.6
1583.77	1641.48
1582.92	1588.54
1582.06	1643.84
1581.21	1608.47
1580.35	1628.66
1579.5	1631.3
1578.64	1616.41
1577.78	1619.05
1576.93	1674.29
1576.07	1636.02
1575.22	1732.14
1574.36	1641.3
1573.51	1661.46
1572.65	1608.63
1571.79	1611.27
1570.94	1622.67
1570.08	1601.96
1569.22	1730.05
1568.37	1604.33
1567.51	1624.47
1566.65	1597.94
1565.79	1638.49
1564.94	1609.05
1564.08	1675.81
1563.22	1558.96
1562.36	1634.45
1561.5	1657.47
1560.65	1709.61
1559.79	1584.1
1558.93	1615.85
1558.07	1679.62
1557.21	1629.85
1556.35	1615.02
1555.49	1547.82
1554.63	1716.28
1553.77	1637.45
1552.91	1631.36
1552.05	1700.85
1551.19	1627.89
1550.33	1697.36
1549.47	1662.2
1548.61	1595.09
1547.75	1638.39
1546.89	1707.81
1546.03	1713.32
1545.17	1596.89
1544.31	1582.1
1543.45	1607.95
1542.58	1665.71
1541.72	1584.19
1540.86	1714.46
1540	1711.26
1539.14	1681.97
1538.28	1699.07
1537.41	1681.39
1536.55	1628.93
1535.69	1619.95
1534.82	1648.65
1533.96	1622.29
1533.1	1636.49
1532.24	1615.94
1531.37	1714.1
1530.51	1658.81
1529.64	1589.05
1528.78	1675.6
1527.92	1634.8
1527.05	1640.3
1526.19	1692.09
1525.32	1613.71
1524.46	1700.18
1523.59	1720.12
1522.73	1604.2
1521.86	1658.84
1521	1661.44
1520.13	1675.6
1519.27	1704.19
1518.4	1706.79
1517.54	1729.59
1516.67	1662.89
1515.8	1717.45
1514.94	1748.9
1514.07	1638.95
1513.21	1661.75
1512.34	1698.96
1511.47	1695.78
1510.6	1675.3
1509.74	1686.55
1508.87	1732.38
1508	1648.5
1507.14	1668.38
1506.27	1748.76
1505.4	1607.32
1504.53	1719.36
1503.66	1638.44
1502.8	1715.89
1501.93	1692.56
1501.06	1692.27
1500.19	1755.28
1499.32	1740.59
1498.45	1691.39
1497.58	1676.72
1496.71	1782.83
1495.84	1748.02
1494.97	1747.72
1494.1	1701.43
1493.23	1718.38
1492.36	1680.73
1491.49	1746.51
1490.62	1683.02
1489.75	1786.1
1488.88	1662.34
1488.01	1779.75
1487.14	1724.91
1486.27	1641.39
1485.4	1721.44
1484.52	1761.3
1483.65	1674.96
1482.78	1634.52
1481.91	1760.39
1481.04	1731.42
1480.17	1702.46
1479.29	1822.52
1478.42	1699
1477.55	1778.92
1476.67	1767.15
1475.8	1829.85
1474.93	1795.17
1474.06	1814.9
1473.18	1688.65
1472.31	1802.83
1471.43	1730.99
1470.56	1796.48
1469.69	1758.99
1468.81	1758.68
1467.94	1741.22
1467.06	1689.47
1466.19	1746.34
1465.31	1740.32
1464.44	1725.73
1463.56	1833.99
1462.69	1859.37
1461.81	1807.65
1460.94	1727.39
1460.06	1761.35
1459.19	1812.42
1458.31	1854.91
1457.43	1797.52
1456.56	1745.86
1455.68	1842.54
1454.8	1896.4
1453.93	1782.02
1453.05	1847.28
1452.17	1878.31
1451.3	1889.39
1450.42	1775.09
1449.54	1871.64
1448.66	1771.62
1447.78	1899.47
1446.91	1833.65
1446.03	1901.65
1445.15	1875.71
1444.27	1855.46
1443.39	1815.31
1442.51	1769.47
1441.64	1854.5
1440.76	1876.92
1439.88	1833.95
1439	1782.46
1438.12	1847.52
1437.24	1886.99
1436.36	1773.01
1435.48	1789.74
1434.6	1826.36
1433.72	1814.68
1432.84	1763.26
1431.96	1848.12
1431.08	1864.83
1430.2	1736.8
1429.31	1804.59
1428.43	1747.54
1427.55	1733.06
1426.67	1789.47
1425.79	1800.5
1424.91	1760.5
1424.02	1794.21
1423.14	1881.75
1422.26	1816.25
1421.38	1943.42
1420.49	1835.45
1419.61	1741.68
1418.73	1826.32
1417.85	1865.63
1416.96	1859.65
1416.08	1808.38
1415.2	1850.51
1414.31	1881.31
1413.43	1847.04
1412.54	1894.8
1411.66	1917.09
1410.78	1874.35
1409.89	1885.33
1409.01	1924.57
1408.12	1887.5
1407.24	1904.12
1406.35	1889.67
1405.47	1748.13
1404.58	1857.95
1403.7	1781.4
1402.81	1933.51
1401.92	1820.29
1401.04	1867.94
1400.15	1887.36
1399.27	1881.39
1398.38	1852.86
1397.49	1849.72
1396.61	1894.51
1395.72	1891.36
1394.83	1854.39
1393.94	1839.98
1393.06	1870.65
1392.17	1808.36
1391.28	1886.9
1390.39	1861.23
1389.51	1860.9
1388.62	1953.46
1387.73	1871.51
1386.84	1817.72
1385.95	1907.43
1385.06	1850.84
1384.17	1870.21
1383.29	1791.15
1382.4	1858.31
1381.51	1824.25
1380.62	1919.49
1379.73	1893.86
1378.84	1904.77
1377.95	1822.98
1377.06	1912.53
1376.17	1875.7
1375.28	1914.67
1374.39	1858.2
1373.5	1863.49
1372.6	1930.51
1371.71	1885.28
1370.82	1882.15
1369.93	1940.71
1369.04	1931.96
1368.15	1900.79
1367.26	1936.9
1366.36	1925.35
1365.47	1927.81
1364.58	1874.25
1363.69	1840.31
1362.79	1856.79
1361.9	1954.47
1361.01	1954.13
1360.11	1816.63
1359.22	1821.91
1358.33	1813.2
1357.43	1790.5
1356.54	1899.27
1355.65	1826.23
1354.75	1865.06
1353.86	1831.18
1352.96	1917.51
1352.07	1903.21
1351.17	1869.34
1350.28	1866.22
1349.39	1815.62
1348.49	1809.71
1347.59	1907.13
1346.7	1862.13
1345.8	1867.38
1344.91	1925.66
1344.01	1894.63
1343.12	1813.4
1342.22	1857.71
1341.32	1871.33
1340.43	1843.12
1339.53	1920.86
1338.63	1953.97
1337.74	1920.18
1336.84	1883.62
1335.94	1894.44
1335.04	1891.32
1334.15	1929.98
1333.25	1868.38
1332.35	1973.85
1331.45	1940.1
1330.55	1975.94
1329.66	1858.73
1328.76	1933.52
1327.86	1994.37
1326.96	1955.09
1326.06	1888.01
1325.16	1907.14
1324.26	1931.83
1323.36	1939.82
1322.46	1914.48
1321.56	1941.92
1320.66	2019.36
1319.76	1919.03
1318.86	1893.7
1317.96	1912.8
1317.06	1967.98
1316.16	1987.06
1315.26	1958.97
1314.36	1905.91
1313.46	2116.38
1312.55	2116.01
1311.65	2076.82
1310.75	2059.83
1309.85	2037.29
1308.95	2086.82
1308.04	2075.37
1307.14	2196.9
1306.24	2058.02
1305.34	2151.82
1304.43	2137.6
1303.53	2095.7
1302.63	2056.58
1301.72	1964.89
1300.82	2130.56
1299.92	2096.99
1299.01	2088.33
1298.11	2123.91
1297.21	2200.96
1296.3	2195.04
1295.4	2205.71
1294.49	2302.05
1293.59	2332.04
1292.68	2292.96
1291.78	2267.69
1290.87	2452.33
1289.97	2424.28
1289.06	2233.37
1288.16	2274.38
1287.25	2365.05
1286.34	2279.1
1285.44	2389.05
1284.53	2358.29
1283.62	2239.29
1282.72	2327.13
1281.81	2268.83
1280.9	2221.58
1280	2232.21
1279.09	2289.68
1278.18	2154.29
1277.27	2120.86
1276.37	2255.42
1275.46	2282.56
1274.55	2144.52
1273.64	2113.86
1272.73	2204.3
1271.82	2157.14
1270.92	2126.5
1270.01	2167.39
1269.1	2134
1268.19	2064.89
1267.28	2072.77
1266.37	2044.92
1265.46	2063.8
1264.55	2123.89
1263.64	2123.51
1262.73	2059.97
1261.82	2015.67
1260.91	2020.8
1260	2017.7
1259.09	2072.24
1258.18	2060.9
1257.27	2019.38
1256.35	2027.25
1255.44	1980.27
1254.53	2034.77
1253.62	1979.57
1252.71	2009.38
1251.79	1921.32
1250.88	1984.01
1249.97	2013.8
1249.06	1975.09
1248.14	1982.96
1247.23	1979.87
1246.32	1960.36
1245.41	1965.49
1244.49	2055.46
1243.58	1907.33
1242.66	1958.98
1241.75	2029.75
1240.84	1966.49
1239.92	1900.52
1239.01	1911.12
1238.09	2017.39
1237.18	2000.64
1236.26	1964.76
1235.35	2005.39
1234.43	1966.8
1233.52	1950.06
1232.6	1925.14
1231.69	1911.15
1230.77	1899.9
1229.86	1924.13
1228.94	1997.46
1228.02	1942.54
1227.11	1955.84
1226.19	1944.59
1225.27	2023.32
1224.36	1883.92
1223.44	1965.36
1222.52	1989.55
1221.6	2016.44
1220.69	2035.16
1219.77	1914.95
1218.85	2004.48
1217.93	1916.99
1217.01	1930.27
1216.1	1946.26
1215.18	1964.97
1214.26	1910.2
1213.34	1882.65
1212.42	1969.36
1211.5	1909.18
1210.58	1936.04
1209.66	1938.42
1208.74	1916.33
1207.82	1983.93
1206.9	1967.28
1205.98	1983.23
1205.06	1966.58
1204.14	2001.54
1203.22	1979.46
1202.3	1916.67
1201.38	1905.48
1200.46	1916
1199.54	1923.8
1198.61	1972.29
1197.69	1939.39
1196.77	1990.58
1195.85	1908.88
1194.93	2041.38
1194	2003.07
1193.08	2035.24
1192.16	1948.17
1191.24	1980.34
1190.31	1914.98
1189.39	2009.43
1188.47	1979.29
1187.54	1968.11
1186.62	2065.2
1185.7	1978.24
1184.77	1915.65
1183.85	2145.26
1182.92	2001.53
1182	1990.36
1181.07	2065.71
1180.15	1959.92
1179.23	2000.11
1178.3	2126.77
1177.37	2031.83
1176.45	2093.6
1175.52	2050.01
1174.6	2133.36
1173.67	2078.99
1172.75	2081.32
1171.82	2032.37
1170.89	2102.17
1169.97	2064.02
1169.04	2001.61
1168.11	2068.69
1167.19	2019.78
1166.26	1949.32
1165.33	2021.76
1164.4	1999.84
1163.48	2010.26
1162.55	1996.44
1161.62	1888.33
1160.69	1909.54
1159.76	2070.77
1158.83	1957.33
1157.91	1970.44
1156.98	1956.63
1156.05	1975.12
1155.12	1937.11
1154.19	2014.77
1153.26	1877.25
1152.33	1954.9
1151.4	2000.26
1150.47	1989.15
1149.54	2002.23
1148.61	2077.12
1147.68	2082.12
1146.75	2006.54
1145.82	2051.84
1144.89	2019.25
1143.96	1967.89
1143.02	1978.27
1142.09	2069.17
1141.16	2023.19
1140.23	1993.32
1139.3	1990.28
1138.36	1965.79
1137.43	2102.19
1136.5	2053.56
1135.57	2039.8
1134.63	2087.67
1133.7	2124.81
1132.77	2036.03
1131.83	2126.74
1130.9	2118.32
1129.97	2112.59
1129.03	2039.94
1128.1	2181.43
1127.17	2114.14
1126.23	2204.74
1125.3	2105.37
1124.36	2217.33
1123.43	2270.42
1122.49	2144.35
1121.56	2194.76
1120.62	2218.42
1119.69	2212.69
1118.75	2222.98
1117.81	2310.74
1116.88	2235.54
1115.94	2224.46
1115.01	2226.74
1114.07	2167.61
1113.13	2260.64
1112.2	2164.17
1111.26	2107.76
1110.32	2160.74
1109.38	2200.36
1108.45	2234.63
1107.51	2196.91
1106.57	2223.17
1105.63	2113.5
1104.69	2190.41
1103.76	2192.68
1102.82	2133.69
1101.88	2271.8
1100.94	2260.74
1100	2161.83
1099.06	2148.14
1098.12	2147.75
1097.18	2192.61
1096.24	2205.52
1095.3	2143.95
1094.36	2090.37
1093.42	2113.93
1092.48	2129.51
1091.54	2179.63
1090.6	2102.17
1089.66	2072.57
1088.72	2138.62
1087.78	2135.58
1086.84	2135.2
1085.9	2041.88
1084.95	2145.06
1084.01	2067.7
1083.07	2064.68
1082.13	2061.65
1081.19	2132.91
1080.24	2068.88
1079.3	2087.07
1078.36	2092
1077.41	2059.82
1076.47	2080.65
1075.53	2127.98
1074.58	2106.41
1073.64	1973.58
1072.7	1991.76
1071.75	2102.63
1070.81	2049.3
1069.86	2027.76
1068.92	2030.04
1067.98	1963.52
1067.03	2098.11
1066.09	2103.02
1065.14	2084.13
1064.19	2102.27
1063.25	2019.94
1062.3	2038.08
1061.36	2093.22
1060.41	2076.99
1059.46	2076.62
1058.52	2033.98
1057.57	2157.75
1056.63	2035.9
1055.68	2085.69
1054.73	2027.25
1053.78	2061.2
1052.84	2050.27
1051.89	2195.01
1050.94	2025.8
1049.99	2123.02
1049.05	2141.1
1048.1	2122.26
1047.15	2055.98
1046.2	2150.49
1045.25	2136.93
1044.3	2057.51
1043.35	2194.11
1042.4	2141.05
1041.45	2122.24
1040.5	2082.37
1039.55	2145.16
1038.6	2118.46
1037.65	2104.93
1036.7	2104.55
1035.75	2119.96
1034.8	2103.8
1033.85	2108.68
1032.9	2171.4
1031.95	2071.13
1031	2160.11
1030.05	2214.89
1029.1	2230.26
1028.14	2103.79
1027.19	2137.55
1026.24	2210.68
1025.29	2113.16
1024.33	2186.27
1023.38	2143.89
1022.43	2106.78
1021.48	2185.09
1020.52	2174.21
1019.57	2228.89
1018.62	2223.25
1017.66	2186.15
1016.71	2159.55
1015.75	2093.65
1014.8	2205.93
1013.85	2147.91
1012.89	2181.57
1011.94	2094.77
1010.98	2199.12
1010.03	2088.79
1009.07	2148.6
1008.12	2140.37
1007.16	2032.72
1006.2	2097.75
1005.25	2170.6
1004.29	2107.46
1003.34	2167.21
1002.38	2151.13
1001.42	2176.88
1000.47	2168.65
999.508	2129.08
998.551	2272.35
997.594	2167.48
996.636	2185.37
995.679	2174.54
994.721	2166.32
993.763	2132
992.805	2215.11
991.846	2071.24
990.888	2167.37
989.929	2273.9
988.97	2203.09
988.011	2142.74
987.052	2217.94
986.093	2181.06
985.133	2102.51
984.173	2128.18
983.213	2229.37
982.253	2161.26
981.293	2218.15
980.333	2155.28
979.372	2201.74
978.411	2167.52
977.45	2190.54
976.489	2200.55
975.528	2150.74
974.566	2152.96
973.605	2113.57
972.643	2232.76
971.681	2193.38
970.719	2231.96
969.756	2153.62
968.794	2197.39
967.831	2074.94
966.868	2144.67
965.905	2198.8
964.942	2190.62
963.979	2146.11
963.015	2174.26
962.052	2173.87
961.088	2279.82
960.124	2294.97
959.159	2203.81
958.195	2229.33
957.23	2241.89
956.266	2244.08
955.301	2217.77
954.336	2207
953.37	2180.71
952.405	2201.03
951.439	2174.74
950.473	2034.57
949.507	2153.26
948.541	2238.26
947.575	2186.11
946.608	2263.32
945.642	2216.36
944.675	2239.23
943.708	2269.85
942.741	2220.33
941.773	2217.35
940.806	2204.03
939.838	2250.13
938.87	2203.23
937.902	2238.99
936.934	2176.62
935.965	2160.74
934.997	2263.59
934.028	2216.73
933.059	2265.35
932.09	2203.03
931.121	2280.01
930.151	2222.87
929.182	2292.08
928.212	2304.56
927.242	2201.05
926.272	2283.11
925.301	2282.7
924.331	2274.56
923.36	2279.3
922.389	2186.19
921.418	2291.35
920.447	2296.08
919.475	2285.37
918.504	2158.88
917.532	2256.25
916.56	2312.43
915.588	2237.43
914.616	2198.46
913.643	2195.49
912.671	2282.48
911.698	2240.95
910.725	2255.97
909.752	2309.51
908.779	2319.36
907.805	2311.24
906.831	2349.34
905.858	2333.51
904.883	2322.82
903.909	2332.67
902.935	2314.28
901.96	2270.26
900.986	2390.39
900.011	2356.62
899.036	2379.27
898.06	2419.85
897.085	2432.23
896.109	2385.67
895.133	2469.78
894.157	2507.76
893.181	2435.59
892.205	2337.85
891.229	2363.03
890.252	2452.19
889.275	2385.21
888.298	2464.1
887.321	2455.98
886.343	2537.38
885.366	2470.43
884.388	2513.45
883.41	2472.09
882.432	2354.07
881.454	2420.09
880.475	2501.41
879.497	2480.52
878.518	2372.8
877.539	2428.55
876.56	2494.49
875.58	2463.41
874.601	2429.78
873.621	2505.9
872.641	2566.68
871.661	2515.19
870.681	2435.67
869.701	2529.58
868.72	2508.73
867.739	2500.62
866.758	2456.85
865.777	2515.01
864.796	2496.72
863.815	2516.64
862.833	2615.51
861.851	2536.1
860.869	2749.49
859.887	2662.45
858.905	2758.67
857.922	2893.03
856.939	2800.92
855.956	2853.82
854.973	2794.82
853.99	2875.67
853.007	2707.37
852.023	2823.79
851.039	2775
850.055	2665.24
849.071	2573.31
848.087	2654.12
847.102	2531.75
846.118	2467.81
845.133	2647.59
844.148	2636.96
843.163	2580.66
842.177	2539.6
841.192	2539.13
840.206	2538.67
839.22	2444.39
838.234	2540.29
837.248	2582.92
836.261	2590.05
835.274	2533.83
834.288	2508.04
833.301	2502.52
832.313	2491.93
831.326	2547.19
830.339	2516.34
829.351	2518.42
828.363	2535.67
827.375	2509.91
826.387	2527.16
825.398	2549.47
824.409	2543.95
823.421	2523.26
822.432	2628.97
821.443	2512.23
820.453	2534.51
819.464	2645.22
818.474	2596.74
817.484	2464.94
816.494	2514.99
815.504	2524.64
814.513	2536.8
813.523	2523.72
812.532	2518.21
811.541	2537.94
810.55	2512.25
809.559	2529.45
808.567	2579.41
807.575	2515.92
806.583	2545.71
805.591	2565.4
804.599	2630.45
803.607	2506.53
802.614	2599.26
801.621	2568.57
800.628	2532.86
799.635	2532.39
798.642	2589.82
797.649	2571.73
796.655	2510.88
795.661	2628.65
794.667	2630.69
793.673	2642.78
792.678	2647.33
791.684	2649.36
790.689	2581.02
789.694	2635.83
788.699	2421.81
787.704	2579.61
786.708	2486.22
785.713	2546.03
784.717	2628.41
783.721	2622.91
782.724	2539.61
781.728	2514.06
780.731	2498.55
779.735	2447.93
778.738	2537.76
777.741	2499.69
776.743	2544.36
775.746	2411.06
774.748	2460.73
773.75	2515.4
772.752	2567.55
771.754	2499.46
770.756	2488.99
769.757	2563.64
768.758	2538.14
767.759	2477.61
766.76	2539.72
765.761	2556.76
764.761	2453.74
763.762	2518.32
762.762	2587.87
761.762	2522.4
760.762	2621.91
759.761	2618.94
758.761	2555.99
757.76	2597.99
756.759	2607.51
755.758	2609.53
754.756	2571.6
753.755	2636.04
752.753	2543.21
751.751	2435.44
750.749	2644.57
749.747	2629.12
748.745	2556.31
747.742	2673.04
746.739	2615.21
745.736	2554.91
744.733	2579.36
743.73	2581.38
742.726	2648.18
741.723	2558.02
740.719	2567.52
739.715	2577.01
738.71	2656.2
737.706	2576.06
736.701	2580.57
735.697	2652.25
734.692	2584.6
733.686	2748.28
732.681	2663.23
731.675	2690.09
730.67	2622.48
729.664	2537.5
728.658	2693.58
727.651	2593.71
726.645	2588.27
725.638	2590.28
724.631	2743.75
723.624	2641.46
722.617	2650.91
721.61	2660.35
720.602	2597.83
719.595	2661.85
718.587	2639.04
717.578	2715.43
716.57	2605.84
715.562	2692.13
714.553	2634.63
713.544	2777.87
712.535	2683.21
711.526	2712.45
710.516	2625.27
709.507	2704.02
708.497	2745.62
707.487	2720.36
706.477	2687.69
705.467	2768.85
704.456	2807.92
703.445	2755.47
702.434	2829.15
701.423	2784.13
700.412	2835.53
699.401	2778.16
698.389	2765.29
697.377	2720.31
696.365	2625.94
695.353	2724.25
694.34	2696.59
693.328	2718.32
692.315	2727.69
691.302	2744.47
690.289	2709.42
689.276	2652.17
688.262	2755.29
687.249	2641.34
686.235	2778.93
685.221	2766.1
684.206	2689.18
683.192	2772.47
682.177	2725.15
681.162	2734.5
680.147	2682.27
679.132	2856.63
678.117	2833.94
677.101	2855.58
676.086	2805.83
675.07	2800.39
674.054	2711.3
673.037	2708.34
672.021	2720.14
671.004	2714.72
669.987	2628.18
668.97	2814.51
667.953	2730.43
666.936	2845.41
665.918	2852.26
664.9	2709.27
663.882	2831.57
662.864	2698.45
661.846	2796.15
660.827	2751.46
659.808	2780.4
658.789	2799.52
657.77	2845.61
656.751	2805.84
655.731	2783.26
654.712	2812.17
653.692	2765.07
652.672	2769.47
651.652	2817.96
650.631	2802.75
649.611	2760.59
648.59	2816.41
647.569	2835.48
646.548	2773.75
645.526	2812.4
644.505	2846.15
643.483	2784.45
642.461	2872.01
641.439	2856.8
640.417	2782.91
639.394	2875.31
638.371	2931
637.348	2901.13
636.325	2900.6
635.302	2904.95
634.279	3033.88
633.255	3243.36
632.231	3291.6
631.207	3278.78
630.183	3217.15
629.159	3084.77
628.134	2896.32
627.109	2873.83
626.084	2795.25
625.059	2948.37
624.034	2906.38
623.008	2847.33
621.983	2858.99
620.957	2904.77
619.931	2787.28
618.904	2874.46
617.878	2949.43
616.851	2907.49
615.824	2906.95
614.797	2903.98
613.77	2986.19
612.743	2932.11
611.715	2931.57
610.687	2906.7
609.659	2879.42
608.631	2839.98
607.603	2875.92
606.574	2941.01
605.546	2845.7
604.517	2905.91
603.487	2917.52
602.458	2863.55
601.429	2838.74
600.399	2845.49
599.369	2929.93
598.339	2897.84
597.309	2904.58
596.278	2862.8
595.248	3015.09
594.217	2983
593.186	3013.97
592.155	2821.89
591.123	3046.79
590.091	2852.35
589.06	2953.59
588.028	2943.35
586.996	2921.01
585.963	2881.72
584.931	2970.77
583.898	2912.13
582.865	2901.91
581.832	3058.66
580.798	3021.8
579.765	3045.43
578.731	2861.06
577.697	2911.31
576.663	2954.29
575.629	2990
574.594	2924.19
573.56	2928.48
572.525	2983.5
571.49	3036.09
570.455	2902.71
569.419	2873.2
568.384	2988.54
567.348	2908.33
566.312	3011.56
565.276	2924.14
564.239	2926.02
563.203	2944.77
562.166	3081.67
561.129	2970.19
560.092	2984.11
559.054	2971.5
558.017	3009.5
556.979	3090.86
555.941	2931.31
554.903	3043.95
553.865	3009.68
552.826	2958.57
551.787	2962.83
550.749	2957.47
549.709	2964.14
548.67	2932.32
547.631	2936.58
546.591	2873.52
545.551	3002.81
544.511	2966.2
543.471	2994.49
542.43	2998.74
541.39	3019.8
540.349	2875.12
539.308	3076.31
538.267	3049.33
537.225	3048.77
536.184	3026.6
535.142	3107.63
534.1	3135.84
533.058	3024.91
532.015	2993.17
530.973	2927.87
529.93	2924.93
528.887	2883.63
527.844	2878.31
526.801	2894.54
525.757	2946.71
524.713	2955.74
523.669	2907.3
522.625	3021.69
521.581	3018.73
520.537	3066.04
519.492	3072.65
518.447	3100.79
517.402	3045.19
516.357	2910.69
515.311	3046.45
514.265	3057.84
513.22	2966.44
512.174	2963.49
511.127	2912.76
510.081	2912.22
509.034	2964.23
507.987	2837.1
506.94	2798.37
505.893	2776.37
504.846	2907.12
503.798	2868.4
502.75	2972.85
501.702	3058.17
500.654	2912.11
499.606	3011.72
