3200.54	12.6294
3199.95	33.6783
3199.35	16.8366
3198.76	29.4596
3198.16	21.0394
3197.57	25.2435
3196.98	33.6529
3196.38	21.0299
3195.79	21.0267
3195.19	8.40941
3194.6	-4.20407
3194	8.40686
3193.41	21.014
3192.81	25.213
3192.22	37.8137
3191.62	21.0045
3191.03	21.0013
3190.43	58.7947
3189.84	16.7959
3189.24	25.1901
3188.65	33.5817
3188.05	20.9854
3187.45	33.5716
3186.86	8.39162
3186.26	29.3662
3185.67	16.7782
3185.07	33.5512
3184.47	20.9664
3183.88	20.9632
3183.28	25.152
3182.69	41.9137
3182.09	46.0981
3181.49	12.5703
3180.9	16.7579
3180.3	4.18883
3179.7	16.7528
3179.1	41.8756
3178.51	33.4954
3177.91	25.1178
3177.31	25.114
3176.72	33.4802
3176.12	25.1064
3175.52	29.2863
3174.92	16.7325
3174.33	29.2775
3173.73	-12.5456
3173.13	4.18123
3172.53	33.4447
3171.93	25.0798
3171.34	8.35865
3170.74	12.5361
3170.14	20.8903
3169.54	54.3066
3168.94	12.5304
3168.34	29.2331
3167.74	12.5266
3167.15	4.1749
3166.55	33.3941
3165.95	16.6945
3165.35	8.346
3164.75	29.2066
3164.15	20.8587
3163.55	12.5133
3162.95	37.5342
3162.35	8.33968
3161.75	-4.16921
3161.15	16.6743
3160.55	8.33588
3159.95	20.8365
3159.35	20.8334
3158.75	20.8302
3158.15	16.6617
3157.55	20.8239
3156.95	29.1491
3156.35	29.1446
3155.75	20.8144
3155.15	45.7848
3154.55	33.293
3153.95	33.288
3153.35	62.4055
3152.75	8.31947
3152.15	37.4319
3151.54	29.1093
3150.94	49.8941
3150.34	20.786
3149.74	29.096
3149.14	20.7797
3148.54	29.0872
3147.94	16.6187
3147.33	29.0784
3146.73	12.4603
3146.13	16.6112
3145.53	8.30433
3144.93	45.6669
3144.32	4.1509
3143.72	37.3525
3143.12	-4.14964
3142.52	37.3411
3141.91	16.5935
3141.31	33.182
3140.71	16.5885
3140.1	8.29299
3139.5	12.4376
3138.9	8.29047
3138.29	20.723
3137.69	16.5759
3137.09	20.7167
3136.48	4.14272
3135.88	20.7104
3135.28	28.9902
3134.67	16.5633
3134.07	28.9814
3133.47	62.0936
3132.86	24.8337
3132.26	45.5215
3131.65	12.4131
3131.05	24.8223
3130.45	33.0914
3129.84	24.8148
3129.24	0
3128.63	45.48
3128.03	37.2052
3127.42	24.7997
3126.82	24.796
3126.21	37.1883
3125.61	12.3942
3125	12.3923
3124.4	12.3904
3123.79	37.1657
3123.19	-4.12889
3122.58	-4.12826
3121.97	33.0211
3121.37	33.0161
3120.76	16.5055
3120.16	16.503
3119.55	33.001
3118.94	24.747
3118.34	24.7432
3117.73	41.2324
3117.13	24.7357
3116.52	4.12199
3115.91	24.7282
3115.31	0
3114.7	28.8407
3114.09	32.9558
3113.48	12.3566
3112.88	41.1823
3112.27	24.7056
3111.66	37.0528
3111.06	16.4654
3110.45	24.6943
3109.84	32.9208
3109.23	24.6868
3108.63	32.9107
3108.02	20.5661
3107.41	28.7881
3106.8	20.5598
3106.19	28.7794
3105.59	45.2178
3104.98	53.4311
3104.37	41.0946
3103.76	16.4353
3103.15	8.21641
3102.54	0
3101.93	24.6417
3101.33	41.0633
3100.72	36.9513
3100.11	24.6305
3099.5	28.7312
3098.89	36.9345
3098.28	16.4128
3097.67	24.6155
3097.06	20.5098
3096.45	24.608
3095.84	24.6042
3095.23	53.301
3094.62	16.3978
3094.01	28.6918
3093.4	61.4731
3092.79	40.9758
3092.18	45.0665
3091.57	45.0596
3090.96	36.8614
3090.35	40.9508
3089.74	16.3778
3089.13	32.7507
3088.52	53.2117
3087.91	53.2036
3087.3	4.09196
3086.69	12.274
3086.08	16.3629
3085.46	32.7207
3084.85	28.6263
3084.24	24.5331
3083.63	49.0586
3083.02	24.5256
3082.41	53.1306
3081.79	32.6908
3081.18	53.1144
3080.57	20.4255
3079.96	36.7603
3079.35	24.5031
3078.73	48.9988
3078.12	40.8261
3077.51	40.8199
3076.9	40.8136
3076.28	20.4037
3075.67	12.2404
3075.06	36.7155
3074.45	40.7887
3073.83	32.626
3073.22	32.621
3072.61	44.8471
3071.99	44.8402
3071.38	32.6061
3070.77	48.9017
3070.15	36.6706
3069.54	28.5173
3068.93	52.9525
3068.31	48.8718
3067.7	40.7203
3067.08	24.4284
3066.47	24.4247
3065.86	8.14033
3065.24	0
3064.63	32.5514
3064.01	44.7513
3063.4	40.6768
3062.78	28.4694
3062.17	24.3986
3061.55	20.3291
3060.94	40.6519
3060.32	60.9685
3059.71	40.6395
3059.09	12.19
3058.48	56.8779
3057.86	28.4346
3057.25	28.4303
3056.63	36.5476
3056.02	48.7227
3055.4	24.3576
3054.78	52.7668
3054.17	36.5253
3053.55	28.4042
3052.94	12.1714
3052.32	36.5085
3051.7	28.3912
3051.09	20.2763
3050.47	24.3278
3049.85	20.2701
3049.24	32.4272
3048.62	12.1583
3048	52.6781
3047.39	8.10308
3046.77	28.3564
3046.15	40.503
3045.53	40.4968
3044.92	12.1472
3044.3	20.2422
3043.68	36.4304
3043.06	28.3304
3042.45	8.09317
3041.83	16.1839
3041.21	36.4081
3040.59	24.2684
3039.97	32.3529
3039.35	0
3038.74	28.3001
3038.12	52.5493
3037.5	28.2914
3036.88	24.2461
3036.26	40.404
3035.64	12.1193
3035.02	44.4307
3034.41	40.3854
3033.79	40.3792
3033.17	36.3357
3032.55	32.2935
3031.93	24.2164
3031.31	36.319
3030.69	8.06966
3030.07	44.3763
3029.45	24.2016
3028.83	28.2308
3028.21	48.3883
3027.59	24.1904
3026.97	44.3424
3026.35	44.3356
3025.73	32.2391
3025.11	28.2049
3024.49	36.2579
3023.87	40.2804
3023.25	28.1919
3022.63	16.1072
3022	28.1833
3021.38	16.1023
3020.76	44.2745
3020.14	68.4137
3019.52	40.2372
3018.9	28.1617
3018.28	16.0899
3017.66	36.1968
3017.03	44.2337
3016.41	40.2063
3015.79	52.2602
3015.17	28.1358
3014.55	16.0751
3013.92	8.03633
3013.3	32.1404
3012.68	40.1693
3012.06	40.1632
3011.43	28.1099
3010.81	36.1358
3010.19	28.1013
3009.57	32.1108
3008.94	72.2383
3008.32	40.1262
3007.7	8.02401
3007.07	36.1025
3006.45	40.1078
3005.83	20.0508
3005.2	48.1145
3004.58	40.0893
3003.96	56.1164
3003.33	44.0847
3002.71	48.085
3002.08	24.0388
3001.46	48.0703
3000.84	40.0524
3000.21	56.0647
2999.59	32.0321
2998.96	16.0136
2998.34	48.0334
2997.71	36.0195
2997.09	28.0109
2996.46	32.0075
2995.84	56.0045
2995.21	11.9991
2994.59	31.9927
2993.96	47.9817
2993.34	43.9765
2992.71	15.989
2992.09	39.9664
2991.46	55.9443
2990.84	43.9495
2990.21	39.9479
2989.58	15.9767
2988.96	47.9228
2988.33	23.9577
2987.71	19.9617
2987.08	71.8511
2986.45	35.92
2985.83	51.8765
2985.2	55.8584
2984.57	47.8713
2983.95	51.8526
2983.32	59.8207
2982.69	47.8492
2982.07	59.8023
2981.44	43.8483
2980.81	27.8992
2980.18	63.7597
2979.56	31.8749
2978.93	31.87
2978.3	63.7303
2977.67	43.8078
2977.05	23.8915
2976.42	55.7383
2975.79	31.8455
2975.16	39.8008
2974.53	39.7947
2973.91	79.5771
2973.28	31.8259
2972.65	59.6645
2972.02	51.7013
2971.39	47.7169
2970.76	63.6127
2970.13	39.7518
2969.5	47.6949
2968.88	47.6875
2968.25	51.6535
2967.62	63.5638
2966.99	31.777
2966.36	43.6867
2965.73	67.5053
2965.1	43.6732
2964.47	47.6362
2963.84	95.2576
2963.21	67.4638
2962.58	63.4855
2961.95	47.6068
2961.32	55.5327
2960.69	63.4562
2960.06	31.7232
2959.43	63.4367
2958.8	59.4627
2958.17	71.3443
2957.53	55.4814
2956.9	47.5482
2956.27	59.4261
2955.64	43.5724
2955.01	55.4473
2954.38	83.1581
2953.75	27.7151
2953.12	83.1324
2952.48	55.4131
2951.85	39.5747
2951.22	55.396
2950.59	39.5625
2949.96	51.4233
2949.33	47.4603
2948.69	59.3163
2948.06	35.5843
2947.43	67.2044
2946.8	31.6207
2946.16	63.2317
2945.53	55.3192
2944.9	39.5076
2944.26	47.4018
2943.63	59.2432
2943	47.3872
2942.37	35.5349
2941.73	67.1112
2941.1	39.4711
2940.47	74.9835
2939.83	55.2425
2939.2	51.2887
2938.56	55.2254
2937.93	67.0491
2937.3	59.1518
2936.66	39.4285
2936.03	31.5379
2935.39	43.3579
2934.76	35.4692
2934.13	31.5233
2933.49	39.3981
2932.86	43.3312
2932.22	47.2631
2931.59	59.0697
2930.95	55.1232
2930.32	51.1779
2929.68	35.4254
2929.05	39.3555
2928.41	55.0892
2927.78	35.409
2927.14	35.4035
2926.5	70.7962
2925.87	19.6626
2925.23	19.6595
2924.6	27.5191
2923.96	27.5148
2923.32	58.9512
2922.69	47.1537
2922.05	55.0042
2921.42	39.2826
2920.78	39.2766
2920.14	62.8328
2919.51	31.4115
2918.87	58.8875
2918.23	39.2523
2917.6	54.9447
2916.96	31.3921
2916.32	35.3107
2915.68	47.0736
2915.05	47.0664
2914.41	47.0591
2913.77	35.2889
2913.13	47.0445
2912.5	54.8768
2911.86	39.1917
2911.22	27.4299
2910.58	58.7693
2909.94	31.3388
2909.31	62.6679
2908.67	54.8259
2908.03	31.3242
2907.39	58.7239
2906.75	54.8005
2906.11	50.8783
2905.47	62.6097
2904.83	78.2501
2904.2	54.7666
2903.56	39.1129
2902.92	35.1962
2902.28	58.6512
2901.64	58.6422
2901	42.9976
2900.36	50.8075
2899.72	54.7073
2899.08	42.9776
2898.44	19.5323
2897.8	78.117
2897.16	58.5787
2896.52	42.951
2895.88	42.9444
2895.24	70.2618
2894.6	62.4452
2893.96	39.0222
2893.32	46.8194
2892.67	58.5152
2892.03	42.9045
2891.39	35.0983
2890.75	54.5888
2890.11	58.479
2889.47	66.2659
2888.83	81.8452
2888.19	58.4518
2887.54	50.6504
2886.9	46.747
2886.26	54.5297
2885.62	62.31
2884.98	62.3003
2884.33	50.6112
2883.69	89.5289
2883.05	23.3518
2882.41	27.2395
2881.77	62.2521
2881.12	54.4621
2880.48	62.2328
2879.84	50.5563
2879.19	31.1067
2878.55	73.867
2877.91	31.0971
2877.26	58.298
2876.62	31.0874
2875.98	34.968
2875.33	77.6945
2874.69	46.6095
2874.05	46.6023
2873.4	69.8925
2872.76	50.4701
2872.11	69.8709
2871.47	34.93
2870.83	81.4907
2870.18	38.7991
2869.54	27.1551
2868.89	46.5445
2868.25	69.8059
2867.6	42.6525
2866.96	62.0304
2866.31	58.1445
2865.67	50.3841
2865.02	62.0015
2864.38	61.9919
2863.73	42.6128
2863.09	54.2261
2862.44	69.7084
2861.8	42.593
2861.15	54.2008
2860.5	46.4506
2859.86	73.5354
2859.21	42.5665
2858.57	65.7744
2857.92	54.1588
2857.27	54.1504
2856.63	61.8765
2855.98	69.6003
2855.33	73.4555
2854.69	50.2513
2854.04	54.1083
2853.39	57.9642
2852.75	50.2278
2852.1	30.9046
2851.45	77.2496
2850.81	61.7901
2850.16	54.0579
2849.51	57.9102
2848.86	46.321
2848.21	65.6112
2847.57	65.601
2846.92	50.1576
2846.27	46.2922
2845.62	53.9991
2844.97	38.5648
2844.33	80.9735
2843.68	38.5528
2843.03	53.9656
2842.38	42.3949
2841.73	38.5349
2841.08	53.9404
2840.43	53.932
2839.78	50.0719
2839.14	50.0642
2838.49	53.9069
2837.84	46.1987
2837.19	65.438
2836.54	65.4278
2835.89	65.4176
2835.24	30.78
2834.59	23.0814
2833.94	76.926
2833.29	34.6113
2832.64	49.9863
2831.99	34.6005
2831.34	53.8147
2830.69	38.4331
2830.04	46.1125
2829.39	61.4738
2828.74	80.6718
2828.08	72.9774
2827.43	69.1257
2826.78	26.878
2826.13	49.9086
2825.48	53.7394
2824.83	76.7586
2824.18	53.7226
2823.53	57.551
2822.87	38.3614
2822.22	72.8752
2821.57	57.5241
2820.92	53.6808
2820.27	92.0099
2819.61	53.6641
2818.96	38.3255
2818.31	45.9835
2817.66	49.8077
2817	53.6307
2816.35	42.1318
2815.7	49.7844
2815.05	61.2636
2814.39	42.1121
2813.74	45.9333
2813.09	61.2349
2812.43	42.0924
2811.78	61.2158
2811.13	57.3809
2810.47	49.7224
2809.82	45.8904
2809.16	76.4721
2808.51	64.9912
2807.86	72.6258
2807.2	64.9709
2806.55	57.3183
2805.89	61.13
2805.24	80.2206
2804.58	76.3887
2803.93	68.7391
2803.28	30.5459
2802.62	53.4471
2801.97	76.341
2801.31	76.3291
2800.66	72.5014
2800	57.229
2799.34	61.0347
2798.69	53.3971
2798.03	41.9483
2797.38	68.6319
2796.72	34.3106
2796.07	57.1754
2795.41	68.5998
2794.75	57.1576
2794.1	91.4379
2793.44	45.7118
2792.79	72.3657
2792.13	57.1219
2791.47	83.7658
2790.82	49.4902
2790.16	76.1269
2789.5	64.6978
2788.84	41.8567
2788.19	68.4821
2787.53	87.4913
2786.87	64.6574
2786.22	53.2389
2785.56	53.2306
2784.9	45.6191
2784.24	68.418
2783.59	49.4053
2782.93	56.9972
2782.27	87.382
2781.61	56.9794
2780.95	60.7685
2780.29	72.1513
2779.64	75.9369
2778.98	37.9625
2778.32	72.1175
2777.66	45.5408
2777	72.095
2776.34	68.2898
2775.68	45.5194
2775.02	60.6831
2774.36	64.4657
2773.71	60.6641
2773.05	72.0274
2772.39	68.2258
2771.73	79.5843
2771.07	45.4697
2770.41	71.9824
2769.75	53.0313
2769.09	26.5115
2768.43	49.228
2767.77	60.5788
2767.11	22.7135
2766.45	56.7749
2765.79	60.5504
2765.12	71.8924
2764.46	75.6643
2763.8	64.3046
2763.14	52.9485
2762.48	68.0659
2761.82	45.3702
2761.16	64.2644
2760.5	71.8137
2759.83	71.8024
2759.17	90.6836
2758.51	83.1136
2757.85	71.7687
2757.19	56.6506
2756.53	49.0895
2755.86	33.9797
2755.2	60.399
2754.54	64.1639
2753.88	86.7964
2753.21	86.7828
2752.55	60.3612
2751.89	45.2638
2751.23	60.3423
2750.56	60.3328
2749.9	45.2425
2749.24	49.0051
2748.57	82.9186
2747.91	82.9057
2747.25	90.4284
2746.58	52.7416
2745.92	71.5667
2745.25	60.2573
2744.59	48.9513
2743.93	71.5331
2743.26	45.1717
2742.6	75.2744
2741.93	63.9732
2741.27	45.1505
2740.61	52.6673
2739.94	71.4658
2739.28	56.4116
2738.61	63.9231
2737.95	30.0767
2737.28	78.939
2736.62	71.4098
2735.95	82.6721
2735.29	82.6591
2734.62	45.0797
2733.95	75.1211
2733.29	67.5984
2732.62	60.078
2731.96	48.8058
2731.29	71.3203
2730.62	63.8029
2729.96	75.0505
2729.29	60.0309
2728.63	75.0269
2727.96	71.2644
2727.29	71.2532
2726.63	74.9916
2725.96	63.7329
2725.29	33.7356
2724.62	89.9476
2723.96	74.9445
2723.29	74.9328
2722.62	59.9368
2721.96	59.9274
2721.29	63.6629
2720.62	67.3972
2719.95	63.6429
2719.28	86.0916
2718.62	48.6528
2717.95	97.2904
2717.28	74.827
2716.61	74.8152
2715.94	63.583
2715.27	78.5313
2714.61	108.431
2713.94	44.8609
2713.27	112.135
2712.6	74.7448
2711.93	59.7864
2711.26	63.5131
2710.59	70.9741
2709.92	74.6978
2709.25	78.4204
2708.58	44.8046
2707.91	74.6626
2707.24	70.9183
2706.57	82.103
2705.9	55.9706
2705.23	67.1541
2704.56	63.4134
2703.89	70.8626
2703.22	70.8515
2702.55	89.4825
2701.88	63.3735
2701.21	81.9999
2700.54	48.4468
2699.87	70.7958
2699.2	67.0592
2698.53	63.3237
2697.86	81.9354
2697.19	78.1988
2696.51	81.9096
2695.84	52.1161
2695.17	74.4399
2694.5	59.5425
2693.83	63.254
2693.15	89.2857
2692.48	100.431
2691.81	78.1004
2691.14	63.2142
2690.47	52.0506
2689.79	74.3463
2689.12	96.6349
2688.45	85.4713
2687.77	92.8889
2687.1	70.5845
2686.43	74.2878
2685.76	70.5623
2685.08	103.97
2684.41	51.9769
2683.74	55.6807
2683.06	66.8064
2682.39	74.2176
2681.71	59.3647
2681.04	66.7748
2680.37	63.0552
2679.69	74.1709
2679.02	88.991
2678.34	77.8549
2677.67	70.4291
2676.99	77.8304
2676.32	81.5237
2675.65	85.2159
2674.97	66.6802
2674.3	77.7813
2673.62	77.7691
2672.95	81.4595
2672.27	59.234
2671.59	77.7323
2670.92	77.7201
2670.24	103.61
2669.57	88.7949
2668.89	59.1873
2668.22	88.767
2667.54	107.243
2666.86	55.4619
2666.19	85.0281
2665.51	51.7481
2664.83	33.2614
2664.16	73.9025
2663.48	81.28
2662.8	92.349
2662.13	81.2543
2661.45	81.2415
2660.77	88.6131
2660.1	77.5242
2659.42	51.6747
2658.74	73.8093
2658.06	107.007
2657.39	84.8539
2656.71	66.397
2656.03	62.6983
2655.35	62.6885
2654.68	62.6786
2654	73.7278
2653.32	70.0304
2652.64	70.0193
2651.96	88.4315
2651.28	81.0494
2650.6	77.3532
2649.93	88.3897
2649.25	77.3287
2648.57	80.9983
2647.89	62.5797
2647.21	73.6115
2646.53	58.8799
2645.85	69.9089
2645.17	106.686
2644.49	40.4608
2643.81	95.6195
2643.13	73.5418
2642.45	88.2363
2641.77	73.5186
2641.09	69.8316
2640.41	58.7963
2639.73	69.8096
2639.05	62.4513
2638.37	88.1526
2637.69	88.1387
2637.01	80.7811
2636.33	62.4119
2635.65	77.0848
2634.96	47.7116
2634.28	73.3909
2633.6	80.7172
2632.92	69.6993
2632.24	88.0273
2631.56	84.3462
2630.88	91.6662
2630.19	113.648
2629.51	76.9752
2628.83	98.9525
2628.15	91.6082
2627.46	87.93
2626.78	65.937
2626.1	84.2396
2625.42	62.2542
2624.73	106.181
2624.05	102.504
2623.37	76.8657
2622.69	98.8117
2622	87.8187
2621.32	87.8049
2620.64	65.8432
2619.95	80.4623
2619.27	73.136
2618.58	65.812
2617.9	58.4903
2617.22	91.3766
2616.53	98.6711
2615.85	102.309
2615.16	94.9865
2614.48	80.3605
2613.79	73.0434
2613.11	73.0319
2612.43	91.2754
2611.74	73.0087
2611.06	83.9468
2610.37	113.128
2609.69	91.2176
2609	98.4994
2608.31	65.6559
2607.63	94.8212
2606.94	83.867
2606.26	94.7912
2605.57	98.4214
2604.89	83.8272
2604.2	69.2376
2603.51	116.592
2602.83	83.7873
2602.14	58.2776
2601.45	91.0443
2600.77	91.0299
2600.08	91.0155
2599.39	76.4409
2598.71	58.2314
2598.02	80.0555
2597.33	80.0428
2596.65	116.407
2595.96	72.7431
2595.27	98.1877
2594.58	79.9921
2593.9	58.1668
2593.21	61.7925
2592.52	76.3198
2591.83	79.9414
2591.14	76.2956
2590.46	76.2835
2589.77	90.7992
2589.08	116.205
2588.39	119.817
2587.7	76.2351
2587.01	65.334
2586.32	83.4691
2585.64	79.8273
2584.95	90.6985
2584.26	58.0378
2583.57	112.43
2582.88	97.9077
2582.19	72.5127
2581.5	101.502
2580.81	90.6121
2580.12	101.469
2579.43	108.7
2578.74	112.306
2578.05	57.9549
2577.36	123.135
2576.67	68.7996
2575.98	86.891
2575.29	97.7369
2574.6	79.6248
2573.91	75.9934
2573.22	94.0721
2572.52	104.91
2571.83	86.8082
2571.14	97.6438
2570.45	65.0855
2569.76	72.3057
2569.07	101.212
2568.38	75.8969
2567.68	90.3391
2566.99	50.5819
2566.3	97.5352
2565.61	83.0723
2564.92	104.727
2564.22	97.4887
2563.53	83.0327
2562.84	90.2386
2562.14	83.0063
2561.45	108.252
2560.76	122.666
2560.07	97.3958
2559.37	104.594
2558.68	100.971
2557.99	93.7438
2557.29	90.1239
2556.6	93.714
2555.91	97.3029
2555.21	79.2712
2554.52	72.0533
2553.82	75.6439
2553.13	104.444
2552.44	64.817
2551.74	108.011
2551.05	104.394
2550.35	79.183
2549.66	122.354
2548.96	104.344
2548.27	97.1327
2547.57	125.893
2546.88	115.084
2546.18	107.874
2545.49	79.0948
2544.79	86.2715
2544.1	89.8519
2543.4	75.4635
2542.7	93.4162
2542.01	96.9937
2541.31	111.345
2540.62	93.3716
2539.92	68.2222
2539.22	82.5716
2538.53	96.9165
2537.83	104.079
2537.13	122.004
2536.44	89.6946
2535.74	86.0931
2535.04	104.013
2534.35	86.0657
2533.65	103.979
2532.95	100.378
2532.25	96.7776
2531.56	103.93
2530.86	118.246
2530.16	89.5661
2529.46	89.5518
2528.76	85.956
2528.07	71.6186
2527.37	107.411
2526.67	114.553
2525.97	82.322
2525.27	114.517
2524.57	89.4519
2523.88	96.5926
2523.18	89.4234
2522.48	118.02
2521.78	64.3643
2521.08	78.6549
2520.38	92.941
2519.68	60.7594
2518.98	107.205
2518.28	110.761
2517.58	67.8751
2516.88	82.1515
2516.18	107.137
2515.48	117.832
2514.78	107.103
2514.08	107.086
2513.38	64.2412
2512.68	82.0729
2511.98	128.441
2511.28	110.585
2510.58	67.7669
2509.88	89.1527
2509.17	121.228
2508.47	106.949
2507.77	85.5456
2507.07	89.0958
2506.37	89.0815
2505.67	99.7554
2504.97	85.491
2504.26	71.2311
2503.56	99.7076
2502.86	92.5709
2502.16	92.5561
2501.45	81.8634
2500.75	85.4091
2500.05	120.977
2499.35	96.0545
2498.64	85.3682
2497.94	113.806
2497.24	99.5644
2496.53	85.3272
2495.83	124.416
2495.13	106.625
2494.42	113.715
2493.72	113.697
2493.02	106.574
2492.31	95.9011
2491.61	92.3345
2490.9	124.277
2490.2	106.506
2489.5	99.3894
2488.79	85.1773
2488.09	88.7122
2487.38	113.533
2486.68	106.421
2485.97	99.31
2485.27	106.387
2484.56	81.55
2483.86	113.443
2483.15	60.2568
2482.45	102.775
2481.74	102.758
2481.04	106.284
2480.33	81.4717
2479.62	88.5421
2478.92	99.1512
2478.21	99.1354
2477.51	99.1195
2476.8	116.801
2476.09	81.3935
2475.39	88.4571
2474.68	109.669
2473.97	102.577
2473.27	81.3414
2472.56	95.4725
2471.85	88.3863
2471.14	98.9768
2470.44	81.2894
2469.73	70.6751
2469.02	81.2633
2468.31	74.1851
2467.61	95.3655
2466.9	91.8188
2466.19	120.051
2465.48	120.032
2464.77	95.3044
2464.07	102.348
2463.36	130.561
2462.65	91.7305
2461.94	112.881
2461.23	109.336
2460.52	98.7392
2459.81	91.6717
2459.1	98.7076
2458.4	91.6424
2457.69	102.2
2456.98	102.184
2456.27	102.167
2455.56	126.808
2454.85	84.5252
2454.14	102.118
2453.43	116.185
2452.72	105.606
2452.01	102.069
2451.3	109.091
2450.59	102.036
2449.88	91.4662
2449.16	87.9342
2448.45	105.504
2447.74	94.9384
2447.03	91.4075
2446.32	108.968
2445.61	112.465
2444.9	91.3635
2444.19	98.3757
2443.47	84.3085
2442.76	108.881
2442.05	49.1642
2441.34	105.335
2440.63	126.382
2439.91	119.341
2439.2	112.303
2438.49	122.812
2437.78	101.742
2437.06	105.233
2436.35	87.6805
2435.64	108.706
2434.93	94.6645
2434.21	87.6383
2433.5	94.6341
2432.79	105.132
2432.07	119.131
2431.36	122.615
2430.64	101.579
2429.93	98.0603
2429.22	112.051
2428.5	105.031
2427.79	105.014
2427.07	83.9977
2426.36	76.9855
2425.65	94.467
2424.93	90.9536
2424.22	101.432
2423.5	90.9244
2422.79	115.385
2422.07	80.4073
2421.36	80.3943
2420.64	111.835
2419.92	108.323
2419.21	97.8242
2418.49	104.795
2417.78	104.778
2417.06	101.269
2416.35	90.7783
2415.63	87.2728
2414.91	111.691
2414.2	97.7141
2413.48	90.7199
2412.76	104.66
2412.05	97.667
2411.33	87.1886
2410.61	111.583
2409.9	111.566
2409.18	111.548
2408.46	76.6766
2407.74	83.6338
2407.03	108.01
2406.31	94.0577
2405.59	104.492
2404.87	80.0974
2404.16	97.4942
2403.44	97.4785
2402.72	107.905
2402	83.5261
2401.28	121.789
2400.56	83.4992
2399.85	90.4429
2399.13	121.73
2398.41	79.9814
2397.69	128.645
2396.97	90.3847
2396.25	97.3217
2395.53	152.909
2394.81	104.24
2394.09	104.223
2393.37	104.206
2392.65	86.8244
2391.93	118.062
2391.21	114.571
2390.49	100.668
2389.77	97.1806
2389.05	86.7544
2388.33	93.6797
2387.61	97.1337
2386.89	110.992
2386.17	114.442
2385.45	100.554
2384.73	110.938
2384	110.92
2383.28	97.0397
2382.56	86.6287
2381.84	103.938
2381.12	114.313
2380.4	90.0502
2379.67	114.276
2378.95	124.645
2378.23	121.163
2377.51	114.221
2376.79	110.742
2376.06	107.264
2375.34	110.706
2374.62	117.606
2373.9	83.0027
2373.17	107.194
2372.45	117.549
2371.73	96.7896
2371	110.599
2370.28	110.581
2369.56	93.2876
2368.83	89.818
2368.11	96.7115
2367.38	86.3356
2366.66	124.303
2365.94	100.117
2365.21	110.456
2364.49	110.438
2363.76	96.6178
2363.04	103.502
2362.31	82.7885
2361.59	127.612
2360.86	100.004
2360.14	103.436
2359.41	110.313
2358.69	86.1684
2357.96	110.278
2357.24	75.8037
2356.51	110.242
2355.79	79.2237
2355.06	99.8747
2354.33	82.6415
2353.61	99.8424
2352.88	75.7303
2352.15	147.994
2351.43	137.647
2350.7	99.7778
2349.98	120.402
2349.25	110.064
2348.52	116.924
2347.79	140.974
2347.07	110.011
2346.34	103.118
2345.61	123.722
2344.88	113.394
2344.16	79.0191
2343.43	85.8764
2342.7	109.904
2341.97	103.018
2341.25	130.469
2340.52	102.985
2339.79	96.1038
2339.06	85.7931
2338.33	78.9169
2337.6	144.086
2336.87	126.912
2336.14	85.7375
2335.42	109.726
2334.69	109.709
2333.96	85.6959
2333.23	106.246
2332.5	113.082
2331.77	92.5067
2331.04	106.194
2330.31	92.4767
2329.58	143.829
2328.85	126.686
2328.12	106.125
2327.39	112.954
2326.66	75.2904
2325.93	82.1217
2325.2	95.7931
2324.47	109.46
2323.73	85.5018
2323	109.425
2322.27	119.664
2321.54	92.2971
2320.81	119.625
2320.08	82.0153
2319.35	126.42
2318.61	102.486
2317.88	102.469
2317.15	112.698
2316.42	129.752
2315.69	85.3496
2314.95	116.057
2314.22	133.102
2313.49	95.545
2312.76	116
2312.02	88.6916
2311.29	119.373
2310.56	129.584
2309.82	109.106
2309.09	109.088
2308.36	102.254
2307.62	139.724
2306.89	112.442
2306.16	85.1698
2305.42	102.187
2304.69	119.199
2303.95	98.7489
2303.22	122.565
2302.48	122.545
2301.75	74.8765
2301.02	98.6848
2300.28	125.888
2299.55	129.269
2298.81	102.038
2298.08	102.021
2297.34	115.606
2296.6	118.986
2295.87	129.164
2295.13	132.542
2294.4	125.724
2293.66	112.114
2292.93	74.7307
2292.19	98.4927
2291.45	105.268
2290.72	112.042
2289.98	95.0501
2289.24	135.764
2288.51	132.348
2287.77	108.576
2287.03	105.166
2286.3	98.3648
2285.56	128.871
2284.82	108.505
2284.08	108.488
2283.35	111.86
2282.61	101.674
2281.87	118.6
2281.13	94.8649
2280.4	108.399
2279.66	115.156
2278.92	94.8187
2278.18	115.118
2277.44	125.255
2276.7	142.159
2275.97	115.062
2275.23	108.276
2274.49	125.174
2273.75	118.388
2273.01	98.0774
2272.27	138.639
2271.53	141.997
2270.79	125.072
2270.05	125.052
2269.31	111.515
2268.57	114.875
2267.83	124.991
2267.09	121.593
2266.35	111.442
2265.61	131.683
2264.87	108.03
2264.13	97.886
2263.39	124.869
2262.65	107.977
2261.91	118.081
2261.17	138.3
2260.42	97.8064
2259.68	145
2258.94	131.49
2258.2	121.356
2257.46	117.965
2256.72	111.206
2255.97	107.819
2255.23	128.014
2254.49	101.047
2253.75	134.708
2253	144.787
2252.26	97.6313
2251.52	114.446
2250.78	127.889
2250.03	124.503
2249.29	104.296
2248.55	141.282
2247.8	107.626
2247.06	110.971
2246.32	107.591
2245.57	117.658
2244.83	127.722
2244.09	110.899
2243.34	141.121
2242.6	107.503
2241.85	110.844
2241.11	110.826
2240.36	147.744
2239.62	107.433
2238.88	137.626
2238.13	130.891
2237.39	127.514
2236.64	97.2976
2235.89	114.054
2235.15	140.868
2234.4	87.1896
2233.66	124.057
2232.91	113.98
2232.17	140.776
2231.42	147.455
2230.67	100.521
2229.93	140.707
2229.18	120.586
2228.44	107.17
2227.69	107.153
2226.94	107.135
2226.2	100.423
2225.45	133.875
2224.7	133.854
2223.95	117.103
2223.21	107.048
2222.46	143.822
2221.71	137.11
2220.96	150.462
2220.22	113.664
2219.47	130.358
2218.72	163.757
2217.97	120.291
2217.22	113.59
2216.48	113.571
2215.73	136.931
2214.98	116.873
2214.23	123.532
2213.48	146.879
2212.73	120.154
2211.98	143.494
2211.23	100.095
2210.48	120.095
2209.73	126.746
2208.98	136.73
2208.23	136.708
2207.48	133.351
2206.73	133.33
2205.98	123.31
2205.23	143.283
2204.48	106.611
2203.73	136.574
2202.98	93.2545
2202.23	169.829
2201.48	143.165
2200.73	159.786
2199.98	126.477
2199.23	116.473
2198.48	103.145
2197.72	99.8012
2196.97	119.742
2196.22	123.048
2195.47	109.727
2194.72	116.358
2193.97	119.663
2193.21	126.291
2192.46	136.239
2191.71	142.861
2190.96	142.838
2190.2	136.172
2189.45	122.867
2188.7	139.447
2187.94	126.146
2187.19	76.3391
2186.44	142.697
2185.68	129.402
2184.93	139.333
2184.18	169.163
2183.42	119.389
2182.67	119.37
2181.91	122.666
2181.16	162.422
2180.41	106.054
2179.65	159.056
2178.9	115.959
2178.14	135.815
2177.39	115.921
2176.63	122.525
2175.88	148.992
2175.12	145.658
2174.37	112.535
2173.61	122.445
2172.86	142.277
2172.1	115.788
2171.34	145.538
2170.59	138.9
2169.83	125.651
2169.08	112.406
2168.32	132.221
2167.56	132.199
2166.81	115.655
2166.05	115.636
2165.29	118.921
2164.54	125.507
2163.78	99.068
2163.02	132.069
2162.27	102.337
2161.51	112.222
2160.75	145.204
2159.99	89.088
2159.23	158.353
2158.48	138.536
2157.72	105.534
2156.96	145.085
2156.2	148.358
2155.44	128.556
2154.69	135.126
2153.93	121.923
2153.17	148.261
2152.41	121.883
2151.65	141.625
2150.89	105.378
2150.13	118.531
2149.37	125.095
2148.61	131.658
2147.85	151.381
2147.09	115.163
2146.33	148.042
2145.57	128.282
2144.81	101.951
2144.05	124.951
2143.29	105.205
2142.53	138.059
2141.77	124.89
2141.01	121.583
2140.25	121.563
2139.49	105.119
2138.73	144.514
2137.97	134.639
2137.2	121.483
2136.44	121.463
2135.68	144.419
2134.92	147.677
2134.16	157.497
2133.4	118.103
2132.63	95.1228
2131.87	131.182
2131.11	140.998
2130.35	134.418
2129.58	118.006
2128.82	144.206
2128.06	117.967
2127.29	144.158
2126.53	131.031
2125.77	170.313
2125	140.812
2124.24	134.241
2123.48	144.04
2122.71	137.47
2121.95	114.539
2121.19	147.241
2120.42	153.759
2119.66	130.837
2118.89	137.357
2118.13	166.763
2117.36	140.581
2116.6	153.633
2115.83	133.998
2115.07	104.567
2114.3	147.022
2113.54	143.732
2112.77	160.038
2112.01	140.419
2111.24	146.926
2110.48	130.579
2109.71	146.877
2108.94	117.482
2108.18	143.566
2107.41	137.018
2106.64	133.733
2105.88	140.234
2105.11	146.732
2104.34	117.366
2103.58	159.722
2102.81	169.473
2102.04	133.601
2101.28	120.547
2100.51	127.042
2099.74	133.535
2098.97	136.769
2098.21	120.467
2097.44	126.958
2096.67	159.485
2095.9	165.968
2095.13	159.433
2094.36	136.634
2093.6	120.348
2092.83	146.345
2092.06	169.082
2091.29	152.799
2090.52	156.024
2089.75	123.499
2088.98	123.479
2088.21	162.445
2087.44	146.176
2086.67	146.152
2085.9	110.408
2085.13	162.338
2084.36	159.065
2083.59	159.039
2082.82	149.277
2082.05	158.986
2081.28	142.739
2080.51	139.472
2079.74	145.935
2078.97	136.184
2078.2	132.919
2077.43	155.587
2076.65	129.635
2075.88	142.574
2075.11	142.551
2074.34	152.245
2073.57	116.594
2072.8	155.433
2072.02	119.793
2071.25	142.433
2070.48	142.41
2069.71	122.97
2068.93	126.185
2068.16	139.104
2067.39	135.847
2066.61	148.76
2065.84	139.035
2065.07	142.245
2064.29	96.9691
2063.52	171.284
2062.75	161.562
2061.97	138.92
2061.2	164.738
2060.43	135.645
2059.65	161.455
2058.88	145.285
2058.1	132.349
2057.33	135.555
2056.55	151.667
2055.78	138.736
2055	148.391
2054.23	138.69
2053.45	132.218
2052.68	154.766
2051.9	148.293
2051.13	145.045
2050.35	151.467
2049.57	154.664
2048.8	161.081
2048.02	148.17
2047.25	96.6167
2046.47	115.921
2045.69	144.877
2044.92	135.196
2044.14	131.955
2043.36	135.151
2042.59	151.216
2041.81	151.191
2041.03	154.382
2040.25	144.709
2039.48	118.963
2038.7	163.949
2037.92	157.494
2037.14	138.186
2036.37	151.016
2035.59	157.416
2034.81	170.238
2034.03	157.364
2033.25	128.439
2032.47	170.153
2031.69	125.186
2030.92	163.678
2030.14	134.771
2029.36	144.374
2028.58	160.389
2027.8	141.119
2027.02	112.235
2026.24	157.103
2025.46	144.254
2024.68	115.384
2023.9	157.025
2023.12	150.59
2022.34	150.566
2021.56	160.149
2020.78	124.896
2020	144.087
2019.21	150.466
2018.43	169.646
2017.65	131.214
2016.87	147.191
2016.09	140.768
2015.31	143.943
2014.53	140.721
2013.74	159.884
2012.96	166.252
2012.18	134.258
2011.4	140.628
2010.62	134.213
2009.83	153.361
2009.05	153.336
2008.27	172.474
2007.49	156.478
2006.7	140.488
2005.92	146.849
2005.14	137.249
2004.35	146.8
2003.57	149.967
2002.79	172.274
2002	156.296
2001.22	140.324
2000.43	149.867
1999.65	159.407
1998.87	143.442
1998.08	146.605
1997.3	127.462
1996.51	121.068
1995.73	156.089
1994.94	149.693
1994.16	168.774
1993.37	168.746
1992.59	127.335
1991.8	146.41
1991.02	136.839
1990.23	114.544
1989.44	184.512
1988.66	149.494
1987.87	146.289
1987.09	127.186
1986.3	187.569
1985.51	168.466
1984.73	152.547
1983.94	184.298
1983.15	155.674
1982.37	165.177
1981.58	171.502
1980.79	165.122
1980	161.92
1979.22	117.452
1978.43	152.345
1977.64	136.453
1976.85	139.603
1976.06	142.752
1975.28	149.071
1974.49	171.245
1973.7	129.998
1972.91	142.657
1972.12	161.651
1971.33	148.947
1970.54	145.754
1969.76	152.066
1968.97	161.543
1968.18	161.516
1967.39	132.991
1966.6	139.301
1965.81	164.601
1965.02	196.222
1964.23	161.381
1963.44	148.699
1962.65	177.144
1961.86	177.115
1961.07	151.787
1960.28	142.277
1959.48	170.704
1958.69	135.908
1957.9	170.647
1957.11	139.022
1956.32	148.476
1955.53	148.452
1954.74	164.217
1953.94	161.032
1953.15	157.848
1952.36	176.76
1951.57	135.704
1950.78	141.992
1949.98	129.349
1949.19	170.334
1948.4	113.537
1947.61	167.124
1946.81	135.568
1946.02	189.134
1945.23	126.068
1944.43	148.105
1943.64	129.177
1942.85	154.356
1942.05	179.527
1941.26	166.901
1940.46	173.17
1939.67	182.585
1938.88	147.932
1938.08	157.348
1937.29	151.029
1936.49	157.296
1935.7	157.27
1934.9	150.954
1934.11	169.794
1933.31	194.917
1932.52	132.018
1931.72	175.995
1930.93	157.112
1930.13	160.227
1929.33	150.777
1928.54	182.159
1927.74	185.268
1926.95	178.958
1926.15	163.233
1925.35	172.621
1924.56	166.316
1923.76	175.701
1922.96	169.398
1922.17	163.096
1921.37	147.389
1920.57	175.583
1919.77	137.935
1918.98	169.256
1918.18	178.629
1917.38	147.266
1916.58	150.374
1915.78	175.407
1914.99	150.324
1914.19	165.955
1913.39	144.012
1912.59	140.858
1911.79	150.223
1910.99	153.327
1910.19	153.302
1909.39	172.044
1908.59	153.25
1907.8	143.844
1907	150.073
1906.2	165.677
1905.4	168.775
1904.6	143.747
1903.8	174.967
1903	162.443
1902.2	153.045
1901.39	159.265
1900.59	177.973
1899.79	149.847
1898.99	184.155
1898.19	162.279
1897.39	174.733
1896.59	155.986
1895.79	168.436
1894.99	168.408
1894.18	168.38
1893.38	168.351
1892.58	165.206
1891.78	186.995
1890.98	180.731
1890.17	174.47
1889.37	190.016
1888.57	171.297
1887.76	183.724
1886.96	183.693
1886.16	186.775
1885.36	180.519
1884.55	189.824
1883.75	208.461
1882.94	155.542
1882.14	164.846
1881.34	161.709
1880.53	167.9
1879.73	174.09
1878.92	186.493
1878.12	152.277
1877.32	180.216
1876.51	167.76
1875.71	180.156
1874.9	152.175
1874.1	145.939
1873.29	164.542
1872.49	164.515
1871.68	152.073
1870.87	186.181
1870.07	183.047
1869.26	158.2
1868.46	182.985
1867.65	167.45
1866.84	161.221
1866.04	170.494
1865.23	216.956
1864.42	164.239
1863.62	167.31
1862.81	204.455
1862	173.448
1861.2	185.806
1860.39	164.101
1859.58	164.073
1858.77	182.617
1857.96	164.018
1857.16	151.614
1856.35	182.525
1855.54	145.377
1854.73	179.371
1853.92	166.972
1853.12	179.311
1852.31	154.552
1851.5	203.975
1850.69	194.67
1849.88	166.832
1849.07	176.071
1848.26	194.572
1847.45	194.539
1846.64	188.332
1845.83	185.213
1845.02	175.923
1844.21	188.237
1843.4	160.437
1842.59	182.004
1841.78	181.973
1840.97	178.859
1840.16	181.912
1839.35	175.716
1838.54	188.015
1837.72	184.902
1836.91	178.708
1836.1	175.598
1835.29	190.969
1834.48	200.175
1833.67	153.955
1832.85	163.165
1832.04	212.387
1831.23	203.118
1830.42	184.622
1829.6	172.285
1828.79	178.408
1827.98	184.529
1827.17	209.097
1826.35	190.615
1825.54	196.731
1824.73	196.698
1823.91	184.373
1823.1	202.776
1822.29	211.958
1821.47	202.708
1820.66	181.178
1819.84	190.358
1819.03	181.117
1818.21	199.502
1817.4	184.125
1816.58	187.162
1815.77	134.979
1814.95	214.704
1814.14	174.801
1813.32	168.639
1812.51	171.676
1811.69	196.168
1810.88	202.264
1810.06	156.269
1809.25	199.132
1808.43	186.847
1807.61	168.44
1806.8	186.783
1805.98	195.936
1805.16	189.781
1804.35	195.87
1803.53	183.597
1802.71	211.101
1801.89	177.418
1801.08	177.388
1800.26	210.995
1799.44	238.475
1798.62	186.468
1797.81	180.324
1796.99	168.071
1796.17	177.208
1795.35	207.726
1794.53	164.931
1793.71	183.226
1792.9	198.461
1792.08	174.006
1791.26	183.133
1790.44	176.999
1789.62	207.481
1788.8	195.243
1787.98	176.909
1787.16	222.624
1786.34	189.046
1785.52	201.208
1784.7	216.415
1783.88	201.14
1783.06	195.012
1782.24	188.886
1781.42	191.9
1780.6	185.777
1779.78	164.43
1778.95	207.025
1778.13	170.463
1777.31	194.781
1776.49	252.564
1775.67	182.546
1774.85	188.599
1774.02	203.774
1773.2	218.944
1772.38	182.422
1771.56	179.352
1770.74	237.069
1769.91	203.602
1769.09	200.529
1768.27	206.57
1767.44	209.573
1766.62	221.684
1765.8	227.719
1764.97	191.252
1764.15	233.713
1763.33	236.708
1762.5	194.189
1761.68	221.459
1760.85	218.389
1760.03	218.352
1759.21	236.508
1758.38	236.467
1757.56	193.992
1756.73	193.959
1755.91	251.498
1755.08	227.219
1754.26	236.267
1753.43	236.227
1752.6	218.019
1751.78	227.065
1750.95	239.134
1750.13	226.988
1749.3	248.131
1748.47	242.038
1747.65	229.897
1746.82	241.956
1745.99	275.178
1745.17	290.249
1744.34	287.177
1743.51	278.061
1742.69	329.386
1741.86	377.672
1741.03	362.504
1740.2	344.32
1739.38	356.341
1738.55	404.59
1737.72	380.371
1736.89	377.288
1736.06	446.633
1735.23	416.384
1734.4	461.565
1733.58	482.601
1732.75	428.235
1731.92	500.528
1731.09	446.178
1730.26	482.273
1729.43	533.424
1728.6	518.268
1727.77	494.078
1726.94	469.897
1726.11	524.027
1725.28	523.938
1724.45	511.807
1723.62	544.831
1722.79	583.863
1721.96	532.61
1721.13	526.502
1720.3	511.372
1719.46	553.391
1718.63	502.177
1717.8	426.928
1716.97	429.862
1716.14	441.811
1715.31	423.706
1714.47	375.562
1713.64	423.562
1712.81	336.389
1711.98	405.4
1711.14	360.294
1710.31	318.206
1709.48	342.163
1708.65	315.097
1707.81	276.038
1706.98	299.99
1706.15	311.937
1705.31	260.903
1704.48	230.875
1703.64	296.788
1702.81	269.762
1701.98	263.722
1701.14	242.703
1700.31	239.666
1699.47	278.564
1698.64	233.595
1697.8	260.504
1696.97	242.497
1696.13	227.489
1695.3	215.479
1694.46	254.342
1693.63	260.282
1692.79	254.255
1691.95	257.203
1691.12	263.139
1690.28	290.002
1689.45	218.212
1688.61	257.028
1687.77	280.889
1686.94	259.928
1686.1	244.948
1685.26	244.906
1684.42	280.698
1683.59	292.593
1682.75	283.587
1681.91	286.524
1681.07	277.523
1680.24	292.393
1679.4	274.445
1678.56	292.294
1677.72	238.566
1676.88	250.452
1676.04	265.315
1675.21	295.075
1674.37	259.264
1673.53	300.933
1672.69	265.134
1671.85	303.809
1671.01	312.692
1670.17	267.976
1669.33	267.93
1668.49	312.532
1667.65	270.815
1666.81	300.523
1665.97	297.497
1665.13	273.651
1664.29	285.5
1663.45	303.292
1662.61	270.538
1661.77	306.161
1660.92	309.08
1660.08	288.228
1659.24	308.975
1658.4	300.011
1657.56	329.659
1656.72	320.694
1655.87	296.888
1655.03	302.774
1654.19	347.241
1653.35	296.736
1652.5	344.155
1651.66	341.13
1650.82	323.277
1649.98	311.36
1649.13	326.131
1648.29	358.683
1647.45	320.092
1646.6	361.524
1645.76	346.648
1644.91	343.627
1644.07	367.262
1643.23	352.393
1642.38	373.058
1641.54	375.955
1640.69	390.689
1639.85	375.826
1639	343.216
1638.16	366.823
1637.31	393.38
1636.47	414.014
1635.62	402.116
1634.78	405.003
1633.93	401.978
1633.08	404.865
1632.24	378.203
1631.39	407.681
1630.55	369.213
1629.7	401.635
1628.85	436.998
1628.01	433.971
1627.16	413.235
1626.31	460.383
1625.46	513.417
1624.62	483.827
1623.77	489.644
1622.92	516.102
1622.07	524.86
1621.23	536.563
1620.38	512.89
1619.53	562.903
1618.68	627.633
1617.83	671.717
1616.98	733.46
1616.13	762.786
1615.29	830.381
1614.44	933.283
1613.59	1024.38
1612.74	1012.43
1611.89	1106.42
1611.04	1120.94
1610.19	1000.14
1609.34	982.323
1608.49	940.986
1607.64	920.245
1606.79	846.597
1605.94	817.062
1605.09	861
1604.24	752.144
1603.38	663.889
1602.53	713.705
1601.68	648.978
1600.83	640.059
1599.98	698.66
1599.13	619.294
1598.27	648.533
1597.42	595.609
1596.57	604.308
1595.72	601.271
1594.87	563.045
1594.01	583.473
1593.16	589.236
1592.31	524.652
1591.45	591.964
1590.6	542.052
1589.75	582.972
1588.89	536.008
1588.04	503.703
1587.19	544.608
1586.33	526.95
1585.48	535.64
1584.62	570.666
1583.77	553.012
1582.92	476.855
1582.06	500.173
1581.21	523.483
1580.35	526.317
1579.5	529.15
1578.64	517.367
1577.78	511.433
1576.93	528.877
1576.07	476.2
1575.22	522.854
1574.36	516.923
1573.51	513.914
1572.65	502.148
1571.79	469.953
1570.94	501.976
1570.08	452.284
1569.22	458.041
1568.37	492.966
1567.51	469.55
1566.65	501.544
1565.79	481.05
1564.94	521.777
1564.08	489.628
1563.22	489.544
1562.36	466.152
1561.5	489.375
1560.65	503.854
1559.79	486.295
1558.93	407.602
1558.07	454.108
1557.21	390
1556.35	494.69
1555.49	497.515
1554.63	523.61
1553.77	482.801
1552.91	412.928
1552.05	424.486
1551.19	473.831
1550.33	421.434
1549.47	464.951
1548.61	409.667
1547.75	424.121
1546.89	505.373
1546.03	461.726
1545.17	487.778
1544.31	412.218
1543.45	444.073
1542.58	400.468
1541.72	429.413
1540.86	423.537
1540	466.971
1539.14	449.491
1538.28	452.313
1537.41	443.538
1536.55	423.173
1535.69	472.365
1534.82	428.822
1533.96	405.572
1533.1	446.053
1532.24	443.08
1531.37	443.003
1530.51	440.032
1529.64	431.273
1528.78	448.562
1527.92	474.526
1527.05	442.622
1526.19	442.545
1525.32	442.469
1524.46	451.067
1523.59	422.08
1522.73	459.583
1521.86	442.164
1521	424.751
1520.13	387.121
1519.27	473.708
1518.4	433.195
1517.54	427.345
1516.67	424.385
1515.8	458.949
1514.94	435.782
1514.07	403.967
1513.21	415.437
1512.34	412.481
1511.47	426.829
1510.6	420.989
1509.74	392.086
1508.87	432.373
1508	403.479
1507.14	440.868
1506.27	437.911
1505.4	406.15
1504.53	446.4
1503.66	443.443
1502.8	417.456
1501.93	426.019
1501.06	440.336
1500.19	411.484
1499.32	434.429
1498.45	457.367
1497.58	440.031
1496.71	391.071
1495.84	460.005
1494.97	439.803
1494.1	402.365
1493.23	382.181
1492.36	425.21
1491.49	430.882
1490.62	482.504
1489.75	436.476
1488.88	424.916
1488.01	456.419
1487.14	473.56
1486.27	433.304
1485.4	438.967
1484.52	424.549
1483.65	424.475
1482.78	447.342
1481.91	447.265
1481.04	447.188
1480.17	470.039
1479.29	467.092
1478.42	421.17
1477.55	449.743
1476.67	418.16
1475.8	463.905
1474.93	455.236
1474.06	489.508
1473.18	463.664
1472.31	429.244
1471.43	480.671
1470.56	417.653
1469.69	440.462
1468.81	428.947
1467.94	486.056
1467.06	474.537
1466.19	465.88
1465.31	471.515
1464.44	465.719
1463.56	417.075
1462.69	462.701
1461.81	408.363
1460.94	445.41
1460.06	482.444
1459.19	479.506
1458.31	473.716
1457.43	425.129
1456.56	493.52
1455.68	484.878
1454.8	467.684
1453.93	490.412
1453.05	510.283
1452.17	487.392
1451.3	447.411
1450.42	481.525
1449.54	515.626
1448.66	464.268
1447.78	489.817
1446.91	478.343
1446.03	523.809
1445.15	503.794
1444.27	500.861
1443.39	500.774
1442.51	492.152
1441.64	469.313
1440.76	474.919
1439.88	508.956
1439	517.396
1438.12	494.568
1437.24	522.9
1436.36	477.348
1435.48	494.31
1434.6	499.905
1433.72	502.658
1432.84	516.768
1431.96	511
1431.08	479.689
1430.2	482.444
1429.31	471.01
1428.43	487.95
1427.55	485.029
1426.67	493.452
1425.79	465.012
1424.91	442.252
1424.02	496.03
1423.14	461.936
1422.26	439.188
1421.38	467.441
1420.49	507.015
1419.61	498.431
1418.73	526.659
1417.85	464.285
1416.96	523.645
1416.08	537.704
1415.2	520.634
1414.31	517.714
1413.43	577.024
1412.54	517.534
1411.66	537.237
1410.78	491.91
1409.89	551.183
1409.01	511.522
1408.12	531.212
1407.24	516.994
1406.35	550.799
1405.47	562
1404.58	556.255
1403.7	513.811
1402.81	536.303
1401.92	479.766
1401.04	496.613
1400.15	558.592
1399.27	538.75
1398.38	552.757
1397.49	572.399
1396.61	563.842
1395.72	541.194
1394.83	515.735
1393.94	518.463
1393.06	487.383
1392.17	487.298
1391.28	532.274
1390.39	571.602
1389.51	489.859
1388.62	565.773
1387.73	503.76
1386.84	531.81
1385.95	557.037
1385.06	551.314
1384.17	500.596
1383.29	548.31
1382.4	525.724
1381.51	528.443
1380.62	570.507
1379.73	517.019
1378.84	545.023
1377.95	553.355
1377.06	586.959
1376.17	612.128
1375.28	541.836
1374.39	578.231
1373.5	552.872
1372.6	521.91
1371.71	549.874
1370.82	580.633
1369.93	588.945
1369.04	557.998
1368.15	608.364
1367.26	605.455
1366.36	529.681
1365.47	596.837
1364.58	627.55
1363.69	588.226
1362.79	588.123
1361.9	599.221
1361.01	568.32
1360.11	593.413
1359.22	551.33
1358.33	646.371
1357.43	573.519
1356.54	576.216
1355.65	648.829
1354.75	620.753
1353.86	581.505
1352.96	578.608
1352.07	581.302
1351.17	600.76
1350.28	614.624
1349.39	617.31
1348.49	636.751
1347.59	603.132
1346.7	597.443
1345.8	594.548
1344.91	594.444
1344.01	616.662
1343.12	627.714
1342.22	655.498
1341.32	616.339
1340.43	574.405
1339.53	616.123
1338.63	602.079
1337.74	643.777
1336.84	646.451
1335.94	679.769
1335.04	679.65
1334.15	637.757
1333.25	648.783
1332.35	640.317
1331.45	648.556
1330.55	640.093
1329.66	634.416
1328.76	684.382
1327.86	667.573
1326.96	639.645
1326.06	661.778
1325.16	625.521
1324.26	675.444
1323.36	655.872
1322.46	644.643
1321.56	688.98
1320.66	649.972
1319.76	655.412
1318.86	666.404
1317.96	685.721
1317.06	688.377
1316.16	693.806
1315.26	621.542
1314.36	613.11
1313.46	690.668
1312.55	732.146
1311.65	673.789
1310.75	706.939
1309.85	712.358
1308.95	676.206
1308.04	761.984
1307.14	675.969
1306.24	747.867
1305.34	692.348
1304.43	708.84
1303.53	664.421
1302.63	686.448
1301.72	702.932
1300.82	705.576
1299.92	697.153
1299.01	713.627
1298.11	691.377
1297.21	647.016
1296.3	724.309
1295.4	757.351
1294.49	809.725
1293.59	701.823
1292.68	792.866
1291.78	787.202
1290.87	756.686
1289.97	781.404
1289.06	775.745
1288.16	817.011
1287.25	797.55
1286.34	805.688
1285.44	753.13
1284.53	775.064
1283.62	780.443
1282.72	813.394
1281.81	802.223
1280.9	791.057
1280	771.628
1279.09	804.556
1278.18	771.356
1277.27	738.169
1276.37	713.254
1275.46	682.841
1274.55	704.745
1273.64	704.621
1272.73	668.722
1271.82	674.107
1270.92	679.49
1270.01	671.119
1269.1	635.251
1268.19	637.889
1267.28	684.51
1266.37	637.665
1265.46	577.095
1264.55	620.955
1263.64	645.57
1262.73	623.483
1261.82	617.881
1260.91	595.807
1260	625.899
1259.09	584.619
1258.18	570.795
1257.27	556.976
1256.35	592.54
1255.44	537.58
1254.53	556.681
1253.62	578.518
1252.71	523.59
1251.79	548.165
1250.88	537.107
1249.97	542.492
1249.06	525.96
1248.14	569.69
1247.23	525.775
1246.32	558.538
1245.41	544.752
1244.49	500.865
1243.58	541.824
1242.66	528.048
1241.75	470.509
1240.84	527.862
1239.92	516.831
1239.01	533.144
1238.09	502.981
1237.18	522.024
1236.26	456.349
1235.35	469.929
1234.43	491.699
1233.52	450.645
1232.6	496.987
1231.69	505.09
1230.77	502.272
1229.86	483.078
1228.94	534.84
1228.02	515.647
1227.11	480.095
1226.19	463.646
1225.27	458.111
1224.36	520.736
1223.44	438.868
1222.52	452.417
1221.6	463.237
1220.69	446.809
1219.77	452.178
1218.85	468.439
1217.93	438.403
1217.01	405.656
1216.1	438.248
1215.18	430.006
1214.26	429.93
1213.34	429.854
1212.42	443.379
1211.5	473.217
1210.58	432.346
1209.66	440.426
1208.74	424.039
1207.82	453.858
1206.9	415.737
1205.98	461.848
1205.06	418.306
1204.14	450.822
1203.22	407.297
1202.3	377.362
1201.38	407.153
1200.46	415.223
1199.54	485.698
1198.61	442.205
1197.69	415.003
1196.77	409.505
1195.85	425.702
1194.93	395.806
1194	458.078
1193.08	463.417
1192.16	401.015
1191.24	392.817
1190.31	398.164
1189.39	454.964
1188.47	425.1
1187.54	406.074
1186.62	395.176
1185.7	435.699
1184.77	438.328
1183.85	416.608
1182.92	443.582
1182	419.165
1181.07	451.536
1180.15	394.686
1179.23	418.942
1178.3	435.082
1177.37	426.9
1176.45	440.331
1175.52	456.459
1174.6	437.475
1173.67	453.597
1172.75	453.517
1171.82	466.931
1170.89	412.878
1169.97	437.087
1169.04	437.01
1168.11	420.75
1167.19	415.282
1166.26	415.208
1165.33	390.874
1164.4	377.328
1163.48	423.072
1162.55	387.971
1161.62	360.965
1160.69	368.981
1159.76	390.458
1158.83	382.312
1157.91	355.325
1156.98	398.324
1156.05	355.199
1155.12	352.446
1154.19	341.624
1153.26	338.873
1152.33	333.435
1151.4	346.819
1150.47	370.95
1149.54	387.009
1148.61	343.947
1147.68	346.573
1146.75	349.197
1145.82	343.764
1144.89	359.814
1143.96	354.381
1143.02	367.739
1142.09	348.887
1141.16	389.075
1140.23	351.446
1139.3	383.572
1138.36	378.14
1137.43	364.666
1136.5	327.069
1135.57	367.217
1134.63	353.752
1133.7	359.048
1132.77	358.984
1131.83	332.135
1130.9	374.925
1129.97	388.246
1129.03	364.083
1128.1	390.784
1127.17	406.772
1126.23	374.592
1125.3	433.379
1124.36	366.434
1123.43	441.248
1122.49	401.063
1121.56	406.338
1120.62	400.92
1119.69	363.436
1118.75	382.075
1117.81	427.42
1116.88	403.306
1115.94	389.882
1115.01	413.842
1114.07	408.43
1113.13	395.012
1112.2	405.616
1111.26	394.871
1110.32	386.798
1109.38	400.065
1108.45	391.994
1107.51	389.258
1106.57	397.186
1105.63	423.767
1104.69	389.05
1103.76	357.01
1102.82	362.274
1101.88	370.199
1100.94	391.436
1100	362.08
1099.06	338.059
1098.12	348.644
1097.18	351.243
1096.24	388.427
1095.3	380.378
1094.36	385.629
1093.42	327.061
1092.48	361.564
1091.54	329.603
1090.6	321.571
1089.66	356.057
1088.72	342.71
1087.78	347.961
1086.84	361.178
1085.9	323.94
1084.95	318.573
1084.01	326.479
1083.07	299.882
1082.13	323.709
1081.19	334.263
1080.24	320.941
1079.3	320.884
1078.36	302.266
1077.41	315.467
1076.47	312.761
1075.53	299.455
1074.58	309.999
1073.64	283.453
1072.7	299.294
1071.75	328.37
1070.81	338.903
1069.86	267.368
1068.92	288.494
1067.98	251.395
1067.03	285.745
1066.09	296.275
1065.14	301.512
1064.19	319.969
1063.25	327.843
1062.3	288.133
1061.36	266.938
1060.41	269.533
1059.46	303.831
1058.52	258.87
1057.57	285.235
1056.63	266.7
1055.68	282.493
1054.73	274.523
1053.78	282.392
1052.84	248.038
1051.89	282.291
1050.94	311.256
1049.99	284.827
1049.05	274.229
1048.1	253.089
1047.15	274.131
1046.2	250.363
1045.25	287.207
1044.3	268.715
1043.35	252.863
1042.4	308.122
1041.45	263.305
1040.5	310.644
1039.55	252.682
1038.6	300.006
1037.65	260.485
1036.7	294.637
1035.75	247.241
1034.8	278.753
1033.85	241.894
1032.9	262.881
1031.95	260.205
1031	265.415
1030.05	257.485
1029.1	275.827
1028.14	307.295
1027.19	299.362
1026.24	265.177
1025.29	246.754
1024.33	267.707
1023.38	230.921
1022.43	275.481
1021.48	272.809
1020.52	251.779
1019.57	275.333
1018.62	301.502
1017.66	269.992
1016.71	262.081
1015.75	272.516
1014.8	264.607
1013.85	295.993
1012.89	248.799
1011.94	264.465
1010.98	287.979
1010.03	230.342
1009.07	246.003
1008.12	240.726
1007.16	232.834
1006.2	269.412
1005.25	261.518
1004.29	240.553
1003.34	266.653
1002.38	258.763
1001.42	243.037
1000.47	271.735
999.508	263.849
998.551	240.294
997.594	258.531
996.636	276.762
995.679	271.491
994.721	274.052
993.763	240.079
992.805	250.472
991.846	247.818
990.888	255.598
989.929	219.045
988.97	221.613
988.011	242.427
987.052	208.502
986.093	242.34
985.133	216.243
984.173	268.301
983.213	242.209
982.253	239.562
981.293	229.105
980.333	244.682
979.372	247.24
978.411	215.971
977.45	239.347
976.489	221.096
975.528	226.257
974.566	239.217
973.605	210.577
972.643	213.139
971.681	194.909
970.719	223.455
969.756	262.383
968.794	244.154
967.831	236.32
966.868	215.505
965.905	212.871
964.942	241.383
963.979	241.34
963.015	223.134
962.052	241.253
961.088	233.428
960.124	212.641
959.159	212.603
958.195	194.419
957.23	238.444
956.266	233.218
955.301	222.813
954.336	230.544
953.37	225.323
952.405	201.977
951.439	233.008
950.473	222.612
949.507	256.217
948.541	209.594
947.575	230.253
946.608	235.385
945.642	250.86
944.675	219.786
943.708	237.843
942.741	240.385
941.773	230.004
940.806	211.876
939.838	242.839
938.87	247.961
937.902	211.761
936.934	227.215
935.965	211.685
934.997	242.62
934.028	221.931
933.059	237.372
932.09	281.183
931.121	221.811
930.151	206.299
929.182	211.418
928.212	224.269
927.242	237.115
926.272	206.15
925.301	247.335
924.331	229.259
923.36	224.067
922.389	195.701
921.418	221.411
920.447	208.501
919.475	226.478
918.504	226.437
917.532	226.397
916.56	226.356
915.588	267.463
914.616	223.703
913.643	203.096
912.671	251.896
911.698	208.162
910.725	200.416
909.752	254.328
908.779	213.186
907.805	243.964
906.831	256.758
905.858	238.742
904.883	243.832
903.909	233.523
902.935	246.31
901.96	243.7
900.986	261.609
900.011	243.612
899.036	258.951
898.06	287.101
897.085	274.235
896.109	271.623
895.133	253.639
894.157	230.54
893.181	263.792
892.205	284.229
891.229	273.937
890.252	273.888
889.275	268.72
888.298	281.465
887.321	276.297
886.343	283.921
885.366	255.738
884.388	273.59
883.41	296.549
882.432	283.715
881.454	263.22
880.475	265.727
879.497	293.78
878.518	329.484
877.539	280.905
876.56	280.854
875.58	291.014
874.601	250.125
873.621	280.701
872.641	311.267
871.661	290.803
870.681	285.65
869.701	272.848
868.72	295.744
867.739	313.534
866.758	303.283
865.777	295.583
864.796	321.006
863.815	282.74
862.833	333.624
861.851	333.563
860.869	353.869
859.887	363.987
858.905	363.921
857.922	394.388
856.939	381.596
855.956	353.549
854.973	356.027
853.99	368.676
853.007	381.32
852.023	348.209
851.039	335.439
850.055	370.949
849.071	365.801
848.087	350.496
847.102	327.578
846.118	345.291
845.133	304.613
844.148	309.634
843.163	309.577
842.177	286.688
841.192	317.075
840.206	256.15
839.22	304.281
838.234	329.578
837.248	286.427
836.261	299.047
835.274	266.053
834.288	273.604
833.301	253.291
832.313	288.7
831.326	268.391
830.339	288.595
829.351	291.073
828.363	283.429
827.375	308.679
826.387	270.677
825.398	303.508
824.409	275.636
823.421	285.699
822.432	288.175
821.443	278.013
820.453	262.801
819.464	293.071
818.474	282.914
817.484	272.76
816.494	267.66
815.504	285.284
814.513	259.99
813.523	254.895
812.532	259.896
811.541	242.189
810.55	269.89
809.559	292.538
808.567	264.749
807.575	282.348
806.583	262.132
805.591	257.044
804.599	229.282
803.607	272.066
802.614	284.609
801.621	299.667
800.628	254.293
799.635	249.212
798.642	264.267
797.649	264.219
796.655	256.623
795.661	284.247
794.667	276.65
793.673	289.172
792.678	279.063
791.684	279.012
790.689	276.448
789.694	266.347
788.699	268.811
787.704	221.038
786.708	236.065
785.713	261.131
784.717	276.146
783.721	205.817
782.724	220.836
781.728	243.377
780.731	223.264
779.735	250.813
778.738	205.629
777.741	238.185
776.743	225.608
775.746	220.554
774.748	220.514
773.75	243.022
772.752	222.938
771.754	255.456
770.756	245.393
769.757	242.845
768.758	240.297
767.759	237.751
766.76	232.703
765.761	225.155
764.761	252.628
763.762	205.067
762.762	232.533
761.762	239.99
760.762	232.448
759.761	252.397
758.761	222.369
757.76	239.815
756.759	269.742
755.758	199.773
754.756	229.697
753.755	252.121
752.753	249.579
751.751	249.533
750.749	234.518
749.747	269.397
748.745	261.866
747.742	234.39
746.739	224.375
745.736	219.348
744.733	244.23
743.73	214.285
742.726	209.263
741.723	224.17
740.719	199.225
739.715	248.986
738.71	268.856
737.706	221.517
736.701	248.849
735.697	226.412
734.692	228.858
733.686	226.329
732.681	268.561
731.675	223.76
730.67	218.747
729.664	243.56
728.658	221.152
727.651	258.377
726.645	218.587
725.638	233.448
724.631	233.405
723.624	230.88
722.617	213.462
721.61	263.057
720.602	238.196
719.595	253.037
718.587	223.227
717.578	238.065
716.57	233.063
715.562	247.894
714.553	232.978
713.544	227.979
712.535	242.802
711.526	232.849
710.516	247.667
709.507	225.335
708.497	257.479
707.487	279.709
706.477	269.759
705.467	301.876
704.456	284.503
703.445	294.345
702.434	296.764
701.423	304.127
700.412	266.99
699.401	264.469
698.389	296.546
697.377	247.077
696.365	234.68
695.353	242.046
694.34	279.043
693.328	274.054
692.315	241.913
691.302	236.932
690.289	268.968
689.276	217.108
688.262	244.202
687.249	236.758
686.235	229.317
685.221	221.879
684.206	239.093
683.192	241.513
682.177	241.469
681.162	229.107
680.147	258.622
679.132	251.186
678.117	233.905
677.101	265.864
676.086	219.051
675.07	228.854
674.054	223.892
673.037	236.15
672.021	238.566
671.004	228.686
669.987	243.395
668.97	235.976
667.953	231.017
666.936	218.689
665.918	233.389
664.9	218.609
663.882	221.024
662.864	218.528
661.846	233.217
660.827	233.174
659.808	211.045
658.789	211.007
657.77	223.233
656.751	213.382
655.731	230.508
654.712	225.562
653.692	237.777
652.672	264.692
651.652	242.59
650.631	220.496
649.611	227.804
648.59	237.558
647.569	232.617
646.548	259.504
645.526	222.74
644.505	264.303
643.483	234.892
642.461	225.064
641.439	234.806
640.417	239.653
639.394	254.279
638.371	256.677
637.348	246.853
636.325	298.124
635.302	271.194
634.279	366.411
633.255	341.92
632.231	363.834
631.207	393.063
630.183	349.054
629.159	283.096
628.134	248.884
627.109	265.915
626.084	260.987
625.059	253.623
624.034	236.509
623.008	253.53
621.983	255.92
620.957	238.815
619.931	233.898
618.904	233.855
617.878	255.731
616.851	224.028
615.824	243.464
614.797	243.419
613.77	243.374
612.743	233.596
611.715	255.448
610.687	231.077
609.659	250.49
608.631	255.306
607.603	223.656
606.574	235.767
605.546	247.874
604.517	235.68
603.487	279.363
602.458	206.447
601.429	237.978
600.399	242.79
599.369	259.737
598.339	269.397
597.309	252.361
596.278	215.923
595.248	211.032
594.217	225.544
593.186	240.051
592.155	235.158
591.123	239.962
590.091	213.26
589.06	213.221
588.028	234.984
586.996	225.252
585.963	239.74
584.931	210.642
583.898	237.231
582.865	212.984
581.832	249.242
580.798	234.679
579.765	268.501
578.731	237.011
577.697	236.967
576.663	239.341
575.629	251.382
574.594	224.752
573.56	268.203
572.525	260.906
571.49	205.304
570.455	246.32
569.419	272.833
568.384	207.604
567.348	212.393
566.312	226.832
565.276	243.679
564.239	260.519
563.203	207.412
562.166	241.132
561.129	245.909
560.092	253.095
559.054	226.538
558.017	228.905
556.979	255.363
555.941	240.864
554.903	243.227
553.865	252.813
552.826	262.395
551.787	233.464
550.749	221.389
549.709	235.784
548.67	230.929
547.631	221.266
546.591	223.629
545.551	230.8
544.511	228.354
543.471	211.489
542.43	213.852
541.39	221.02
540.349	237.792
539.308	256.96
538.267	273.72
537.225	228.057
536.184	256.817
535.142	225.573
534.1	251.923
533.058	259.072
532.015	218.252
530.973	263.772
529.93	230.158
528.887	256.483
527.844	242.056
526.801	227.634
525.757	229.987
524.713	225.154
523.669	220.322
522.625	251.408
521.581	244.18
520.537	246.528
519.492	234.517
518.447	246.436
517.402	258.351
516.357	253.519
515.311	212.821
514.265	239.08
513.22	231.865
512.174	243.771
511.127	236.557
510.081	231.735
509.034	243.635
507.987	214.932
506.94	241.157
505.893	210.078
504.846	195.718
503.798	241.022
502.75	229.048
501.702	207.536
500.654	231.347
499.606	228.92
