3200.54	50.5175
3199.95	63.1469
3199.35	37.8824
3198.76	58.9193
3198.16	46.2867
3197.57	58.9015
3196.98	50.4793
3196.38	75.7075
3195.79	58.8747
3195.19	71.48
3194.6	37.8366
3194	50.4412
3193.41	75.6503
3192.81	46.2238
3192.22	46.2168
3191.62	63.0134
3191.03	63.0038
3190.43	50.3954
3189.84	29.3929
3189.24	71.3719
3188.65	88.152
3188.05	46.1679
3187.45	67.1431
3186.86	54.5455
3186.26	50.3421
3185.67	62.9181
3185.07	62.9086
3184.47	37.7394
3183.88	25.1558
3183.28	25.152
3182.69	50.2964
3182.09	41.9073
3181.49	37.7109
3180.9	37.7052
3180.3	54.4548
3179.7	50.2584
3179.1	33.5005
3178.51	62.8039
3177.91	50.2355
3177.31	41.8566
3176.72	54.4054
3176.12	50.2127
3175.52	41.8376
3174.92	50.1975
3174.33	75.2849
3173.73	71.0916
3173.13	71.0808
3172.53	66.8895
3171.93	62.6994
3171.34	66.8692
3170.74	58.5017
3170.14	41.7806
3169.54	62.6614
3168.94	66.8287
3168.34	41.7616
3167.74	37.5798
3167.15	45.9239
3166.55	45.9169
3165.95	62.6045
3165.35	58.422
3164.75	62.5855
3164.15	37.5456
3163.55	87.5931
3162.95	70.898
3162.35	70.8872
3161.75	62.5381
3161.15	62.5286
3160.55	70.855
3159.95	62.5096
3159.35	54.1668
3158.75	70.8228
3158.15	58.3158
3157.55	95.79
3156.95	62.4623
3156.35	37.4717
3155.75	54.1176
3155.15	58.2716
3154.55	87.3941
3153.95	45.7709
3153.35	62.4055
3152.75	20.7987
3152.15	62.3865
3151.54	58.2186
3150.94	58.2098
3150.34	58.2009
3149.74	70.6618
3149.14	54.0273
3148.54	45.7085
3147.94	62.3203
3147.33	70.6189
3146.73	83.0685
3146.13	66.4447
3145.53	87.1955
3144.93	49.8184
3144.32	41.509
3143.72	78.8552
3143.12	58.095
3142.52	66.3842
3141.91	37.3355
3141.31	58.0686
3140.71	33.177
3140.1	87.0764
3139.5	49.7504
3138.9	74.6142
3138.29	95.3259
3137.69	74.5916
3137.09	58.0069
3136.48	70.4262
3135.88	57.9892
3135.28	33.1317
3134.67	37.2675
3134.07	57.9628
3133.47	62.0936
3132.86	74.501
3132.26	74.4897
3131.65	78.616
3131.05	66.1929
3130.45	86.865
3129.84	49.6296
3129.24	57.8924
3128.63	82.6909
3128.03	74.4105
3127.42	28.933
3126.82	70.2552
3126.21	57.8484
3125.61	70.2338
3125	57.8308
3124.4	53.6919
3123.79	61.9428
3123.19	90.8356
3122.58	86.6935
3121.97	53.6593
3121.37	78.4131
3120.76	86.654
3120.16	57.7605
3119.55	82.5025
3118.94	74.2409
3118.34	90.7251
3117.73	57.7254
3117.13	94.8201
3116.52	78.3178
3115.91	65.9418
3115.31	78.2939
3114.7	74.1619
3114.09	70.0312
3113.48	74.1394
3112.88	74.1281
3112.27	78.2344
3111.66	94.6904
3111.06	57.6289
3110.45	94.6616
3109.84	74.0717
3109.23	78.1749
3108.63	61.7076
3108.02	90.4907
3107.41	65.8014
3106.8	78.1273
3106.19	78.1154
3105.59	73.9928
3104.98	73.9815
3104.37	82.1892
3103.76	73.959
3103.15	57.5149
3102.54	53.3986
3101.93	69.8183
3101.33	82.1266
3100.72	110.854
3100.11	86.2067
3099.5	94.4025
3098.89	73.8689
3098.28	86.1673
3097.67	41.0258
3097.06	98.4469
3096.45	57.4186
3095.84	98.4169
3095.23	90.2017
3094.62	98.3869
3094.01	86.0754
3093.4	86.0623
3092.79	90.1468
3092.18	122.909
3091.57	73.734
3090.96	90.1056
3090.35	102.377
3089.74	114.645
3089.13	98.252
3088.52	90.0506
3087.91	94.1295
3087.3	81.8392
3086.69	81.8268
3086.08	94.0864
3085.46	122.703
3084.85	89.9683
3084.24	106.31
3083.63	106.294
3083.02	77.6643
3082.41	134.87
3081.79	134.85
3081.18	122.572
3080.57	142.979
3079.96	130.703
3079.35	122.516
3078.73	155.163
3078.12	118.396
3077.51	118.378
3076.9	155.092
3076.28	110.18
3075.67	77.5222
3075.06	101.987
3074.45	114.208
3073.83	106.035
3073.22	81.5526
3072.61	106.002
3071.99	118.215
3071.38	110.046
3070.77	101.878
3070.15	110.012
3069.54	118.143
3068.93	93.6853
3068.31	118.107
3067.7	130.305
3067.08	113.999
3066.47	89.5573
3065.86	113.965
3065.24	81.3908
3064.63	101.723
3064.01	93.5708
3063.4	117.963
3062.78	89.4752
3062.17	97.5944
3061.55	121.974
3060.94	109.76
3060.32	89.4205
3059.71	97.5348
3059.09	101.583
3058.48	125.944
3057.86	109.676
3057.25	93.4137
3056.63	129.947
3056.02	73.084
3055.4	73.0729
3054.78	60.8847
3054.17	73.0505
3053.55	105.501
3052.94	93.3138
3052.32	81.13
3051.7	97.3411
3051.09	113.547
3050.47	113.53
3049.85	48.6482
3049.24	72.9612
3048.62	113.478
3048	101.304
3047.39	117.495
3046.77	56.7129
3046.15	101.258
3045.53	93.1427
3044.92	109.325
3044.3	97.1626
3043.68	93.0999
3043.06	84.9913
3042.45	80.9317
3041.83	113.287
3041.21	88.9976
3040.59	129.431
3039.97	93.0145
3039.35	105.131
3038.74	137.458
3038.12	101.056
3037.5	109.124
3036.88	96.9843
3036.26	88.8887
3035.64	105.034
3035.02	129.253
3034.41	72.6937
3033.79	129.213
3033.17	104.97
3032.55	117.064
3031.93	141.262
3031.31	84.7444
3030.69	92.8011
3030.07	133.129
3029.45	100.84
3028.83	129.055
3028.21	129.035
3027.59	104.825
3026.97	133.027
3026.35	112.854
3025.73	104.777
3025.11	132.966
3024.49	124.888
3023.87	96.6729
3023.25	92.6306
3022.63	120.804
3022	92.6022
3021.38	104.665
3020.76	108.674
3020.14	80.4867
3019.52	104.617
3018.9	128.739
3018.28	100.562
3017.66	144.787
3017.03	120.637
3016.41	120.619
3015.79	92.4604
3015.17	108.524
3014.55	96.4508
3013.92	96.436
3013.3	124.544
3012.68	92.3895
3012.06	120.49
3011.43	84.3298
3010.81	116.438
3010.19	136.492
3009.57	104.36
3008.94	148.49
3008.32	136.429
3007.7	128.384
3007.07	116.33
3006.45	132.356
3005.83	140.356
3005.2	136.325
3004.58	148.33
3003.96	124.258
3003.33	140.269
3002.71	116.205
3002.08	144.233
3001.46	124.181
3000.84	132.173
3000.21	116.134
2999.59	96.0962
2998.96	124.105
2998.34	124.086
2997.71	132.071
2997.09	132.051
2996.46	140.033
2995.84	140.011
2995.21	127.991
2994.59	135.969
2993.96	131.95
2993.34	115.938
2992.71	135.907
2992.09	151.872
2991.46	135.865
2990.84	91.8944
2990.21	171.776
2989.58	155.773
2988.96	139.775
2988.33	119.789
2987.71	171.671
2987.08	155.677
2986.45	135.698
2985.83	123.705
2985.2	167.575
2984.57	119.678
2983.95	115.671
2983.32	143.57
2982.69	151.522
2982.07	123.591
2981.44	163.434
2980.81	147.467
2980.18	155.414
2979.56	151.406
2978.93	135.448
2978.3	151.359
2977.67	115.493
2977.05	147.331
2976.42	135.364
2975.79	147.286
2975.16	147.263
2974.53	202.953
2973.91	159.154
2973.28	147.195
2972.65	190.926
2972.02	135.219
2971.39	159.056
2970.76	143.129
2970.13	162.983
2969.5	174.881
2968.88	186.776
2968.25	154.961
2967.62	158.909
2966.99	158.885
2966.36	135.031
2965.73	182.662
2965.1	142.93
2964.47	174.666
2963.84	178.608
2963.21	130.959
2962.58	154.746
2961.95	166.624
2961.32	154.698
2960.69	182.437
2960.06	162.582
2959.43	146.697
2958.8	170.46
2958.17	170.434
2957.53	134.741
2956.9	154.532
2956.27	178.278
2955.64	170.329
2955.01	182.184
2954.38	162.356
2953.75	190.046
2953.12	178.141
2952.48	178.113
2951.85	189.958
2951.22	182.015
2950.59	189.9
2949.96	122.625
2949.33	170.066
2948.69	166.086
2948.06	166.06
2947.43	150.222
2946.8	142.293
2946.16	201.551
2945.53	177.812
2944.9	169.883
2944.26	173.807
2943.63	146.133
2943	165.855
2942.37	165.83
2941.73	157.909
2941.1	185.514
2940.47	197.325
2939.83	149.944
2939.2	134.14
2938.56	197.234
2937.93	134.098
2937.3	153.795
2936.66	161.657
2936.03	153.747
2935.39	181.315
2934.76	157.641
2934.13	153.676
2933.49	161.532
2932.86	173.325
2932.22	185.114
2931.59	189.023
2930.95	161.432
2930.32	145.66
2929.68	133.829
2929.05	153.486
2928.41	177.072
2927.78	169.176
2927.14	173.084
2926.5	173.057
2925.87	173.031
2925.23	196.595
2924.6	165.114
2923.96	184.742
2923.32	172.924
2922.69	172.897
2922.05	188.586
2921.42	176.772
2920.78	164.962
2920.14	235.623
2919.51	188.469
2918.87	176.663
2918.23	164.86
2917.6	160.909
2916.96	176.581
2916.32	219.711
2915.68	180.449
2915.05	192.188
2914.41	180.393
2913.77	176.444
2913.13	152.895
2912.5	176.39
2911.86	168.524
2911.22	152.824
2910.58	188.062
2909.94	211.537
2909.31	203.671
2908.67	184.058
2908.03	199.692
2907.39	180.087
2906.75	187.887
2906.11	152.635
2905.47	211.308
2904.83	187.8
2904.2	207.331
2903.56	191.653
2902.92	211.177
2902.28	199.414
2901.64	183.745
2901	156.355
2900.36	183.689
2899.72	195.383
2899.08	168.003
2898.44	152.352
2897.8	246.068
2897.16	179.641
2896.52	226.469
2895.88	179.586
2895.24	183.461
2894.6	202.947
2893.96	199.013
2893.32	195.081
2892.67	187.249
2892.03	218.423
2891.39	179.391
2890.75	187.162
2890.11	191.031
2889.47	155.92
2888.83	202.664
2888.19	171.459
2887.54	249.356
2886.9	179.197
2886.26	206.434
2885.62	183.036
2884.98	214.157
2884.33	198.551
2883.69	217.984
2883.05	221.842
2882.41	221.807
2881.77	206.21
2881.12	217.848
2880.48	210.036
2879.84	217.781
2879.19	147.757
2878.55	178.836
2877.91	186.583
2877.26	182.667
2876.62	174.867
2875.98	194.266
2875.33	198.121
2874.69	217.511
2874.05	178.642
2873.4	201.912
2872.76	201.88
2872.11	186.322
2871.47	194.056
2870.83	194.026
2870.18	217.275
2869.54	209.483
2868.89	217.207
2868.25	213.296
2867.6	197.753
2866.96	170.584
2866.31	220.949
2865.67	209.288
2865.02	162.754
2864.38	209.223
2863.73	209.19
2863.09	193.665
2862.44	193.635
2861.8	209.093
2861.15	212.932
2860.5	185.803
2859.86	228.347
2859.21	216.702
2858.57	212.8
2857.92	239.846
2857.27	243.677
2856.63	204.966
2855.98	204.934
2855.33	201.036
2854.69	208.736
2854.04	239.623
2853.39	216.4
2852.75	231.821
2852.1	227.922
2851.45	196.986
2850.81	223.989
2850.16	208.509
2849.51	243.223
2848.86	216.164
2848.21	223.85
2847.57	227.674
2846.92	208.347
2846.27	262.322
2845.62	254.567
2844.97	208.25
2844.33	192.794
2843.68	242.883
2843.03	258.264
2842.38	211.975
2841.73	242.77
2841.08	196.497
2840.43	254.251
2839.78	211.843
2839.14	200.257
2838.49	250.282
2837.84	184.795
2837.19	242.505
2836.54	230.922
2835.89	238.582
2835.24	230.85
2834.59	238.508
2833.94	215.393
2833.29	234.588
2832.64	246.087
2831.99	219.137
2831.34	238.322
2830.69	238.285
2830.04	268.99
2829.39	219
2828.74	253.54
2828.08	268.864
2827.43	226.579
2826.78	180.467
2826.13	245.704
2825.48	211.119
2824.83	260.979
2824.18	214.891
2823.53	268.571
2822.87	241.677
2822.22	237.803
2821.57	226.262
2820.92	283.741
2820.27	272.196
2819.61	249.155
2818.96	237.618
2818.31	249.077
2817.66	199.231
2817	298.799
2816.35	245.131
2815.7	271.899
2815.05	268.028
2814.39	275.643
2813.74	248.806
2813.09	279.384
2812.43	264.034
2811.78	260.167
2811.13	241
2810.47	237.137
2809.82	229.452
2809.16	217.945
2808.51	259.965
2807.86	279.036
2807.2	278.993
2806.55	271.307
2805.89	259.803
2805.24	267.402
2804.58	229.166
2803.93	252.043
2803.28	236.731
2802.62	263.418
2801.97	274.828
2801.31	274.785
2800.66	259.479
2800	270.884
2799.34	255.583
2798.69	270.799
2798.03	263.13
2797.38	282.154
2796.72	240.174
2796.07	240.137
2795.41	262.966
2794.75	262.925
2794.1	259.074
2793.44	304.745
2792.79	243.758
2792.13	274.185
2791.47	289.373
2790.82	258.872
2790.16	239.8
2789.5	300.654
2788.84	281.582
2788.19	308.17
2787.53	285.298
2786.87	281.45
2786.22	258.589
2785.56	250.944
2784.9	281.318
2784.24	277.473
2783.59	266.028
2782.93	250.788
2782.27	262.146
2781.61	258.307
2780.95	258.266
2780.29	322.782
2779.64	288.56
2778.98	296.108
2778.32	326.427
2777.66	284.63
2777	295.969
2776.34	299.716
2775.68	288.29
2775.02	318.586
2774.36	284.408
2773.71	276.78
2773.05	276.737
2772.39	295.645
2771.73	322.127
2771.07	284.185
2770.41	295.507
2769.75	287.884
2769.09	321.926
2768.43	302.941
2767.77	291.536
2767.11	291.49
2766.45	295.229
2765.79	298.968
2765.12	264.867
2764.46	283.741
2763.8	242.088
2763.14	317.691
2762.48	317.641
2761.82	283.564
2761.16	272.179
2760.5	313.712
2759.83	283.431
2759.17	302.279
2758.51	302.231
2757.85	309.739
2757.19	332.35
2756.53	332.298
2755.86	320.92
2755.2	268.02
2754.54	260.43
2753.88	320.769
2753.21	290.534
2752.55	320.669
2751.89	313.075
2751.23	313.025
2750.56	305.435
2749.9	275.225
2749.24	305.339
2748.57	275.139
2747.91	316.549
2747.25	342.874
2746.58	312.682
2745.92	323.933
2745.25	316.351
2744.59	335.128
2743.93	304.957
2743.26	297.38
2742.6	312.389
2741.93	349.971
2741.27	319.816
2740.61	312.242
2739.94	323.477
2739.28	304.622
2738.61	353.457
2737.95	323.325
2737.28	334.551
2736.62	349.532
2735.95	304.384
2735.29	323.122
2734.62	308.045
2733.95	353.069
2733.29	315.459
2732.62	334.184
2731.96	349.149
2731.29	330.326
2730.62	334.027
2729.96	352.737
2729.29	333.922
2728.63	382.637
2727.96	360.073
2727.29	337.515
2726.63	348.711
2725.96	348.656
2725.29	307.369
2724.62	303.573
2723.96	348.492
2723.29	329.704
2722.62	344.637
2721.96	340.837
2721.29	318.314
2720.62	318.264
2719.95	265.803
2719.28	310.678
2718.62	318.115
2717.95	318.065
2717.28	351.687
2716.61	340.409
2715.94	325.395
2715.27	362.74
2714.61	396.334
2713.94	314.027
2713.27	355.093
2712.6	381.198
2711.93	343.772
2711.26	347.454
2710.59	358.606
2709.92	321.201
2709.25	388.368
2708.58	350.969
2707.91	354.647
2707.24	403.115
2706.57	350.804
2705.9	324.629
2705.23	320.847
2704.56	317.067
2703.89	335.665
2703.22	346.799
2702.55	316.917
2701.88	365.33
2701.21	368.999
2700.54	357.761
2699.87	324.17
2699.2	372.551
2698.53	357.593
2697.86	372.434
2697.19	398.441
2696.51	376.04
2695.84	413.206
2695.17	364.755
2694.5	394.469
2693.83	372.082
2693.15	353.423
2692.48	383.124
2691.81	383.064
2691.14	386.722
2690.47	368.072
2689.79	364.297
2689.12	408.84
2688.45	382.763
2687.77	367.84
2687.1	393.787
2686.43	360.296
2685.76	404.805
2685.08	393.601
2684.41	367.551
2683.74	397.189
2683.06	348.878
2682.39	411.908
2681.71	382.161
2681.04	404.359
2680.37	367.204
2679.69	370.854
2679.02	411.584
2678.34	392.982
2677.67	415.161
2676.99	370.621
2676.32	400.207
2675.65	337.159
2674.97	396.377
2674.3	429.649
2673.62	374.032
2672.95	385.081
2672.27	396.127
2671.59	444.185
2670.92	381.198
2670.24	325.633
2669.57	399.577
2668.89	406.913
2668.22	399.451
2667.54	395.69
2666.86	414.115
2666.19	458.412
2665.51	443.555
2664.83	410.224
2664.16	343.647
2663.48	387.927
2662.8	450.663
2662.13	373.031
2661.45	432.057
2660.77	424.605
2660.1	365.471
2659.42	380.178
2658.74	464.999
2658.06	428.027
2657.39	416.891
2656.71	398.382
2656.03	405.695
2655.35	427.756
2654.68	453.498
2654	453.426
2653.32	409.125
2652.64	423.801
2651.96	401.627
2651.28	401.563
2650.6	394.133
2649.93	452.997
2649.25	438.196
2648.57	427.082
2647.89	412.29
2647.21	412.225
2646.53	404.8
2645.85	393.697
2645.17	437.781
2644.49	400.93
2643.81	411.899
2643.13	433.897
2642.45	419.122
2641.77	400.676
2641.09	452.068
2640.41	463.021
2639.73	473.97
2639.05	393.076
2638.37	437.09
2637.69	459.056
2637.01	477.343
2636.33	455.239
2635.65	462.509
2634.96	436.745
2634.28	447.685
2633.6	447.614
2632.92	432.869
2632.24	447.472
2631.56	476.739
2630.88	428.998
2630.19	436.262
2629.51	443.524
2628.83	450.784
2628.15	447.048
2627.46	454.305
2626.78	388.296
2626.1	428.523
2625.42	399.159
2624.73	501.616
2624.05	486.893
2623.37	442.893
2622.69	464.781
2622	504.958
2621.32	428.049
2620.64	490.166
2619.95	446.2
2619.27	490.011
2618.58	460.684
2617.9	489.856
2617.22	467.848
2616.53	464.12
2615.85	445.777
2615.16	460.319
2614.48	441.983
2613.79	474.782
2613.11	478.359
2612.43	452.726
2611.74	449.004
2611.06	474.482
2610.37	456.16
2609.69	445.142
2609	452.368
2608.31	441.353
2607.63	481.4
2606.94	521.434
2606.26	492.185
2605.57	492.107
2604.89	459.227
2604.2	455.51
2603.51	480.943
2602.83	499.081
2602.14	531.783
2601.45	466.147
2600.77	502.485
2600.08	473.28
2599.39	516.886
2598.71	527.722
2598.02	462.139
2597.33	469.342
2596.65	476.543
2595.96	421.91
2595.27	520.031
2594.58	469.045
2593.9	465.335
2593.21	476.165
2592.52	483.359
2591.83	432.41
2591.14	479.572
2590.46	515.821
2589.77	486.684
2589.08	490.238
2588.39	530.099
2587.7	486.452
2587.01	475.486
2586.32	489.927
2585.64	486.221
2584.95	471.632
2584.26	540.477
2583.57	493.243
2582.88	511.296
2582.19	493.086
2581.5	514.759
2580.81	511.052
2580.12	492.852
2579.43	492.773
2578.74	496.318
2578.05	460.017
2577.36	554.106
2576.67	510.566
2575.98	528.587
2575.29	510.404
2574.6	521.18
2573.91	531.954
2573.22	531.869
2572.52	495.609
2571.83	578.722
2571.14	509.917
2570.45	470.062
2569.76	545.908
2569.07	502.445
2568.38	563.806
2567.68	495.058
2566.99	560.013
2566.3	520.188
2565.61	541.776
2564.92	501.966
2564.22	498.276
2563.53	570.399
2562.84	534.213
2562.14	544.955
2561.45	577.344
2560.76	519.527
2560.07	519.444
2559.37	541.002
2558.68	472.4
2557.99	493.958
2557.29	526.324
2556.6	526.24
2555.91	547.779
2555.21	518.866
2554.52	558.413
2553.82	543.916
2553.13	511.416
2552.44	478.926
2551.74	550.857
2551.05	583.167
2550.35	536.285
2549.66	529.002
2548.96	528.918
2548.27	579.199
2547.57	535.943
2546.88	589.804
2546.18	492.623
2545.49	539.283
2544.79	600.306
2544.1	557.082
2543.4	578.554
2542.7	567.683
2542.01	542.446
2541.31	553.135
2540.62	524.317
2539.92	545.778
2539.22	570.821
2538.53	574.32
2537.83	534.75
2537.13	566.96
2536.44	624.274
2535.74	617
2535.04	566.689
2534.35	588.115
2533.65	570.094
2532.95	620.192
2532.25	562.744
2531.56	573.405
2530.86	584.064
2530.16	634.128
2529.46	512.236
2528.76	565.877
2528.07	630.244
2527.37	544.214
2526.67	536.968
2525.97	576.254
2525.27	601.213
2524.57	586.804
2523.88	611.753
2523.18	568.733
2522.48	604.406
2521.78	604.309
2521.08	586.337
2520.38	604.116
2519.68	614.742
2518.98	607.497
2518.28	603.827
2517.58	578.725
2516.88	571.489
2516.18	614.252
2515.48	567.736
2514.78	560.505
2514.08	603.25
2513.38	578.171
2512.68	574.51
2511.98	638.639
2511.28	606.432
2510.58	559.968
2509.88	591.974
2509.17	602.576
2508.47	573.96
2507.77	598.819
2507.07	595.16
2506.37	566.559
2505.67	605.658
2504.97	626.934
2504.26	587.657
2503.56	612.49
2502.86	598.15
2502.16	640.773
2501.45	654.908
2500.75	647.686
2500.05	558.628
2499.35	651.036
2498.64	626.033
2497.94	625.933
2497.24	568.939
2496.53	636.399
2495.83	597.195
2495.13	636.196
2494.42	625.433
2493.72	646.651
2493.02	625.233
2492.31	596.718
2491.61	635.687
2490.9	614.281
2490.2	663.886
2489.5	685.077
2488.79	674.321
2488.09	635.179
2487.38	642.174
2486.68	585.313
2485.97	578.126
2485.27	652.504
2484.56	631.126
2483.86	631.025
2483.15	666.369
2482.45	630.823
2481.74	683.873
2481.04	616.45
2480.33	616.351
2479.62	665.836
2478.92	651.565
2478.21	591.272
2477.51	711.536
2476.8	668.95
2476.09	707.77
2475.39	693.503
2474.68	604.95
2473.97	682.67
2473.27	615.366
2472.56	678.915
2471.85	608.098
2471.14	710.512
2470.44	622.04
2469.73	685.548
2469.02	660.706
2468.31	597.013
2467.61	678.155
2466.9	709.83
2466.19	670.876
2465.48	649.586
2464.77	656.542
2464.07	681.141
2463.36	719.847
2462.65	719.732
2461.94	698.451
2461.23	723.028
2460.52	701.754
2459.81	613.496
2459.1	687.428
2458.4	697.892
2457.69	687.208
2456.98	708.239
2456.27	648.234
2455.56	700.967
2454.85	640.983
2454.14	693.7
2453.43	690.068
2452.72	661.795
2452.01	703.925
2451.3	700.293
2450.59	749.439
2449.88	735.247
2449.16	654.23
2448.45	727.978
2447.74	720.829
2447.03	738.292
2446.32	681.931
2445.61	723.996
2444.9	741.45
2444.19	772.952
2443.47	667.442
2442.76	709.483
2442.05	716.392
2441.34	726.811
2440.63	691.588
2439.91	709.027
2439.2	666.8
2438.49	736.871
2437.78	785.87
2437.06	631.401
2436.35	718.98
2435.64	739.905
2434.93	718.749
2434.21	718.634
2433.5	746.558
2432.79	700.881
2432.07	742.814
2431.36	763.715
2430.64	777.603
2429.93	749.461
2429.22	735.334
2428.5	770.226
2427.79	668.589
2427.07	745.479
2426.36	766.356
2425.65	724.247
2424.93	724.131
2424.22	748.498
2423.5	755.372
2422.79	748.257
2422.07	744.641
2421.36	751.512
2420.64	740.907
2419.92	789.708
2419.21	779.1
2418.49	733.563
2417.78	754.401
2417.06	722.851
2416.35	785.582
2415.63	733.092
2414.91	820.232
2414.2	806.141
2413.48	753.673
2412.76	757.041
2412.05	784.824
2411.33	833.523
2410.61	812.467
2409.9	760.04
2409.18	735.517
2408.46	770.251
2407.74	756.188
2407.03	752.583
2406.31	794.265
2405.59	783.688
2404.87	853.212
2404.16	752.098
2403.44	758.94
2402.72	710.086
2402	790.018
2401.28	814.248
2400.56	828.034
2399.85	747.893
2399.13	779.075
2398.41	782.427
2397.69	810.116
2396.97	823.891
2396.25	882.847
2395.53	785.398
2394.81	778.322
2394.09	830.309
2393.37	833.648
2392.65	830.041
2391.93	836.852
2391.21	819.358
2390.49	867.824
2389.77	801.74
2389.05	853.664
2388.33	825.769
2387.61	777.069
2386.89	808.16
2386.17	842.71
2385.45	790.563
2384.73	849.372
2384	818.038
2383.28	800.578
2382.56	890.543
2381.84	841.895
2381.12	848.687
2380.4	810.452
2379.67	862.265
2378.95	827.502
2378.23	893.143
2377.51	872.231
2376.79	840.945
2376.06	837.349
2375.34	851.052
2374.62	771.358
2373.9	816.193
2373.17	836.809
2372.45	791.728
2371.73	815.798
2371	850.228
2370.28	884.648
2369.56	849.954
2368.83	880.908
2368.11	898.035
2367.38	835.729
2366.66	877.028
2365.94	807.84
2365.21	828.42
2364.49	886.957
2363.76	876.462
2363.04	872.87
2362.31	883.078
2361.59	910.527
2360.86	824.17
2360.14	868.859
2359.41	872.165
2358.69	841.004
2357.96	854.653
2357.24	906.199
2356.51	816.481
2355.79	874.906
2355.06	860.988
2354.33	888.396
2353.61	867.596
2352.88	884.667
2352.15	898.291
2351.43	949.763
2350.7	942.729
2349.98	911.616
2349.25	880.513
2348.52	887.248
2347.79	931.804
2347.07	862.897
2346.34	914.316
2345.61	896.985
2344.88	889.967
2344.16	941.358
2343.43	910.29
2342.7	827.715
2341.97	934.033
2341.25	964.782
2340.52	923.432
2339.79	871.799
2339.06	991.768
2338.33	905.828
2337.6	939.988
2336.87	963.846
2336.14	912.248
2335.42	966.963
2334.69	953.093
2333.96	894.665
2333.23	887.666
2332.5	890.949
2331.77	976.459
2331.04	962.599
2330.31	965.868
2329.58	862.976
2328.85	927.892
2328.12	948.282
2327.39	961.819
2326.66	869.262
2325.93	958.086
2325.2	903.192
2324.47	930.411
2323.73	940.52
2323	865.138
2322.27	953.891
2321.54	1032.36
2320.81	960.418
2320.08	1004.69
2319.35	980.607
2318.61	925.789
2317.88	925.639
2317.15	922.074
2316.42	942.412
2315.69	935.431
2314.95	959.173
2314.22	952.192
2313.49	992.986
2312.76	972.354
2312.02	972.196
2311.29	948.164
2310.56	944.6
2309.82	951.266
2309.09	998.838
2308.36	913.465
2307.62	1005.33
2306.89	937.02
2306.16	994.783
2305.42	974.184
2304.69	953.592
2303.95	939.817
2303.22	973.71
2302.48	1011
2301.75	997.219
2301.02	925.595
2300.28	962.871
2299.55	989.93
2298.81	972.763
2298.08	935.197
2297.34	1006.45
2296.6	982.488
2295.87	1026.52
2295.13	1022.95
2294.4	1009.19
2293.66	958.068
2292.93	1042.83
2292.19	1029.08
2291.45	991.559
2290.72	1055.91
2289.98	994.631
2289.24	1021.62
2288.51	987.521
2287.77	1062.01
2287.03	1099.15
2286.3	1020.96
2285.56	1014.01
2284.82	1024.02
2284.08	1037.41
2283.35	1060.97
2282.61	1016.74
2281.87	1067.4
2281.13	1013.02
2280.4	1073.83
2279.66	1005.92
2278.92	1032.85
2278.18	1076.69
2277.44	1022.35
2276.7	1052.65
2275.97	1082.94
2275.23	1069.23
2274.49	1031.84
2273.75	1028.29
2273.01	1092.38
2272.27	1132.78
2271.53	1048.07
2270.79	1017.48
2270.05	1074.77
2269.31	1067.84
2268.57	1084.56
2267.83	1087.76
2267.09	1107.85
2266.35	1131.3
2265.61	1066.97
2264.87	1097.18
2264.13	1073.37
2263.39	1103.57
2262.65	1025.78
2261.91	1079.59
2261.17	1045.69
2260.42	1052.26
2259.68	1072.32
2258.94	1126.09
2258.2	1071.97
2257.46	1054.95
2256.72	1169.35
2255.97	1078.19
2255.23	1152.13
2254.49	1077.84
2253.75	1060.82
2253	1097.69
2252.26	1097.51
2251.52	1073.77
2250.78	1120.71
2250.03	1133.99
2249.29	1147.26
2248.55	1099.98
2247.8	1082.98
2247.06	1099.62
2246.32	1163.32
2245.57	1102.63
2244.83	1159.58
2244.09	1082.1
2243.34	1132.33
2242.6	1132.14
2241.85	1105.09
2241.11	1108.26
2240.36	1087.94
2239.62	1181.76
2238.88	1094.29
2238.13	1157.88
2237.39	1080.52
2236.64	1147.44
2235.89	1167.38
2235.15	1173.9
2234.4	1160.29
2233.66	1176.87
2232.91	1163.27
2232.17	1079.28
2231.42	1172.94
2230.67	1085.63
2229.93	1232.86
2229.18	1195.81
2228.44	1148.73
2227.69	1161.94
2226.94	1195.23
2226.2	1141.47
2225.45	1171.41
2224.7	1184.6
2223.95	1124.19
2223.21	1130.69
2222.46	1197.4
2221.71	1233.99
2220.96	1170.26
2220.22	1183.44
2219.47	1153.17
2218.72	1109.53
2217.97	1136.08
2217.22	1109.17
2216.48	1229.24
2215.73	1209
2214.98	1245.54
2214.23	1185.24
2213.48	1245.13
2212.73	1288.32
2211.98	1134.6
2211.23	1207.82
2210.48	1187.6
2209.73	1167.4
2208.98	1207.23
2208.23	1180.35
2207.48	1230.17
2206.73	1193.3
2205.98	1253.09
2205.23	1256.22
2204.48	1209.37
2203.73	1205.84
2202.98	1235.62
2202.23	1195.46
2201.48	1178.62
2200.73	1181.75
2199.98	1201.53
2199.23	1294.51
2198.48	1224.43
2197.72	1254.17
2196.97	1273.92
2196.22	1247.11
2195.47	1336.68
2194.72	1243.37
2193.97	1199.96
2193.21	1252.94
2192.46	1269.35
2191.71	1255.85
2190.96	1268.93
2190.2	1291.97
2189.45	1245.27
2188.7	1271.63
2187.94	1258.14
2187.19	1198.19
2186.44	1280.96
2185.68	1230.98
2184.93	1300.44
2184.18	1194.09
2183.42	1240.32
2182.67	1213.59
2181.91	1213.39
2181.16	1252.97
2180.41	1322.37
2179.65	1325.46
2178.9	1275.55
2178.14	1348.22
2177.39	1361.24
2176.63	1264.99
2175.88	1274.71
2175.12	1367.19
2174.37	1300.77
2173.61	1340.27
2172.86	1316.89
2172.1	1306.75
2171.34	1276.77
2170.59	1412.15
2169.83	1322.64
2169.08	1302.59
2168.32	1391.62
2167.56	1348.43
2166.81	1387.86
2166.05	1288.52
2165.29	1354.37
2164.54	1284.79
2163.78	1327.51
2163.02	1350.41
2162.27	1327.08
2161.51	1313.65
2160.75	1392.64
2159.99	1372.62
2159.23	1336.1
2158.48	1322.69
2157.72	1269.7
2156.96	1332.15
2156.2	1358.3
2155.44	1394.34
2154.69	1278.76
2153.93	1403.77
2153.17	1321.17
2152.41	1350.6
2151.65	1307.56
2150.89	1300.76
2150.13	1290.67
2149.37	1435.3
2148.61	1342.91
2147.85	1418.38
2147.09	1424.73
2146.33	1401.46
2145.57	1355.18
2144.81	1299.05
2144.05	1430.37
2143.29	1278.9
2142.53	1377.3
2141.77	1350.78
2141.01	1386.71
2140.25	1350.34
2139.49	1402.68
2138.73	1399.16
2137.97	1382.51
2137.2	1431.53
2136.44	1414.89
2135.68	1352.29
2134.92	1466.93
2134.16	1479.81
2133.4	1482.85
2132.63	1453.08
2131.87	1400.37
2131.11	1426.37
2130.35	1452.37
2129.58	1383.29
2128.82	1510.88
2128.06	1333.68
2127.29	1461.24
2126.53	1369.28
2125.77	1359.23
2125	1522.74
2124.24	1407.89
2123.48	1460.04
2122.71	1368.15
2121.95	1430.1
2121.19	1488.77
2120.42	1465.62
2119.66	1458.84
2118.89	1540.36
2118.13	1366.8
2117.36	1438.5
2116.6	1487.3
2115.83	1457.64
2115.07	1437.79
2114.3	1486.56
2113.54	1456.92
2112.77	1505.67
2112.01	1472.76
2111.24	1518.23
2110.48	1455.96
2109.71	1472.04
2108.94	1494.64
2108.18	1445.45
2107.41	1533.29
2106.64	1461.28
2105.88	1506.7
2105.11	1545.58
2104.34	1431.22
2103.58	1597.22
2102.81	1518.74
2102.04	1498.94
2101.28	1537.79
2100.51	1508.22
2099.74	1550.31
2098.97	1559.82
2098.21	1471.66
2097.44	1484.44
2096.67	1503.72
2095.9	1614.12
2095.13	1408.86
2094.36	1457.43
2093.6	1525.5
2092.83	1518.74
2092.06	1508.73
2091.29	1495.48
2090.52	1543.99
2089.75	1501.49
2088.98	1523.99
2088.21	1582.21
2087.44	1637.18
2086.67	1503.74
2085.9	1522.98
2085.13	1568.18
2084.36	1509.49
2083.59	1489.77
2082.82	1557.67
2082.05	1554.17
2081.28	1492.28
2080.51	1553.66
2079.74	1520.97
2078.97	1605.02
2078.2	1640.42
2077.43	1533.18
2076.65	1558.86
2075.88	1539.16
2075.11	1600.46
2074.34	1574.28
2073.57	1561.06
2072.8	1551.09
2072.02	1638.25
2071.25	1683.3
2070.48	1611.82
2069.71	1585.66
2068.93	1659.82
2068.16	1646.6
2067.39	1688.38
2066.61	1584.61
2065.84	1613.45
2065.07	1571.16
2064.29	1583.83
2063.52	1664.36
2062.75	1596.23
2061.97	1602.43
2061.2	1621.54
2060.43	1605.13
2059.65	1701.73
2058.88	1662.71
2058.1	1591.42
2057.33	1613.75
2056.55	1716.74
2055.78	1593.86
2055	1687.14
2054.23	1657.84
2053.45	1651.11
2052.68	1657.29
2051.9	1637.67
2051.13	1647.07
2050.35	1679.02
2049.57	1681.97
2048.8	1552.82
2048.02	1629.87
2047.25	1745.54
2046.47	1716.27
2045.69	1670.92
2044.92	1660.98
2044.14	1663.93
2043.36	1737.66
2042.59	1698.77
2041.81	1682.4
2041.03	1727.15
2040.25	1759.02
2039.48	1623.69
2038.7	1616.99
2037.92	1703.51
2037.14	1728.93
2036.37	1696.52
2035.59	1657.68
2034.81	1650.98
2034.03	1702.1
2033.25	1676.13
2032.47	1759.32
2031.69	1637.05
2030.92	1668.87
2030.14	1671.81
2029.36	1732.49
2028.58	1748.24
2027.8	1728.7
2027.02	1786.14
2026.24	1837.14
2025.46	1769.52
2024.68	1756.4
2023.9	1756.11
2023.12	1646.88
2022.34	1688.26
2021.56	1793.67
2020.78	1735.73
2020	1741.85
2019.21	1840.8
2018.43	1686.86
2017.65	1795.39
2016.87	1775.89
2016.09	1772.4
2015.31	1666.54
2014.53	1730.23
2013.74	1774.71
2012.96	1720.07
2012.18	1652.65
2011.4	1793
2010.62	1674.47
2009.83	1827.55
2009.05	1788.92
2008.27	1807.78
2007.49	1775.55
2006.7	1851.88
2005.92	1909.04
2005.14	1828.93
2004.35	1771.18
2003.57	1876.18
2002.79	1808.87
2002	1859.61
2001.22	1805.08
2000.43	1753.76
1999.65	1737.53
1998.87	1858.37
1998.08	1810.26
1997.3	1832.26
1996.51	1790.54
1995.73	1888.99
1994.94	1834.53
1994.16	1853.33
1993.37	1888.05
1992.59	1836.8
1991.8	1756.92
1991.02	1775.73
1990.23	1807.25
1989.44	1864.21
1988.66	1882.98
1987.87	1927.19
1987.09	1920.51
1986.3	1894.76
1985.51	1818.16
1984.73	1878.24
1983.94	1868.4
1983.15	1855.38
1982.37	1883.66
1981.58	1873.82
1980.79	1857.63
1980	1825.57
1979.22	1818.92
1978.43	2043.96
1977.64	1903.99
1976.85	1852.91
1976.06	2001.7
1975.28	1906.21
1974.49	1890.04
1973.7	1908.75
1972.91	1921.11
1972.12	1841.55
1971.33	1812.72
1970.54	1923.32
1969.76	1881.81
1968.97	1868.83
1968.18	1982.53
1967.39	1896.7
1966.6	1972.37
1965.81	1953.05
1965.02	1924.24
1964.23	1904.93
1963.44	1958.4
1962.65	2040.32
1961.86	1913.47
1961.07	1916.31
1960.28	1928.64
1959.48	1994.7
1958.69	1972.25
1957.9	1968.76
1957.11	1981.07
1956.32	2015.49
1955.53	1951.98
1954.74	2040.08
1953.94	1957.64
1953.15	1906.81
1952.36	1972.77
1951.57	1937.73
1950.78	1915.32
1949.98	1962.32
1949.19	1987.23
1948.4	1999.51
1947.61	2002.33
1946.81	1989.39
1946.02	1985.9
1945.23	1988.72
1944.43	1934.82
1943.64	2032.17
1942.85	1968.83
1942.05	2031.49
1941.26	1980.76
1940.46	1917.46
1939.67	1992.7
1938.88	1964.04
1938.08	2051.82
1937.29	1975.97
1936.49	2057.43
1935.7	2035.07
1934.9	1962.4
1934.11	2046.97
1933.31	2103.21
1932.52	1955.13
1931.72	2005.08
1930.93	2033.03
1930.13	2010.7
1929.33	2007.22
1928.54	2069.7
1927.74	2069.35
1926.95	2094.12
1926.15	2037.27
1925.35	2065.18
1924.56	2071.11
1923.76	2017.42
1922.96	2007.67
1922.17	2101.43
1921.37	2101.08
1920.57	2072.51
1919.77	2012.6
1918.98	2112.56
1918.18	2040.13
1917.38	2108.72
1916.58	2158.5
1915.78	2101.75
1914.99	2048.16
1914.19	2198.12
1913.39	2091.31
1912.59	2081.57
1911.79	2018.63
1910.99	2112.16
1910.19	2086.78
1909.39	2152.12
1908.59	2117.36
1907.8	2126.38
1907	2107.27
1906.2	2153.81
1905.4	2056.56
1904.6	2193.71
1903.8	2040.24
1903	2127.37
1902.2	2095.78
1901.39	2123.54
1900.59	2191.87
1899.79	2110.34
1898.99	2156.8
1898.19	2231.34
1897.39	2227.85
1896.59	2239.95
1895.79	2273.89
1894.99	2089.51
1894.18	2132.81
1893.38	2272.75
1892.58	2125.86
1891.78	2162.9
1890.98	2065.94
1890.17	2252.53
1889.37	2196.08
1888.57	2145.88
1887.76	2223.37
1886.96	2188.75
1886.16	2235.08
1885.36	2188.02
1884.55	2184.54
1883.75	2196.62
1882.94	2134.03
1882.14	2149.22
1881.34	2248.38
1880.53	2195.14
1879.73	2163.69
1878.92	2228.6
1878.12	2141.21
1877.32	2258.92
1876.51	2196.41
1875.71	2267.48
1874.9	2201.88
1874.1	2244.98
1873.29	2229.08
1872.49	2281.48
1871.68	2271.79
1870.87	2249.68
1870.07	2190.36
1869.26	2335.78
1868.46	2344.7
1867.65	2238.87
1866.84	2213.69
1866.04	2231.92
1865.23	2228.44
1864.42	2265.26
1863.62	2311.35
1862.81	2273.79
1862	2338.45
1861.2	2378.31
1860.39	2362.43
1859.58	2275.36
1858.77	2234.74
1857.96	2231.27
1857.16	2215.42
1856.35	2267.64
1855.54	2273.45
1854.73	2229.77
1853.92	2294.33
1853.12	2303.21
1852.31	2259.55
1851.5	2172.64
1850.69	2289.69
1849.88	2295.49
1849.07	2233.32
1848.26	2316.33
1847.45	2442.55
1846.64	2405.09
1845.83	2321.34
1845.02	2324.04
1844.21	2190.95
1843.4	2354.11
1842.59	2325.95
1841.78	2251.53
1840.97	2374.5
1840.16	2463.52
1839.35	2293.55
1838.54	2419.54
1837.72	2385.23
1836.91	2474.19
1836.1	2353.62
1835.29	2260.82
1834.48	2466.78
1833.67	2472.52
1832.85	2456.71
1832.04	2354.72
1831.23	2363.56
1830.42	2344.7
1829.6	2328.92
1828.79	2359.29
1827.98	2423.48
1827.17	2410.77
1826.35	2345.8
1825.54	2376.14
1824.73	2492.53
1823.91	2446.02
1823.1	2470.18
1822.29	2485.13
1821.47	2386.43
1820.66	2422.87
1819.84	2431.68
1819.03	2477.31
1818.21	2378.68
1817.4	2455
1816.58	2420.83
1815.77	2429.63
1814.95	2472.16
1814.14	2520.81
1813.32	2483.59
1812.51	2418.79
1811.69	2403.06
1810.88	2482.33
1810.06	2423.7
1809.25	2414.1
1808.43	2499.45
1807.61	2413.28
1806.8	2431.25
1805.98	2378.79
1805.16	2491.65
1804.35	2451.44
1803.53	2435.73
1802.71	2484.27
1801.89	2422.67
1801.08	2431.43
1800.26	2492.18
1799.44	2485.65
1798.62	2518.85
1797.81	2487.86
1796.99	2444.66
1796.17	2432.03
1795.35	2544.65
1794.53	2477.02
1793.71	2525.46
1792.9	2482.29
1792.08	2460.5
1791.26	2518.08
1790.44	2502.4
1789.62	2645.38
1788.8	2593.07
1787.98	2519.43
1787.16	2616.59
1786.34	2506.38
1785.52	2573.03
1784.7	2660.99
1783.88	2508.16
1783.06	2425.46
1782.24	2604.8
1781.42	2534.3
1780.6	2567.37
1779.78	2469.5
1778.95	2548.24
1778.13	2566.07
1777.31	2611.29
1776.49	2623.02
1775.67	2543.47
1774.85	2637.34
1774.02	2563.9
1773.2	2630.37
1772.38	2645.12
1771.56	2696.35
1770.74	2662.46
1769.91	2649.86
1769.09	2609.91
1768.27	2606.43
1767.44	2681.92
1766.62	2654.14
1765.8	2617.25
1764.97	2701.81
1764.15	2598.16
1763.33	2676.62
1762.5	2600.31
1761.68	2593.8
1760.85	2629.76
1760.03	2659.64
1759.21	2704.68
1758.38	2643.59
1757.56	2637.08
1756.73	2676.03
1755.91	2618
1755.08	2690.27
1754.26	2644.38
1753.43	2683.3
1752.6	2725.24
1751.78	2797.44
1750.95	2751.56
1750.13	2735.96
1749.3	2765.75
1748.47	2719.9
1747.65	2746.67
1746.82	2909.52
1745.99	2809.24
1745.17	2878.3
1744.34	2862.7
1743.51	2907.55
1742.69	2882.88
1741.86	3075.76
1741.03	2906.07
1740.2	3014.31
1739.38	3140.63
1738.55	3010.27
1737.72	3166.74
1736.89	3075.65
1736.06	3204.89
1735.23	3273.75
1734.4	3200.79
1733.58	3302.8
1732.75	3332.4
1731.92	3352.94
1731.09	3454.87
1730.26	3445.24
1729.43	3513.97
1728.6	3501.32
1727.77	3579.06
1726.94	3596.52
1726.11	3598.92
1725.28	3676.6
1724.45	3688.02
1723.62	3690.4
1722.79	3632.59
1721.96	3625.96
1721.13	3565.17
1720.3	3435.22
1719.46	3437.64
1718.63	3458.11
1717.8	3313.21
1716.97	3324.67
1716.14	3357.16
1715.31	3212.35
1714.47	3187.77
1713.64	3139.16
1712.81	3087.57
1711.98	3069.03
1711.14	3065.51
1710.31	2992.94
1709.48	2971.42
1708.65	2952.91
1707.81	3000.41
1706.98	2954.9
1706.15	2924.41
1705.31	2926.91
1704.48	2938.4
1703.64	2841.97
1702.81	2931.41
1701.98	2745.11
1701.14	2813.56
1700.31	2890.97
1699.47	2716.75
1698.64	2898.97
1697.8	2826.61
1696.97	2844.1
1696.13	2831.64
1695.3	2765.32
1694.46	2998.24
1693.63	2857.12
1692.79	2889.54
1691.95	2760.44
1691.12	2837.72
1690.28	2908.99
1689.45	2848.71
1688.61	2872.13
1687.77	2773.03
1686.94	2957.8
1686.1	2858.72
1685.26	2738.76
1684.42	2875.66
1683.59	2890.1
1682.75	2898.56
1681.91	2892.1
1681.07	2948.3
1680.24	2917.97
1679.4	2953.27
1678.56	2809.6
1677.72	2821.05
1676.88	3071.02
1676.04	2936.35
1675.21	2861.33
1674.37	2991.97
1673.53	2902.07
1672.69	2865.83
1671.85	2942.78
1671.01	2879.74
1670.17	2980.49
1669.33	2905.55
1668.49	2997.33
1667.65	2910.51
1666.81	2898.11
1665.97	3007.69
1665.13	2914.97
1664.29	3045.33
1663.45	2803.96
1662.61	2931.32
1661.77	2853.54
1660.92	2945.18
1660.08	3007.08
1659.24	2872.87
1658.4	2940.7
1657.56	2910.5
1656.72	2895.16
1655.87	2977.79
1655.03	2953.53
1654.19	3018.32
1653.35	3026.71
1652.5	2839.28
1651.66	3040.51
1650.82	3007.36
1649.98	2938.65
1649.13	2920.36
1648.29	3062.15
1647.45	2954.93
1646.6	3081.84
1645.76	2950.95
1644.91	3030.43
1644.07	2946.98
1643.23	3005.71
1642.38	3011.11
1641.54	3043.16
1640.69	3036.72
1639.85	2953.34
1639	2994.26
1638.16	3023.33
1637.31	3170.7
1636.47	3105.1
1635.62	3092.74
1634.78	3062.65
1633.93	3071
1633.08	3064.56
1632.24	3105.4
1631.39	2998.52
1630.55	3057.08
1629.7	2917.76
1628.85	3129.85
1628.01	3002.37
1627.16	3122.88
1626.31	3151.86
1625.46	3112.96
1624.62	3165.53
1623.77	3188.58
1622.92	3173.29
1622.07	3317.23
1621.23	3290.13
1620.38	3510.64
1619.53	3521.83
1618.68	3695.08
1617.83	3906.57
1616.98	4044.34
1616.13	4311.65
1615.29	4452.26
1614.44	4725.3
1613.59	4733.32
1612.74	4673.65
1611.89	4922.97
1611.04	4742.66
1610.19	4600.65
1609.34	4541.04
1608.49	4134.46
1607.64	4107.29
1606.79	3936.09
1605.94	3782.58
1605.09	3699.66
1604.24	3581.5
1603.38	3475.13
1602.53	3465.73
1601.68	3482.75
1600.83	3405.82
1599.98	3343.59
1599.13	3416.39
1598.27	3383.52
1597.42	3280.25
1596.57	3212.22
1595.72	3232.2
1594.87	3313.76
1594.01	3137.27
1593.16	3280.37
1592.31	3215.33
1591.45	3173.75
1590.6	3278.68
1589.75	3172.66
1588.89	3175.04
1588.04	3306.28
1587.19	3229.59
1586.33	3158.77
1585.48	3289.94
1584.62	3195.73
1583.77	3236.15
1582.92	3247.29
1582.06	3205.79
1581.21	3234.48
1580.35	3222.23
1579.5	3189.52
1578.64	3308.81
1577.78	3211.8
1576.93	3190.8
1576.07	3307.11
1575.22	3233.52
1574.36	3270.93
1573.51	3287.88
1572.65	3240.61
1571.79	3228.37
1570.94	3154.86
1570.08	3224.35
1569.22	3296.73
1568.37	3275.74
1567.51	3225.6
1566.65	3283.37
1565.79	3113.71
1564.94	3317.22
1564.08	3176.75
1563.22	3292.76
1562.36	3169.83
1561.5	3303.28
1560.65	3229.9
1559.79	3194.41
1558.93	3217.15
1558.07	3254.44
1557.21	3253.88
1556.35	3273.69
1555.49	3261.49
1554.63	3228.93
1553.77	3251.64
1552.91	3248.17
1552.05	3311.58
1551.19	3084.26
1550.33	3229.06
1549.47	3298.24
1548.61	3288.96
1547.75	3302.92
1546.89	3241.36
1546.03	3336.63
1545.17	3333.15
1544.31	3242.58
1543.45	3297.17
1542.58	3334.33
1541.72	3255.42
1540.86	3304.17
1540	3387.72
1539.14	3407.43
1538.28	3357.55
1537.41	3420.75
1536.55	3359.3
1535.69	3347.13
1534.82	3303.09
1533.96	3519.79
1533.1	3478.63
1532.24	3567.81
1531.37	3538.24
1530.51	3720.01
1529.64	3710.68
1528.78	3686.89
1527.92	3593.67
1527.05	3630.66
1526.19	3491.19
1525.32	3565.78
1524.46	3417.7
1523.59	3515.4
1522.73	3448.32
1521.86	3352.35
1521	3331.55
1520.13	3411.87
1519.27	3365.06
1518.4	3396.25
1517.54	3490.95
1516.67	3403.74
1515.8	3420.47
1514.94	3365.05
1514.07	3214.42
1513.21	3401.39
1512.34	3386.38
1511.47	3405.98
1510.6	3197.78
1509.74	3370.21
1508.87	3297.57
1508	3389.22
1507.14	3302.19
1506.27	3324.67
1505.4	3378.82
1504.53	3343.68
1503.66	3305.67
1502.8	3333.89
1501.93	3445.57
1501.06	3384.54
1500.19	3254.47
1499.32	3397.76
1498.45	3443.19
1497.58	3341.94
1496.71	3401.75
1495.84	3335.03
1494.97	3311.46
1494.1	3247.66
1493.23	3385.03
1492.36	3312.62
1491.49	3343.64
1490.62	3406.25
1489.75	3328.13
1488.88	3402.2
1488.01	3427.45
1487.14	3415.37
1486.27	3437.74
1485.4	3511.74
1484.52	3453.76
1483.65	3427.35
1482.78	3323.53
1481.91	3388.89
1481.04	3359.64
1480.17	3344.73
1479.29	3355.61
1478.42	3469.64
1477.55	3483.36
1476.67	3365.33
1475.8	3496.47
1474.93	3352.71
1474.06	3546.79
1473.18	3368.72
1472.31	3433.96
1471.43	3436.22
1470.56	3364.11
1469.69	3495.1
1468.81	3637.47
1467.94	3536.77
1467.06	3541.88
1466.19	3401.21
1465.31	3569.23
1464.44	3540.04
1463.56	3562.28
1462.69	3518.82
1461.81	3483.94
1460.94	3489.04
1460.06	3462.75
1459.19	3547.77
1458.31	3589.96
1457.43	3580.78
1456.56	3543.08
1455.68	3579.54
1454.8	3544.7
1453.93	3615.37
1453.05	3577.68
1452.17	3711.02
1451.3	3613.49
1450.42	3607.16
1449.54	3492.58
1448.66	3694.21
1447.78	3494.22
1446.91	3576.19
1446.03	3578.41
1445.15	3651.79
1444.27	3545.87
1443.39	3550.94
1442.51	3541.79
1441.64	3509.89
1440.76	3580.38
1439.88	3545.63
1439	3496.69
1438.12	3589.88
1437.24	3452.85
1436.36	3531.81
1435.48	3579.49
1434.6	3499.34
1433.72	3524.29
1432.84	3560.59
1431.96	3542.94
1431.08	3536.64
1430.2	3484.95
1429.31	3583.65
1428.43	3452.53
1427.55	3400.87
1426.67	3561.93
1425.79	3456.4
1424.91	3535.18
1424.02	3534.57
1423.14	3514.11
1422.26	3564.5
1421.38	3614.88
1420.49	3441.47
1419.61	3542.82
1418.73	3652.63
1417.85	3564.24
1416.96	3594.75
1416.08	3659.22
1415.2	3480.32
1414.31	3570.25
1413.43	3643.17
1412.54	3735.86
1411.66	3565.56
1410.78	3624.3
1409.89	3711.3
1409.01	3498.7
1408.12	3645.02
1407.24	3630.26
1406.35	3530.77
1405.47	3682.65
1404.58	3662.25
1403.7	3619.26
1402.81	3519.84
1401.92	3533.34
1401.04	3620.19
1400.15	3529.29
1399.27	3534.31
1398.38	3488.57
1397.49	3544.36
1396.61	3588.85
1395.72	3605.14
1394.83	3359.33
1393.94	3530.62
1393.06	3670.87
1392.17	3642.06
1391.28	3523.14
1390.39	3590.11
1389.51	3502.21
1388.62	3448.12
1387.73	3489.73
1386.84	3536.96
1385.95	3631.99
1385.06	3507.6
1384.17	3537.92
1383.29	3604.79
1382.4	3519.82
1381.51	3536.07
1380.62	3588.85
1379.73	3585.42
1378.84	3640.98
1377.95	3657.2
1377.06	3625.67
1376.17	3596.96
1375.28	3615.98
1374.39	3710.79
1373.5	3634.36
1372.6	3594.45
1371.71	3649.93
1370.82	3551.12
1369.93	3457.95
1369.04	3603.15
1368.15	3546.45
1367.26	3554.24
1366.36	3525.6
1365.47	3597.84
1364.58	3580.4
1363.69	3599.38
1362.79	3520.34
1361.9	3628.93
1361.01	3552.7
1360.11	3658.45
1359.22	3699.79
1358.33	3651.57
1357.43	3586.59
1356.54	3563.59
1355.65	3560.17
1354.75	3439.31
1353.86	3735.05
1352.96	3667.32
1352.07	3633.14
1351.17	3677.21
1350.28	3740.82
1349.39	3617.27
1348.49	3697.62
1347.59	3652.3
1346.7	3545.58
1345.8	3631.49
1344.91	3700.62
1344.01	3669.28
1343.12	3716.07
1342.22	3726.57
1341.32	3820.74
1340.43	3769.88
1339.53	3780.38
1338.63	3771.35
1337.74	3809.71
1336.84	3797.9
1335.94	3763.8
1335.04	3615.51
1334.15	3676.15
1333.25	3739.55
1332.35	3741.68
1331.45	3713.19
1330.55	3676.36
1329.66	3625.63
1328.76	3741.84
1327.86	3654.96
1326.96	3771.13
1326.06	3678.71
1325.16	3658.6
1324.26	3663.52
1323.36	3687.89
1322.46	3731.7
1321.56	3708.82
1320.66	3769.28
1319.76	3771.4
1318.86	3801.28
1317.96	3811.72
1317.06	3774.97
1316.16	3713.25
1315.26	3809.72
1314.36	3772.98
1313.46	3758.45
1312.55	3874.27
1311.65	3765.46
1310.75	3737.07
1309.85	3858.38
1308.95	3899.27
1308.04	3976.17
1307.14	3945
1306.24	3761.5
1305.34	3913.15
1304.43	3929.08
1303.53	4003.14
1302.63	3877.88
1301.72	3827.38
1300.82	3840.55
1299.92	3831.57
1299.01	3971.97
1298.11	3910.43
1297.21	4064.58
1296.3	3967.11
1295.4	4041.05
1294.49	4103.9
1293.59	4252.38
1292.68	4157.71
1291.78	4261.94
1290.87	4159.01
1289.97	4166.57
1289.06	4140.99
1288.16	4120.94
1287.25	4216.8
1286.34	4257.45
1285.44	4113.25
1284.53	4156.66
1283.62	4042.86
1282.72	4025.61
1281.81	4052.47
1280.9	4046.24
1280	4051.05
1279.09	4006.25
1278.18	4049.62
1277.27	3982.81
1276.37	3858.18
1275.46	3893.3
1274.55	3966.94
1273.64	3886.42
1272.73	3860.97
1271.82	3912.57
1270.92	3859.61
1270.01	3839.68
1269.1	3858.26
1268.19	3871.33
1267.28	3840.41
1266.37	3779.26
1265.46	3742.87
1264.55	3755.95
1263.64	3801.99
1262.73	3625.54
1261.82	3605.68
1260.91	3871.37
1260	3747.16
1259.09	3773.95
1258.18	3751.33
1257.27	3811.03
1256.35	3741.78
1255.44	3749.35
1254.53	3710.3
1253.62	3791.9
1252.71	3582.89
1251.79	3637.07
1250.88	3641.92
1249.97	3707.03
1249.06	3695.42
1248.14	3596.17
1247.23	3702.33
1246.32	3767.39
1245.41	3687.34
1244.49	3777.01
1243.58	3612.16
1242.66	3666.24
1241.75	3665.59
1240.84	3695.03
1239.92	3543.98
1239.01	3770.29
1238.09	3777.82
1237.18	3662.37
1236.26	3656.25
1235.35	3680.2
1234.43	3641.31
1233.52	3646.13
1232.6	3653.68
1231.69	3631.19
1230.77	3671.5
1229.86	3676.31
1228.94	3694.76
1228.02	3669.55
1227.11	3657.99
1226.19	3638.26
1225.27	3738.51
1224.36	3762.39
1223.44	3829.87
1222.52	3747.43
1221.6	3733.15
1220.69	3852.36
1219.77	3742.72
1218.85	3641.3
1217.93	3651.54
1217.01	3751.63
1216.1	3680.2
1215.18	3682.27
1214.26	3790.46
1213.34	3727.22
1212.42	3680.32
1211.5	3695.99
1210.58	3635.51
1209.66	3806.15
1208.74	3753.83
1207.82	3739.58
1206.9	3624.79
1205.98	3645.89
1205.06	3732.16
1204.14	3669.04
1203.22	3681.97
1202.3	3811.63
1201.38	3753.95
1200.46	3718.01
1199.54	3711.93
1198.61	3762.81
1197.69	3748.59
1196.77	3761.48
1195.85	3741.84
1194.93	3730.33
1194	3832.67
1193.08	3745.27
1192.16	3750.03
1191.24	3719.57
1190.31	3735.16
1189.39	3845.53
1188.47	3882.76
1187.54	3873.95
1186.62	3884.09
1185.7	3807.63
1184.77	3760.96
1183.85	3884.73
1182.92	3765.04
1182	3864.43
1181.07	3804.26
1180.15	3922.53
1179.23	3827.24
1178.3	3831.97
1177.37	3877.22
1176.45	3773.88
1175.52	3732.7
1174.6	3796.85
1173.67	3815.08
1172.75	3795.5
1171.82	3802.93
1170.89	4023.53
1169.97	3771.9
1169.04	3803.6
1168.11	3843.39
1167.19	3802.26
1166.26	3780.01
1165.33	3809
1164.4	3687.04
1163.48	3742.97
1162.55	3672.26
1161.62	3679.69
1160.69	3859.49
1159.76	3710.7
1158.83	3739.65
1157.91	3803.6
1156.98	3762.55
1156.05	3673.08
1155.12	3745.07
1154.19	3768.62
1153.26	3864.77
1152.33	3743.08
1151.4	3785.43
1150.47	3658.42
1149.54	3746.46
1148.61	3751.17
1147.68	3710.21
1146.75	3833.11
1145.82	3751.86
1144.89	3810.27
1143.96	3761.27
1143.02	3795.5
1142.09	3934.38
1141.16	3885.38
1140.23	3914.2
1139.3	3798.16
1138.36	3794.81
1137.43	3697.6
1136.5	3841.72
1135.57	3824.95
1134.63	3824.27
1133.7	3767.32
1132.77	3897.92
1131.83	3779.38
1130.9	3824.23
1129.97	3778.03
1129.03	3911.22
1128.1	3953.35
1127.17	3853.63
1126.23	3885.05
1125.3	3986.02
1124.36	3848.9
1123.43	3915.07
1122.49	4002.61
1121.56	4020.61
1120.62	4001.18
1119.69	3957.71
1118.75	4010.45
1117.81	3918.91
1116.88	4019.7
1115.94	3930.87
1115.01	3935.51
1114.07	4017.56
1113.13	3998.16
1112.2	4034.81
1111.26	3991.4
1110.32	4025.37
1109.38	3979.31
1108.45	4042.6
1107.51	4057.88
1106.57	3966.53
1105.63	3992.47
1104.69	4095.68
1103.76	3921.78
1102.82	3915.75
1101.88	3984.3
1100.94	3980.93
1100	4057.43
1099.06	3942.24
1098.12	4037.35
1097.18	3970.11
1096.24	4006.65
1095.3	4309.17
1094.36	3936.07
1093.42	4161.39
1092.48	4126.09
1091.54	4034.98
1090.6	4066.15
1089.66	3956.48
1088.72	4128.46
1087.78	3949.76
1086.84	3935.78
1085.9	3988.18
1084.95	3889.24
1084.01	4050.46
1083.07	3911.74
1082.13	3926.96
1081.19	4032.38
1080.24	3885.77
1079.3	3900.99
1078.36	3955.98
1077.41	3830.67
1076.47	3848.54
1075.53	3752.46
1074.58	3847.17
1073.64	3888.87
1072.7	3914.66
1071.75	3821.28
1070.81	3892.08
1069.86	3965.51
1068.92	3829.82
1067.98	3868.83
1067.03	3846.97
1066.09	3838.35
1065.14	3803.28
1064.19	3850.2
1063.25	3910.32
1062.3	3690.22
1061.36	3879.85
1060.41	3902.94
1059.46	3952.44
1058.52	3872.49
1057.57	3945.75
1056.63	3805.09
1055.68	3820.25
1054.73	3925.16
1053.78	3834.72
1052.84	3889.45
1051.89	3777.95
1050.94	3806.29
1049.99	3966.48
1049.05	3802.29
1048.1	3885.97
1047.15	3848.38
1046.2	3852.96
1045.25	3778.49
1044.3	3788.35
1043.35	3800.85
1042.4	3902.87
1041.45	4041.73
1040.5	3788.28
1039.55	3898.15
1038.6	3979.03
1037.65	3915.17
1036.7	3864.48
1035.75	3803.3
1034.8	3792.1
1033.85	3912.37
1032.9	3945.84
1031.95	3905.71
1031	3883.99
1030.05	3899.06
1029.1	3816.92
1028.14	3989.59
1027.19	3912.72
1026.24	3880.51
1025.29	3966.44
1024.33	3886.99
1023.38	3957.15
1022.43	3901.34
1021.48	3908.51
1020.52	3955.02
1019.57	3891.38
1018.62	3969.33
1017.66	3971.24
1016.71	3994.12
1015.75	3804.74
1014.8	4121.06
1013.85	3926.49
1012.89	3941.5
1011.94	3961.74
1010.98	3966.26
1010.03	3965.55
1009.07	4004.1
1008.12	4110.66
1007.16	4034.05
1006.2	3933.94
1005.25	3928
1004.29	3859.31
1003.34	4010.25
1002.38	3980.77
1001.42	4019.26
1000.47	3974.12
999.508	4062.23
998.551	4030.16
997.594	3901.47
996.636	3924.27
995.679	4090.64
994.721	4022.04
993.763	4099.61
992.805	3853.62
991.846	4032.92
990.888	3833.98
989.929	4000.18
988.97	4082.89
988.011	3923.15
987.052	3930.26
986.093	3986.88
985.133	3923.64
984.173	4079.22
983.213	3880.56
982.253	3926.73
981.293	3902.59
980.333	4047.66
979.372	3992.28
978.411	3981.15
977.45	3904.99
976.489	3966.72
975.528	3877.58
974.566	3978.29
973.605	4078.96
972.643	3940.47
971.681	3957.95
970.719	3837.72
969.756	4016.28
968.794	3851.92
967.831	3864.21
966.868	3972.57
965.905	4062.71
964.942	4046.41
963.979	3830.29
963.015	3884.09
962.052	3909.33
961.088	3947.53
960.124	3952.01
959.159	3927.96
958.195	3859.86
957.23	3949.87
956.266	4052.82
955.301	3987.31
954.336	4025.45
953.37	3941.85
952.405	4057.67
951.439	3961.14
950.473	3880.18
949.507	3977.83
948.541	3948.65
947.575	3888.44
946.608	3962.75
945.642	4011.17
944.675	3901.85
943.708	4007.14
942.741	3936.63
941.773	4023.79
940.806	3981.72
939.838	4004.25
938.87	3954.45
937.902	3969.24
936.934	4056.31
935.965	3947.15
934.997	3977.41
934.028	3927.66
933.059	3895.99
932.09	4065.55
931.121	4059.66
930.151	4035.72
929.182	3970.53
928.212	3874.44
927.242	3997.45
926.272	3978.69
925.301	3931.6
924.331	3982.41
923.36	4022.9
922.389	4055.64
921.418	3969.95
920.447	4061.9
919.475	3888.74
918.504	4088.74
917.532	4031.4
916.56	4159.29
915.588	4068.52
914.616	4029.22
913.643	4005.35
912.671	4102.3
911.698	4024.47
910.725	4059.71
909.752	4056.41
908.779	4027.42
907.805	4029.26
906.831	4010.56
905.858	4045.78
904.883	3903.88
903.909	4034.05
902.935	4035.88
901.96	4071.07
900.986	4034.42
900.011	4172.17
899.036	4084.24
898.06	4124.52
897.085	4151.97
896.109	4041.03
895.133	4170.96
894.157	4285.48
893.181	4084.94
892.205	4253.2
891.229	4144.9
890.252	4062.24
889.275	4161.32
888.298	4101.71
887.321	4113.76
886.343	4089.99
885.366	4237.58
884.388	4165.22
883.41	4213.04
882.432	4153.49
881.454	4160.4
880.475	4228.64
879.497	4276.41
878.518	4170.91
877.539	4180.37
876.56	4202.6
875.58	4250.34
874.601	4134.71
873.621	4146.72
872.641	4123.01
871.661	4145.22
870.681	4277.09
869.701	4207.47
868.72	4176.11
867.739	4190.65
866.758	4253.6
865.777	4301.25
864.796	4331.04
863.815	4470.35
862.833	4530.66
861.851	4458.54
860.869	4551.93
859.887	4665.65
858.905	4641.9
857.922	4702.12
856.939	4764.87
855.956	4667.35
854.973	4814
853.99	4523.27
853.007	4423.31
852.023	4592.8
851.039	4503.02
850.055	4349.76
849.071	4249.9
848.087	4353.26
847.102	4316.92
846.118	4173.96
845.133	4335.66
844.148	4337.41
843.163	4321.4
842.177	4206.44
841.192	4223.44
840.206	4321.58
839.22	4318.26
838.234	4208.46
837.248	4164.6
836.261	4331.11
835.274	4178.29
834.288	4291.54
833.301	4356.61
832.313	4414.07
831.326	4294.26
830.339	4177.03
829.351	4302.82
828.363	4165.39
827.375	4422.71
826.387	4346.01
825.398	4304.75
824.409	4372.25
823.421	4373.98
822.432	4335.27
821.443	4342.06
820.453	4313.48
819.464	4254.58
818.474	4231.07
817.484	4338.9
816.494	4310.34
815.504	4241.39
814.513	4334.01
813.523	4297.89
812.532	4304.68
811.541	4437.6
810.55	4340.95
809.559	4244.32
808.567	4200.69
807.575	4346.14
806.583	4307.54
805.591	4306.75
804.599	4366.44
803.607	4416.03
802.614	4317
801.621	4353.98
800.628	4247.44
799.635	4309.6
798.642	4188.01
797.649	4333.2
796.655	4360.08
795.661	4339.16
794.667	4501.85
793.673	4483.42
792.678	4434.84
791.684	4499.39
790.689	4282.43
789.694	4364.57
788.699	4268.31
787.704	4307.72
786.708	4404.88
785.713	4303.64
784.717	4410.8
783.721	4372.35
782.724	4195.89
781.728	4383.3
780.731	4279.65
779.735	4349.09
778.738	4398.45
777.741	4387.62
776.743	4361.75
775.746	4303.31
774.748	4277.47
773.75	4374.4
772.752	4433.72
771.754	4275.13
770.756	4449.63
769.757	4361.19
768.758	4317.84
767.759	4392.13
766.76	4331.28
765.761	4383.02
764.761	4317.19
763.762	4278.89
762.762	4448.13
761.762	4374.82
760.762	4354.03
759.761	4408.21
758.761	4414.9
757.76	4359.13
756.759	4520.68
755.758	4509.87
754.756	4346.76
753.755	4418.35
752.753	4425.03
751.751	4399.27
750.749	4568.12
749.747	4634.63
748.745	4591.39
747.742	4692.78
746.739	4589.71
745.736	4519.08
744.733	4568.09
743.73	4460.11
742.726	4416.95
741.723	4480.9
740.719	4390.43
739.715	4431.95
738.71	4416.21
737.706	4397.97
736.701	4397.17
735.697	4471.01
734.692	4502.53
733.686	4379.83
732.681	4418.82
731.675	4410.55
730.67	4539
729.664	4264.79
728.658	4430.49
727.651	4362.6
726.645	4508.35
725.638	4542.3
724.631	4514.15
723.624	4453.74
722.617	4596.89
721.61	4489.34
720.602	4515.81
719.595	4460.4
718.587	4419.9
717.578	4540.6
716.57	4537.29
715.562	4548.85
714.553	4538.11
713.544	4443.11
712.535	4449.73
711.526	4560.38
710.516	4559.54
709.507	4506.71
708.497	4401.9
707.487	4638.72
706.477	4637.87
705.467	4614.75
704.456	4665.86
703.445	4729.31
702.434	4698.77
701.423	4645.98
700.412	4617.93
699.401	4683.82
698.389	4551.99
697.377	4669.75
696.365	4609.6
695.353	4616.17
694.34	4733.85
693.328	4673.73
692.315	4598.81
691.302	4625.12
690.289	4597.12
689.276	4554.34
688.262	4538.7
687.249	4646.38
686.235	4500.05
685.221	4447.45
684.206	4552.62
683.192	4638.04
682.177	4637.19
681.162	4680.68
680.147	4625.63
679.132	4639.56
678.117	4626.39
677.101	4728.93
676.086	4553.31
675.07	4680.44
674.054	4650.05
673.037	4708.24
672.021	4594.24
671.004	4642.57
669.987	4690.89
668.97	4608.91
667.953	4556.45
666.936	4548.24
665.918	4616.19
664.9	4610.43
663.882	4550.64
662.864	4611.19
661.846	4519.51
660.827	4656.13
659.808	4701.9
658.789	4686.31
657.77	4572.6
656.751	4601.19
655.731	4730.31
654.712	4776.03
653.692	4809.46
652.672	4690.94
651.652	4604.31
650.631	4667.16
649.611	4663.85
648.59	4626.26
647.569	4676.82
646.548	4590.28
645.526	4782.8
644.505	4642.42
643.483	4741.89
642.461	4728.78
641.439	4718.13
640.417	4687.91
639.394	4760.4
638.371	4769.3
637.348	4814.86
636.325	4809.08
635.302	4803.31
634.279	4961.2
633.255	5070.19
632.231	5206
631.207	5168.41
630.183	5133.29
629.159	4905.38
628.134	4853.23
627.109	4801.1
626.084	4805.1
625.059	4809.09
624.034	4657.03
623.008	4697.61
621.983	4743.05
620.957	4756.8
619.931	4736.43
618.904	4786.71
617.878	4741.99
616.851	4765.46
615.824	4803.54
614.797	4775.87
613.77	4757.95
612.743	4825.21
611.715	4797.56
610.687	4743.16
609.659	4708.23
608.631	4746.27
607.603	4757.54
606.574	4858.75
605.546	4736.35
604.517	4759.77
603.487	4741.88
602.458	4775.01
601.429	4866.4
600.399	4736.83
599.369	4828.19
598.339	4815.16
597.309	4996.27
596.278	4820.66
595.248	4853.73
594.217	4864.96
593.186	4803.44
592.155	4720.12
591.123	4714.4
590.091	4764.42
589.06	4802.31
588.028	4823.22
586.996	4769.04
585.963	4850.5
584.931	4803.6
583.898	4780.92
582.865	4968.82
581.832	4810.61
580.798	4855.69
579.765	4782.22
578.731	4967.56
577.697	4843.32
576.663	4878.68
575.629	4870.53
574.594	4927.63
573.56	4830.06
572.525	4901.64
571.49	4881.41
570.455	4786.33
569.419	4990.67
568.384	4808.69
567.348	4687.12
566.312	4765.89
565.276	4830.15
564.239	4730.35
563.203	5006.83
562.166	4911.86
561.129	4824.16
560.092	5052.25
559.054	4885.03
558.017	4925.08
556.979	4909.71
555.941	4906.39
554.903	4936.79
553.865	4861.23
552.826	4915.7
551.787	4852.21
550.749	4885
549.709	4835.97
548.67	4811.02
547.631	4877.47
546.591	4749.12
545.551	4628.03
544.511	4903.6
543.471	4722.44
542.43	4908.99
541.39	4905.67
540.349	4976.82
539.308	4807.79
538.267	5042.2
537.225	4952.44
536.184	4865.12
535.142	4981.8
534.1	4889.7
533.058	5035.12
532.015	4962.23
530.973	4656.78
529.93	4811.75
528.887	4779.69
527.844	4702.11
526.801	4634.15
525.757	4635.68
524.713	4768.95
523.669	4784.83
522.625	4740.84
521.581	4783.05
520.537	4803.7
519.492	4915.28
518.447	4947.86
517.402	5061.76
516.357	4836
515.311	4859.02
514.265	4769.65
513.22	4914.58
512.174	4760.71
511.127	4700.09
510.081	4665.76
509.034	4538.3
507.987	4609.1
506.94	4601.08
505.893	4585.9
504.846	4616.07
503.798	4584.19
502.75	4611.97
501.702	4742.31
500.654	4679.42
499.606	4845.47
