3200.54	67.3567
3199.95	58.9371
3199.35	71.5556
3198.76	105.213
3198.16	88.3655
3197.57	54.6942
3196.98	67.3058
3196.38	63.0896
3195.79	75.6961
3195.19	58.8658
3194.6	63.061
3194	58.848
3193.41	58.8391
3192.81	84.0432
3192.22	67.2244
3191.62	88.2187
3191.03	113.407
3190.43	71.3935
3189.84	100.776
3189.24	75.5703
3188.65	67.1634
3188.05	100.73
3187.45	96.5182
3186.86	79.7204
3186.26	71.318
3185.67	50.3345
3185.07	50.3269
3184.47	88.0587
3183.88	79.6601
3183.28	92.224
3182.69	83.8273
3182.09	71.2425
3181.49	71.2317
3180.9	71.2209
3180.3	75.3989
3179.7	62.8229
3179.1	79.5637
3178.51	108.86
3177.91	92.0985
3177.31	62.7849
3176.72	66.9604
3176.12	79.5035
3175.52	104.594
3174.92	58.5638
3174.33	96.1973
3173.73	54.3642
3173.13	91.987
3172.53	66.8895
3171.93	66.8794
3171.34	79.4072
3170.74	104.467
3170.14	91.9173
3169.54	58.484
3168.94	41.7679
3168.34	79.3471
3167.74	100.213
3167.15	62.6234
3166.55	66.7882
3165.95	70.9517
3165.35	62.595
3164.75	70.9302
3164.15	91.7782
3163.55	112.62
3162.95	79.2389
3162.35	91.7364
3161.75	100.061
3161.15	62.5286
3160.55	83.3588
3159.95	66.677
3159.35	108.334
3158.75	87.487
3158.15	79.1429
3157.55	74.9661
3156.95	70.7906
3156.35	112.415
3155.75	104.072
3155.15	91.5697
3154.55	83.2325
3153.95	83.2199
3153.35	29.1225
3152.75	70.7155
3152.15	95.6593
3151.54	87.3279
3150.94	99.7882
3150.34	108.087
3149.74	112.228
3149.14	70.6511
3148.54	99.7276
3147.94	78.939
3147.33	78.9271
3146.73	78.9151
3146.13	107.973
3145.53	120.413
3144.93	78.8792
3144.32	78.8672
3143.72	95.4563
3143.12	82.9929
3142.52	87.1293
3141.91	99.5612
3141.31	107.842
3140.71	111.972
3140.1	95.3694
3139.5	82.9173
3138.9	103.631
3138.29	87.0367
3137.69	116.031
3137.09	91.1536
3136.48	107.711
3135.88	53.8472
3135.28	99.395
3134.67	115.943
3134.07	95.2246
3133.47	111.768
3132.86	91.0568
3132.26	91.0429
3131.65	82.7537
3131.05	103.426
3130.45	95.1379
3129.84	90.9876
3129.24	119.92
3128.63	99.229
3128.03	107.482
3127.42	107.465
3126.82	119.847
3126.21	82.6406
3125.61	86.7594
3125	90.877
3124.4	107.384
3123.79	115.627
3123.19	82.5778
3122.58	82.5652
3121.97	90.808
3121.37	78.4131
3120.76	103.159
3120.16	107.27
3119.55	103.128
3118.94	111.361
3118.34	119.592
3117.73	115.451
3117.13	57.7166
3116.52	127.782
3115.91	111.277
3115.31	94.7769
3114.7	107.123
3114.09	107.106
3113.48	98.8525
3112.88	119.429
3112.27	86.4696
3111.66	115.275
3111.06	90.5596
3110.45	127.587
3109.84	139.913
3109.23	82.2893
3108.63	139.871
3108.02	131.623
3107.41	98.7021
3106.8	115.135
3106.19	106.895
3105.59	110.989
3104.98	106.862
3104.37	131.503
3103.76	119.156
3103.15	119.138
3102.54	115.012
3101.93	139.637
3101.33	123.19
3100.72	123.171
3100.11	94.4168
3099.5	119.029
3098.89	123.115
3098.28	155.922
3097.67	77.949
3097.06	118.957
3096.45	143.547
3095.84	159.927
3095.23	155.803
3094.62	135.282
3094.01	114.767
3093.4	135.241
3092.79	106.537
3092.18	94.23
3091.57	106.505
3090.96	126.967
3090.35	122.852
3089.74	106.456
3089.13	118.721
3088.52	159.635
3087.91	143.241
3087.3	200.506
3086.69	130.923
3086.08	184.082
3085.46	159.514
3084.85	143.131
3084.24	171.731
3083.63	163.529
3083.02	220.73
3082.41	147.131
3081.79	192.058
3081.18	179.772
3080.57	151.149
3079.96	179.717
3079.35	187.857
3078.73	208.245
3078.12	200.048
3077.51	187.771
3076.9	208.15
3076.28	187.714
3075.67	150.964
3075.06	179.498
3074.45	134.603
3073.83	171.287
3073.22	175.338
3072.61	171.234
3071.99	175.284
3071.38	158.955
3070.77	175.231
3070.15	167.055
3069.54	183.325
3068.93	150.711
3068.31	126.252
3067.7	187.313
3067.08	150.642
3066.47	183.185
3065.86	138.386
3065.24	170.921
3064.63	134.274
3064.01	191.21
3063.4	122.03
3062.78	174.883
3062.17	142.325
3061.55	158.567
3060.94	138.216
3060.32	138.195
3059.71	121.918
3059.09	146.28
3058.48	162.508
3057.86	154.359
3057.25	134.028
3056.63	150.251
3056.02	158.349
3055.4	125.848
3054.78	174.536
3054.17	154.218
3053.55	146.079
3052.94	133.885
3052.32	133.865
3051.7	174.403
3051.09	121.658
3050.47	145.967
3049.85	141.891
3049.24	166.189
3048.62	170.217
3048	158.034
3047.39	174.216
3046.77	174.19
3046.15	166.062
3045.53	117.441
3044.92	137.668
3044.3	157.889
3043.68	125.483
3043.06	137.605
3042.45	174.003
3041.83	157.793
3041.21	182.041
3040.59	129.431
3039.97	157.72
3039.35	153.653
3038.74	173.843
3038.12	133.394
3037.5	137.416
3036.88	161.641
3036.26	153.535
3035.64	173.71
3035.02	137.331
3034.41	181.734
3033.79	141.327
3033.17	153.418
3032.55	185.687
3031.93	173.551
3031.31	153.347
3030.69	177.533
3030.07	165.403
3029.45	149.243
3028.83	177.451
3028.21	181.456
3027.59	169.333
3026.97	181.401
3026.35	177.342
3025.73	137.016
3025.11	132.966
3024.49	173.232
3023.87	149.037
3023.25	189.289
3022.63	173.152
3022	165.074
3021.38	189.202
3020.76	221.372
3020.14	144.876
3019.52	168.996
3018.9	132.762
3018.28	136.764
3017.66	197.071
3017.03	176.935
3016.41	172.887
3015.79	176.881
3015.17	213.028
3014.55	168.789
3013.92	168.763
3013.3	208.913
3012.68	208.881
3012.06	168.685
3011.43	232.911
3010.81	172.649
3010.19	156.564
3009.57	176.61
3008.94	204.675
3008.32	184.581
3007.7	196.588
3007.07	164.467
3006.45	204.55
3005.83	164.417
3005.2	224.535
3004.58	180.402
3003.96	168.349
3003.33	180.346
3002.71	224.397
3002.08	208.336
3001.46	212.31
3000.84	220.288
3000.21	224.259
2999.59	196.196
2998.96	180.153
2998.34	232.161
2997.71	240.13
2997.09	200.078
2996.46	232.054
2995.84	192.015
2995.21	215.984
2994.59	203.954
2993.96	227.913
2993.34	187.9
2992.71	199.863
2992.09	223.812
2991.46	163.837
2990.84	231.734
2990.21	179.766
2989.58	203.703
2988.96	247.601
2988.33	171.697
2987.71	223.571
2987.08	239.504
2986.45	227.493
2985.83	235.439
2985.2	187.525
2984.57	255.313
2983.95	207.41
2983.32	219.343
2982.69	215.321
2982.07	183.394
2981.44	207.283
2980.81	215.222
2980.18	231.129
2979.56	223.125
2978.93	246.993
2978.3	215.09
2977.67	207.092
2977.05	238.915
2976.42	254.804
2975.79	262.726
2975.16	262.685
2974.53	218.871
2973.91	242.71
2973.28	238.695
2972.65	210.814
2972.02	210.782
2971.39	214.726
2970.76	222.645
2970.13	230.561
2969.5	226.551
2968.88	266.255
2968.25	250.321
2967.62	218.501
2966.99	262.16
2966.36	281.977
2965.73	250.167
2965.1	238.217
2964.47	289.787
2963.84	269.897
2963.21	269.855
2962.58	309.492
2961.95	234.067
2961.32	297.497
2960.69	281.587
2960.06	222.063
2959.43	289.43
2958.8	269.564
2958.17	221.96
2957.53	293.259
2956.9	297.176
2956.27	265.437
2955.64	261.434
2955.01	261.394
2954.38	285.113
2953.75	273.192
2953.12	237.521
2952.48	229.569
2951.85	245.363
2951.22	241.368
2950.59	265.069
2949.96	241.294
2949.33	272.897
2948.69	213.539
2948.06	245.136
2947.43	245.098
2946.8	256.918
2946.16	233.167
2945.53	221.277
2944.9	240.996
2944.26	296.261
2943.63	248.821
2943	236.936
2942.37	256.641
2941.73	264.497
2941.1	292.086
2940.47	260.469
2939.83	288.05
2939.2	268.279
2938.56	284.016
2937.93	252.42
2937.3	244.494
2936.66	248.399
2936.03	260.188
2935.39	252.264
2934.76	260.107
2934.13	244.306
2933.49	291.546
2932.86	240.291
2932.22	228.438
2931.59	259.907
2930.95	307.115
2930.32	224.396
2929.68	275.531
2929.05	314.844
2928.41	275.446
2927.78	279.338
2927.14	259.626
2926.5	275.318
2925.87	271.343
2925.23	231.982
2924.6	302.71
2923.96	322.317
2923.32	267.246
2922.69	259.345
2922.05	255.376
2921.42	278.907
2920.78	263.153
2920.14	270.966
2919.51	251.292
2918.87	286.586
2918.23	294.392
2917.6	310.045
2916.96	262.909
2916.32	286.409
2915.68	270.673
2915.05	298.087
2914.41	270.59
2913.77	274.469
2913.13	297.949
2912.5	329.261
2911.86	246.907
2911.22	282.136
2910.58	286.011
2909.94	289.884
2909.31	297.672
2908.67	270.213
2908.03	321.073
2907.39	285.79
2906.75	309.231
2906.11	317.011
2905.47	313.049
2904.83	328.65
2904.2	297.304
2903.56	289.436
2902.92	324.587
2902.28	308.897
2901.64	304.939
2901	293.165
2900.36	312.661
2899.72	304.798
2899.08	289.122
2898.44	292.984
2897.8	226.539
2897.16	308.514
2896.52	316.276
2895.88	296.707
2895.24	312.274
2894.6	331.74
2893.96	316.08
2893.32	288.72
2892.67	304.279
2892.03	323.734
2891.39	323.684
2890.75	343.13
2890.11	304.091
2889.47	343.023
2888.83	323.483
2888.19	288.362
2887.54	315.591
2886.9	335.02
2886.26	323.283
2885.62	362.177
2884.98	358.227
2884.33	338.705
2883.69	358.116
2883.05	299.681
2882.41	334.657
2881.77	307.369
2881.12	365.674
2880.48	303.385
2879.84	353.894
2879.19	299.402
2878.55	353.784
2877.91	334.294
2877.26	318.696
2876.62	318.646
2875.98	330.253
2875.33	334.086
2874.69	310.73
2874.05	318.449
2873.4	345.58
2872.76	337.762
2872.11	345.473
2871.47	283.321
2870.83	407.454
2870.18	345.312
2869.54	364.655
2868.89	290.903
2868.25	302.492
2867.6	345.098
2866.96	314.029
2866.31	337.238
2865.67	364.316
2865.02	360.384
2864.38	321.583
2863.73	321.533
2863.09	336.976
2862.44	344.669
2861.8	379.465
2861.15	356.177
2860.5	325.155
2859.86	340.585
2859.21	356.011
2858.57	317.265
2857.92	344.295
2857.27	336.506
2856.63	317.117
2855.98	355.735
2855.33	328.617
2854.69	336.297
2854.04	371.029
2853.39	390.292
2852.75	301.367
2852.1	355.403
2851.45	320.586
2850.81	386.188
2850.16	351.376
2849.51	389.929
2848.86	366.708
2848.21	335.775
2847.57	378.17
2846.92	320.237
2846.27	362.622
2845.62	381.851
2844.97	347.083
2844.33	374.021
2843.68	366.252
2843.03	373.904
2842.38	366.138
2841.73	381.495
2841.08	358.318
2840.43	331.297
2839.78	365.91
2839.14	323.491
2838.49	392.75
2837.84	373.439
2837.19	373.381
2836.54	392.567
2835.89	365.569
2835.24	377.055
2834.59	376.996
2833.94	311.55
2833.29	388.416
2832.64	392.201
2831.99	346.005
2831.34	345.952
2830.69	395.861
2830.04	368.9
2829.39	391.895
2828.74	422.567
2828.08	361.046
2827.43	372.511
2826.78	376.293
2826.13	380.073
2825.48	460.623
2824.83	364.603
2824.18	356.872
2823.53	422.041
2822.87	391.286
2822.22	349.034
2821.57	375.824
2820.92	463.956
2820.27	421.712
2819.61	398.648
2818.96	398.585
2818.31	421.515
2817.66	371.642
2817	402.23
2816.35	375.356
2815.7	405.934
2815.05	375.239
2814.39	390.494
2813.74	367.467
2813.09	409.509
2812.43	417.098
2811.78	451.467
2811.13	390.19
2810.47	470.45
2809.82	378.596
2809.16	435.891
2808.51	424.354
2807.86	389.886
2807.2	405.113
2806.55	420.334
2805.89	370.601
2805.24	446.943
2804.58	420.138
2803.93	404.797
2803.28	439.098
2802.62	439.029
2801.97	374.071
2801.31	480.874
2800.66	431.192
2800	434.94
2799.34	415.799
2798.69	472.945
2798.03	408.042
2797.38	388.914
2796.72	484.161
2796.07	465.027
2795.41	388.732
2794.75	434.398
2794.1	453.38
2793.44	449.499
2792.79	460.855
2792.13	411.278
2791.47	395.984
2790.82	388.308
2790.16	502.438
2789.5	399.604
2788.84	426.178
2788.19	418.502
2787.53	452.672
2786.87	395.551
2786.22	482.953
2785.56	433.449
2784.9	399.167
2784.24	452.319
2783.59	494.053
2782.93	398.98
2782.27	436.91
2781.61	436.842
2780.95	421.582
2780.29	493.667
2779.64	478.402
2778.98	421.384
2778.32	413.727
2777.66	447.818
2777	500.87
2776.34	489.41
2775.68	500.714
2775.02	447.538
2774.36	508.142
2773.71	451.189
2773.05	523.146
2772.39	454.839
2771.73	466.137
2771.07	458.486
2770.41	450.837
2769.75	469.706
2769.09	473.42
2768.43	511.214
2767.77	458.127
2767.11	488.34
2766.45	503.404
2765.79	442.775
2765.12	514.598
2764.46	522.084
2763.8	556.046
2763.14	510.574
2762.48	449.991
2761.82	457.483
2761.16	548.137
2760.5	506.475
2759.83	495.059
2759.17	479.867
2758.51	510.015
2757.85	494.826
2757.19	479.642
2756.53	513.552
2755.86	475.716
2755.2	445.442
2754.54	486.891
2753.88	498.136
2753.21	524.47
2752.55	479.117
2751.89	512.99
2751.23	486.509
2750.56	550.537
2749.9	546.68
2749.24	550.364
2748.57	520.126
2747.91	516.276
2747.25	535.035
2746.58	561.322
2745.92	493.434
2745.25	500.888
2744.59	538.465
2743.93	545.91
2743.26	538.296
2742.6	530.684
2741.93	519.312
2741.27	511.705
2740.61	507.863
2739.94	526.59
2739.28	492.661
2738.61	500.104
2737.95	545.141
2737.28	522.501
2736.62	533.695
2735.95	544.884
2735.29	556.071
2734.62	555.983
2733.95	507.068
2733.29	510.743
2732.62	533.193
2731.96	566.898
2731.29	525.518
2730.62	510.423
2729.96	521.601
2729.29	559.038
2728.63	547.696
2727.96	558.863
2727.29	547.525
2726.63	566.187
2725.96	577.345
2725.29	595.996
2724.62	607.146
2723.96	562.084
2723.29	479.57
2722.62	554.416
2721.96	550.583
2721.29	543.007
2720.62	531.689
2719.95	531.605
2719.28	568.953
2718.62	572.606
2717.95	553.807
2717.28	564.944
2716.61	523.707
2715.94	602.168
2715.27	598.334
2714.61	587.023
2713.94	590.669
2713.27	579.363
2712.6	560.586
2711.93	597.864
2711.26	579.09
2710.59	620.089
2709.92	619.992
2709.25	634.832
2708.58	556.324
2707.91	653.298
2707.24	597.207
2706.57	563.525
2705.9	593.288
2705.23	582.002
2704.56	630.403
2703.89	634.034
2703.22	637.663
2702.55	600.279
2701.88	622.551
2701.21	581.454
2700.54	599.996
2699.87	622.258
2699.2	614.709
2698.53	636.962
2697.86	592.17
2697.19	603.248
2696.51	599.43
2695.84	632.839
2695.17	547.133
2694.5	576.818
2693.83	584.169
2693.15	561.756
2692.48	569.107
2691.81	621.084
2691.14	665.608
2690.47	613.453
2689.79	631.943
2689.12	609.543
2688.45	605.731
2687.77	601.92
2687.1	653.835
2686.43	549.729
2685.76	586.781
2685.08	605.255
2684.41	638.573
2683.74	601.352
2683.06	616.103
2682.39	671.669
2681.71	660.433
2681.04	619.522
2680.37	597.17
2679.69	634.161
2679.02	697.097
2678.34	619.132
2677.67	630.155
2676.99	622.643
2676.32	637.367
2675.65	692.843
2674.97	677.916
2674.3	629.658
2673.62	662.889
2672.95	659.082
2672.27	692.297
2671.59	662.576
2670.92	618.06
2670.24	643.865
2669.57	621.565
2668.89	643.662
2668.22	654.656
2667.54	710.024
2666.86	706.214
2666.19	606.287
2665.51	650.547
2664.83	624.575
2664.16	642.952
2663.48	624.378
2662.8	687.077
2662.13	709.129
2661.45	661.01
2660.77	686.752
2660.1	679.26
2659.42	738.21
2658.74	627.379
2658.06	642.04
2657.39	756.307
2656.71	686.102
2656.03	689.682
2655.35	722.761
2654.68	671.029
2654	693.042
2653.32	630.274
2652.64	718.62
2651.96	766.407
2651.28	762.602
2650.6	751.431
2649.93	692.386
2649.25	710.688
2648.57	699.531
2647.89	699.42
2647.21	666.184
2646.53	739.679
2645.85	754.28
2645.17	765.197
2644.49	713.581
2643.81	720.824
2643.13	720.71
2642.45	738.979
2641.77	709.454
2641.09	724.044
2640.41	745.978
2639.73	712.792
2639.05	767.784
2638.37	712.567
2637.69	701.437
2637.01	771.092
2636.33	719.572
2635.65	789.202
2634.96	726.685
2634.28	708.222
2633.6	748.469
2632.92	759.356
2632.24	777.575
2631.56	685.771
2630.88	762.662
2630.19	828.531
2629.51	769.752
2628.83	663.348
2628.15	784.166
2627.46	707.103
2626.78	747.286
2626.1	736.18
2625.42	776.346
2624.73	728.625
2624.05	768.779
2623.37	754.016
2622.69	750.237
2622	768.414
2621.32	746.341
2620.64	702.328
2619.95	727.818
2619.27	775.241
2618.58	789.744
2617.9	807.897
2617.22	734.668
2616.53	811.296
2615.85	814.821
2615.16	843.919
2614.48	818.216
2613.79	883.825
2613.11	763.183
2612.43	854.337
2611.74	883.406
2611.06	806.619
2610.37	784.595
2609.69	806.363
2609	846.365
2608.31	798.813
2607.63	809.627
2606.94	794.913
2606.26	831.246
2605.57	834.759
2604.89	816.404
2604.2	830.851
2603.51	848.937
2602.83	761.372
2602.14	772.178
2601.45	844.891
2600.77	822.91
2600.08	797.295
2599.39	808.089
2598.71	829.798
2598.02	829.666
2597.33	833.173
2596.65	807.577
2595.96	800.175
2595.27	840.05
2594.58	825.373
2593.9	887.044
2593.21	846.92
2592.52	879.494
2591.83	803.047
2591.14	817.452
2590.46	835.486
2589.77	817.193
2589.08	896.954
2588.39	835.088
2587.7	925.712
2587.01	878.379
2586.32	841.949
2585.64	878.1
2584.95	848.938
2584.26	866.94
2583.57	881.309
2582.88	906.553
2582.19	913.66
2581.5	906.265
2580.81	913.37
2580.12	847.995
2579.43	952.937
2578.74	887.576
2578.05	869.324
2577.36	898.159
2576.67	883.532
2575.98	850.808
2575.29	933.93
2574.6	912.066
2573.91	864.877
2573.22	861.122
2572.52	908.014
2571.83	897.019
2571.14	904.109
2570.45	882.27
2569.76	882.13
2569.07	842.228
2568.38	917.991
2567.68	885.323
2566.99	874.343
2566.3	895.879
2565.61	953.526
2564.92	920.873
2564.22	924.337
2563.53	895.31
2562.84	902.386
2562.14	895.025
2561.45	873.232
2560.76	930.819
2560.07	894.598
2559.37	926.916
2558.68	926.769
2557.99	872.538
2557.29	883.214
2556.6	937.14
2555.91	962.217
2555.21	951.255
2554.52	969.117
2553.82	882.512
2553.13	968.808
2552.44	939.847
2551.74	914.495
2551.05	997.144
2550.35	957.394
2549.66	917.657
2548.96	874.334
2548.27	942.547
2547.57	899.234
2546.88	917.073
2546.18	837.819
2545.49	967.114
2544.79	923.824
2544.1	981.182
2543.4	981.026
2542.7	988.056
2542.01	966.344
2541.31	951.823
2540.62	962.445
2539.92	1008.97
2539.22	926.238
2538.53	997.881
2537.83	983.366
2537.13	900.677
2536.44	1000.99
2535.74	982.896
2535.04	971.98
2534.35	950.308
2533.65	953.742
2532.95	964.345
2532.25	1025.13
2531.56	974.789
2530.86	971.051
2530.16	877.747
2529.46	985.07
2528.76	924.027
2528.07	966.851
2527.37	973.858
2526.67	973.702
2525.97	969.968
2525.27	1002.02
2524.57	1059.11
2523.88	1019.59
2523.18	1048.04
2522.48	1029.99
2521.78	1008.37
2521.08	1094.02
2520.38	1025.93
2519.68	1068.65
2518.98	1075.63
2518.28	1075.46
2517.58	1043.13
2516.88	1089.4
2516.18	985.66
2515.48	1028.35
2514.78	1149.57
2514.08	1045.87
2513.38	1099.24
2512.68	1166.86
2511.98	1116.73
2511.28	984.56
2510.58	1077.14
2509.88	1016.34
2509.17	1051.83
2508.47	1069.49
2507.77	1055.06
2507.07	1015.69
2506.37	1083.23
2505.67	1061.68
2504.97	1090.01
2504.26	1057.78
2503.56	1061.17
2502.86	1068.13
2502.16	1039.48
2501.45	1121.17
2500.75	1081.85
2500.05	1056.77
2499.35	1024.58
2498.64	999.519
2497.94	1095.38
2497.24	1038.31
2496.53	1031.04
2495.83	1020.21
2495.13	1130.22
2494.42	1058.97
2493.72	1140.52
2493.02	1165.21
2492.31	1086.88
2491.61	1154.18
2490.9	1075.88
2490.2	1086.36
2489.5	1111.03
2488.79	1132.15
2488.09	1078.74
2487.38	1117.59
2486.68	1163.53
2485.97	1099.5
2485.27	1148.97
2484.56	1028.24
2483.86	1169.88
2483.15	1141.33
2482.45	1134.06
2481.74	1098.45
2481.04	1098.27
2480.33	1137.06
2479.62	1140.42
2478.92	1101.29
2478.21	1055.08
2477.51	1214.21
2476.8	1199.86
2476.09	1213.83
2475.39	1174.71
2474.68	1124.99
2473.97	1124.81
2473.27	1145.85
2472.56	1188.1
2471.85	1088.92
2471.14	1155.91
2470.44	1155.72
2469.73	1134.33
2469.02	1173.02
2468.31	1162.23
2467.61	1197.37
2466.9	1190.11
2466.19	1158.14
2465.48	1133.25
2464.77	1193.07
2464.07	1182.29
2463.36	1231.5
2462.65	1192.5
2461.94	1160.56
2461.23	1181.53
2460.52	1184.87
2459.81	1195.26
2459.1	1170.39
2458.4	1226.6
2457.69	1187.64
2456.98	1198.02
2456.27	1204.87
2455.56	1211.72
2454.85	1232.66
2454.14	1253.59
2453.43	1246.35
2452.72	1281.35
2452.01	1267.06
2451.3	1196.48
2450.59	1245.55
2449.88	1206.65
2449.16	1213.49
2448.45	1234.4
2447.74	1241.23
2447.03	1332.44
2446.32	1254.89
2445.61	1103.57
2444.9	1254.49
2444.19	1261.32
2443.47	1320.83
2442.76	1250.38
2442.05	1193.99
2441.34	1228.91
2440.63	1218.18
2439.91	1326.79
2439.2	1273.94
2438.49	1200.05
2437.78	1312.12
2437.06	1283.85
2436.35	1262.6
2435.64	1237.85
2434.93	1286.74
2434.21	1265.5
2433.5	1268.8
2432.79	1219.53
2432.07	1296.42
2431.36	1306.72
2430.64	1313.52
2429.93	1320.31
2429.22	1386.63
2428.5	1298.88
2427.79	1277.67
2427.07	1249.47
2426.36	1312.25
2425.65	1424
2424.93	1304.83
2424.22	1248.66
2423.5	1353.37
2422.79	1353.16
2422.07	1321.48
2421.36	1338.74
2420.64	1286.1
2419.92	1310.36
2419.21	1289.18
2418.49	1313.43
2417.78	1362.11
2417.06	1410.78
2416.35	1375.64
2415.63	1357.96
2414.91	1375.2
2414.2	1395.92
2413.48	1374.76
2412.76	1339.65
2412.05	1276.65
2411.33	1342.7
2410.61	1433.15
2409.9	1398.06
2409.18	1352.51
2408.46	1240.77
2407.74	1320.72
2407.03	1449.42
2406.31	1383
2405.59	1334.01
2404.87	1386.03
2404.16	1371.88
2403.44	1322.92
2402.72	1395.81
2402	1447.79
2401.28	1353.6
2400.56	1457.76
2399.85	1335.77
2399.13	1373.82
2398.41	1415.32
2397.69	1376.85
2396.97	1387.06
2396.25	1404.21
2395.53	1414.41
2394.81	1438.51
2394.09	1393.11
2393.37	1413.73
2392.65	1430.87
2391.93	1402.86
2391.21	1364.44
2390.49	1451
2389.77	1426.47
2389.05	1460.94
2388.33	1394.79
2387.61	1519.45
2386.89	1481.05
2386.17	1369.84
2385.45	1428.56
2384.73	1414.46
2384	1459.3
2383.28	1438.27
2382.56	1410.31
2381.84	1444.73
2381.12	1430.64
2380.4	1340.36
2379.67	1385.16
2378.95	1540.75
2378.23	1412.41
2377.51	1474.49
2376.79	1481.17
2376.06	1442.87
2375.34	1532.59
2374.62	1528.88
2373.9	1483.67
2373.17	1483.43
2372.45	1445.16
2371.73	1441.47
2371	1548.38
2370.28	1517.03
2369.56	1464.96
2368.83	1561.45
2368.11	1474.85
2367.38	1526.41
2366.66	1571.05
2365.94	1467.23
2365.21	1425.57
2364.49	1525.43
2363.76	1514.83
2363.04	1528.39
2362.31	1476.4
2361.59	1448.57
2360.86	1541.44
2360.14	1475.68
2359.41	1468.55
2358.69	1544.14
2357.96	1537
2357.24	1543.64
2356.51	1519.27
2355.79	1629.25
2355.06	1573.89
2354.33	1535.76
2353.61	1518.29
2352.88	1666.07
2352.15	1576.31
2351.43	1548.53
2350.7	1565.48
2349.98	1603.07
2349.25	1571.85
2348.52	1564.72
2347.79	1581.66
2347.07	1571.09
2346.34	1625.83
2345.61	1608.39
2344.88	1628.74
2344.16	1556.33
2343.43	1532.03
2342.7	1614.22
2341.97	1610.52
2341.25	1627.43
2340.52	1644.33
2339.79	1609.74
2339.06	1516.82
2338.33	1636.67
2337.6	1650.12
2336.87	1577.83
2336.14	1629.01
2335.42	1508.74
2334.69	1621.63
2333.96	1604.23
2333.23	1699.93
2332.5	1596.85
2331.77	1593.17
2331.04	1699.11
2330.31	1691.98
2329.58	1609.52
2328.85	1681.16
2328.12	1615.84
2327.39	1731.96
2326.66	1656.39
2325.93	1628.75
2325.2	1672.96
2324.47	1583.75
2323.73	1634.8
2323	1631.11
2322.27	1692.39
2321.54	1606.65
2320.81	1685
2320.08	1708.65
2319.35	1663.96
2318.61	1759.34
2317.88	1759.06
2317.15	1659.73
2316.42	1697.02
2315.69	1741.13
2314.95	1768.16
2314.22	1699.61
2313.49	1747.11
2312.76	1729.77
2312.02	1705.61
2311.29	1701.92
2310.56	1705.05
2309.82	1691.14
2309.09	1755.64
2308.36	1762.17
2307.62	1748.25
2306.89	1707.08
2306.16	1717.02
2305.42	1652.03
2304.69	1767.55
2303.95	1729.81
2303.22	1746.55
2302.48	1759.88
2301.75	1735.77
2301.02	1827.37
2300.28	1762.43
2299.55	1806.37
2298.81	1714.24
2298.08	1843.19
2297.34	1778.29
2296.6	1778
2295.87	1764.11
2295.13	1835.19
2294.4	1749.95
2293.66	1844.79
2292.93	1810.52
2292.19	1796.64
2291.45	1772.58
2290.72	1772.29
2289.98	1907.79
2289.24	1853.18
2288.51	1883.42
2287.77	1788.11
2287.03	1852.27
2286.3	1757
2285.56	1838.11
2284.82	1841.2
2284.08	1868.02
2283.35	1816.87
2282.61	1918.25
2281.87	1816.28
2281.13	1904.07
2280.4	1812.3
2279.66	1991.52
2278.92	1916.69
2278.18	1865.59
2277.44	1855.13
2276.7	1760.06
2275.97	1935.75
2275.23	1921.9
2274.49	1952.04
2273.75	1907.75
2273.01	1799.21
2272.27	1876.69
2271.53	1873.01
2270.79	1940.31
2270.05	1865.64
2269.31	1949.81
2268.57	1905.57
2267.83	1915.4
2267.09	1931.97
2266.35	1877.63
2265.61	1975.24
2264.87	1893.9
2264.13	1930.72
2263.39	1957.4
2262.65	1919.97
2261.91	2044.48
2261.17	1983.43
2260.42	1922.4
2259.68	1895.11
2258.94	1891.43
2258.2	1897.87
2257.46	1958.22
2256.72	1954.54
2255.97	1960.96
2255.23	2068.44
2254.49	1872.74
2253.75	1963.37
2253	2027.02
2252.26	1976.19
2251.52	2060.02
2250.78	1914.97
2250.03	2032.43
2249.29	1947.99
2248.55	2075.5
2247.8	1991.08
2247.06	2078.18
2246.32	2034.14
2245.57	2033.81
2244.83	1986.42
2244.09	2006.26
2243.34	2086.57
2242.6	2032.48
2241.85	2052.3
2241.11	2065.4
2240.36	2071.78
2239.62	2027.8
2238.88	2054.32
2238.13	2043.92
2237.39	2020.09
2236.64	2083.51
2235.89	2073.11
2235.15	2072.77
2234.4	2055.66
2233.66	2068.74
2232.91	2091.87
2232.17	2007.73
2231.42	2077.78
2230.67	2124.35
2229.93	2107.25
2229.18	2080.11
2228.44	2049.63
2227.69	2072.74
2226.94	2092.49
2226.2	2085.45
2225.45	2101.84
2224.7	2068.04
2223.95	2131.27
2223.21	2147.65
2222.46	2060.34
2221.71	2103.47
2220.96	2146.6
2220.22	2059.33
2219.47	2079.04
2218.72	2115.47
2217.97	2165.24
2217.22	2031.25
2216.48	2107.75
2215.73	2194.24
2214.98	2284.04
2214.23	2173.49
2213.48	2089.68
2212.73	2199.48
2211.98	2105.68
2211.23	2198.76
2210.48	2188.39
2209.73	2117.99
2208.98	2161
2208.23	2284.02
2207.48	2166.96
2206.73	2129.94
2205.98	2302.89
2205.23	2225.88
2204.48	2085.59
2203.73	2215.16
2202.98	2377.99
2202.23	2154.49
2201.48	2224.06
2200.73	2253.65
2199.98	2206.69
2199.23	2129.79
2198.48	2269.18
2197.72	2222.24
2196.97	2298.38
2196.22	2291.35
2195.47	2234.45
2194.72	2247.38
2193.97	2333.44
2193.21	2170.21
2192.46	2276.18
2191.71	2232.62
2190.96	2272.12
2190.2	2208.64
2189.45	2327.83
2188.7	2254.4
2187.94	2263.99
2187.19	2276.9
2186.44	2296.43
2185.68	2342.51
2184.93	2282.41
2184.18	2318.52
2183.42	2301.56
2182.67	2218.29
2181.91	2284.23
2181.16	2323.63
2180.41	2422.68
2179.65	2392.46
2178.9	2276.11
2178.14	2401.61
2177.39	2368.1
2176.63	2427.32
2175.88	2364.01
2175.12	2337.14
2174.37	2310.28
2173.61	2342.99
2172.86	2362.46
2172.1	2378.62
2171.34	2477.46
2170.59	2351.38
2169.83	2423.74
2169.08	2244.81
2168.32	2310.56
2167.56	2491.95
2166.81	2461.8
2166.05	2392.02
2165.29	2454.39
2164.54	2523.34
2163.78	2526.23
2163.02	2255.08
2162.27	2535.31
2161.51	2432.57
2160.75	2475.07
2159.99	2435.07
2159.23	2490.76
2158.48	2407.89
2157.72	2384.41
2156.96	2423.58
2156.2	2482.53
2155.44	2363.45
2154.69	2485.01
2153.93	2484.6
2153.17	2405.12
2152.41	2536.49
2151.65	2522.9
2150.89	2502.73
2150.13	2525.36
2149.37	2488.74
2148.61	2501.49
2147.85	2441.85
2147.09	2471.06
2146.33	2572.64
2145.57	2460.38
2144.81	2552.06
2144.05	2469.44
2143.29	2547.93
2142.53	2573.81
2141.77	2464.93
2141.01	2503.96
2140.25	2552.83
2139.49	2545.84
2138.73	2597.97
2137.97	2564.71
2137.2	2574.14
2136.44	2560.58
2135.68	2625.81
2134.92	2576.15
2134.16	2641.35
2133.4	2545.77
2132.63	2712.64
2131.87	2502.3
2131.11	2613.38
2130.35	2649.01
2129.58	2592.85
2128.82	2602.26
2128.06	2654.26
2127.29	2512.94
2126.53	2492.87
2125.77	2567.79
2125	2587.02
2124.24	2635.7
2123.48	2740.03
2122.71	2602.11
2121.95	2650.77
2121.19	2748.49
2120.42	2584.46
2119.66	2727.96
2118.89	2619.59
2118.13	2628.97
2117.36	2749.5
2116.6	2585.61
2115.83	2621.13
2115.07	2748.14
2114.3	2662.74
2113.54	2639.44
2112.77	2710.85
2112.01	2694.08
2111.24	2677.31
2110.48	2627.9
2109.71	2562.19
2108.94	2751.05
2108.18	2610.29
2107.41	2756.66
2106.64	2645.31
2105.88	2785.11
2105.11	2771.61
2104.34	2718.99
2103.58	2653.34
2102.81	2692.02
2102.04	2874.05
2101.28	2831.22
2100.51	2752.58
2099.74	2732.58
2098.97	2820.05
2098.21	2894.47
2097.44	2711.7
2096.67	2805.64
2095.9	2840.97
2095.13	2752.66
2094.36	2687.14
2093.6	2823.31
2092.83	2913.9
2092.06	2825.63
2091.29	2867.42
2090.52	2766.18
2089.75	2846.98
2088.98	2892
2088.21	2846.04
2087.44	2920.28
2086.67	2893.82
2085.9	2929.06
2085.13	2886.37
2084.36	2872.91
2083.59	2775.06
2082.82	2771.36
2082.05	2952.6
2081.28	2838.57
2080.51	2838.1
2079.74	2996.54
2078.97	2973.35
2078.2	2878.84
2077.43	2865.4
2076.65	2932.98
2075.88	2874.17
2075.11	2876.94
2074.34	2882.94
2073.57	2911.61
2072.8	2975.89
2072.02	2849.13
2071.25	2829.24
2070.48	2880.56
2069.71	2928.62
2068.93	2937.85
2068.16	2921.18
2067.39	2927.17
2066.61	2968.73
2065.84	3023.2
2065.07	3042.1
2064.29	2999.58
2063.52	2992.62
2062.75	2840.26
2061.97	3053.01
2061.2	2942.68
2060.43	2990.64
2059.65	3015.98
2058.88	3002.56
2058.1	2924.59
2057.33	2949.93
2056.55	2975.26
2055.78	2984.45
2055	2987.18
2054.23	3160.85
2053.45	3066.81
2052.68	2969.57
2051.9	2969.08
2051.13	3052.39
2050.35	3032.55
2049.57	3057.83
2048.8	3121.75
2048.02	3108.35
2047.25	3078.85
2046.47	3039.7
2045.69	3174.42
2044.92	3096.64
2044.14	3009.23
2043.36	3163.19
2042.59	3069.36
2041.81	3104.24
2041.03	3052.26
2040.25	3193.25
2039.48	3260.24
2038.7	3092.54
2037.92	3088.81
2037.14	3014.39
2036.37	3254.87
2035.59	3125.83
2034.81	3195.97
2034.03	3166.54
2033.25	3230.23
2032.47	3194.38
2031.69	3229.16
2030.92	3167.65
2030.14	3215.26
2029.36	3214.72
2028.58	3291.18
2027.8	3239.32
2027.02	3174.64
2026.24	3276.72
2025.46	3157.56
2024.68	3259.6
2023.9	3204.58
2023.12	3261.73
2022.34	3302.83
2021.56	3311.89
2020.78	3260.1
2020	3246.75
2019.21	3182.19
2018.43	3242.48
2017.65	3376.35
2016.87	3219
2016.09	3269.66
2015.31	3384.27
2014.53	3294.16
2013.74	3290.41
2012.96	3267.48
2012.18	3266.94
2011.4	3186.5
2010.62	3336.16
2009.83	3281.29
2009.05	3226.44
2008.27	3318.53
2007.49	3260.49
2006.7	3381.28
2005.92	3336.03
2005.14	3389.74
2004.35	3437.04
2003.57	3296.08
2002.79	3356.14
2002	3320.5
2001.22	3422
2000.43	3322.58
1999.65	3353.91
1998.87	3429.86
1998.08	3346.42
1997.3	3425.53
1996.51	3310.27
1995.73	3344.76
1994.94	3414.27
1994.16	3413.7
1993.37	3425.87
1992.59	3431.67
1991.8	3434.28
1991.02	3487.81
1990.23	3407.68
1989.44	3442.11
1988.66	3501.97
1987.87	3383.72
1987.09	3456.29
1986.3	3490.69
1985.51	3397.93
1984.73	3403.72
1983.94	3368.2
1983.15	3466.12
1982.37	3564.02
1981.58	3528.49
1980.79	3534.25
1980	3609.86
1979.22	3526.73
1978.43	3488.05
1977.64	3417.66
1976.85	3480.55
1976.06	3502.17
1975.28	3552.34
1974.49	3523.21
1973.7	3563.84
1972.91	3604.46
1972.12	3626.04
1971.33	3615.93
1970.54	3542.45
1969.76	3602.06
1968.97	3443.08
1968.18	3588.19
1967.39	3568.59
1966.6	3621.82
1965.81	3567.4
1965.02	3601.62
1964.23	3588.36
1963.44	3492.85
1962.65	3682.07
1961.86	3526.48
1961.07	3658.7
1960.28	3563.24
1959.48	3496.26
1958.69	3802.26
1957.9	3615.18
1957.11	3674.61
1956.32	3683.48
1955.53	3780.78
1954.74	3748.57
1953.94	3593.22
1953.15	3561.05
1952.36	3680.41
1951.57	3733.44
1950.78	3726.51
1949.98	3678.56
1949.19	3712.65
1948.4	3853.95
1947.61	3758.71
1946.81	3701.33
1946.02	3823.65
1945.23	3747.37
1944.43	3800.32
1943.64	3799.68
1942.85	3754.94
1942.05	3820.46
1941.26	3684.41
1940.46	3800.29
1939.67	3916.13
1938.88	3824.2
1938.08	3716.57
1937.29	3719.09
1936.49	3900.94
1935.7	3783.9
1934.9	3861.89
1934.11	3851.82
1933.31	3750.57
1932.52	3878.82
1931.72	3796.46
1930.93	3965.51
1930.13	3883.16
1929.33	3854.24
1928.54	3715.41
1927.74	4003.68
1926.95	3792.65
1926.15	3804.58
1925.35	3894.96
1924.56	3797.03
1923.76	3909.34
1922.96	3918.1
1922.17	3879.81
1921.37	3894.84
1920.57	3960.03
1919.77	3818.3
1918.98	3833.33
1918.18	3870.3
1917.38	3894.72
1916.58	4025.64
1915.78	3940.4
1914.99	3902.16
1914.19	4079.99
1913.39	3929.03
1912.59	3890.81
1911.79	3937.1
1910.99	3936.44
1910.19	3979.59
1909.39	3985.18
1908.59	4075.21
1907.8	3990.1
1907	4011.31
1906.2	4057.53
1905.4	3991.22
1904.6	4103.05
1903.8	4096.11
1903	4004.83
1902.2	4022.9
1901.39	4075.32
1900.59	4112.1
1899.79	4136.39
1898.99	3967.15
1898.19	3982.09
1897.39	4043.82
1896.59	4155.45
1895.79	4054.94
1894.99	4166.54
1894.18	4206.37
1893.38	4043.55
1892.58	4208.08
1891.78	4169.98
1890.98	4066.45
1890.17	4022.15
1889.37	4199.03
1888.57	4014.57
1887.76	4135.34
1886.96	4010.11
1886.16	4214.89
1885.36	4049.23
1884.55	4029.88
1883.75	4110.1
1882.94	4196.51
1882.14	4180.26
1881.34	4129.8
1880.53	4122.89
1879.73	4209.24
1878.92	4109.07
1878.12	4145.68
1877.32	4082.84
1876.51	4088.36
1875.71	4134.27
1874.9	4195.69
1874.1	4151.51
1873.29	4365.03
1872.49	4128.39
1871.68	4146.32
1870.87	4310.08
1870.07	4265.92
1869.26	4113.21
1868.46	4174.55
1867.65	4170.75
1866.84	4073.93
1866.04	4218.95
1865.23	4112.86
1864.42	4301.2
1863.62	4284.98
1862.81	4460.84
1862	4212.31
1861.2	4254.95
1860.39	4275.91
1859.58	4315.44
1858.77	4277.57
1857.96	4313.99
1857.16	4279.23
1856.35	4423.91
1855.54	4228.3
1854.73	4379.13
1853.92	4390.76
1853.12	4390.02
1852.31	4392.37
1851.5	4323.64
1850.69	4455.79
1849.88	4393.25
1849.07	4420.31
1848.26	4404.12
1847.45	4320.01
1846.64	4362.51
1845.83	4408.07
1845.02	4333.26
1844.21	4502.25
1843.4	4359.57
1842.59	4497.65
1841.78	4481.48
1840.97	4452.97
1840.16	4495.38
1839.35	4386.73
1838.54	4345.92
1837.72	4582.48
1836.91	4393.76
1836.1	4528.57
1835.29	4552.45
1834.48	4520.89
1833.67	4427.75
1832.85	4574.78
1832.04	4530.91
1831.23	4419.36
1830.42	4523.23
1829.6	4580.93
1828.79	4518.64
1827.98	4564.01
1827.17	4732.36
1826.35	4648.55
1825.54	4524.81
1824.73	4508.68
1823.91	4431.1
1823.1	4620.84
1822.29	4749.08
1821.47	4508.72
1820.66	4532.52
1819.84	4700.63
1819.03	4724.39
1818.21	4524.09
1817.4	4682.91
1816.58	4568.59
1815.77	4644.51
1814.95	4594.66
1814.14	4596.95
1813.32	4706.55
1812.51	4610.73
1811.69	4711.1
1810.88	4670.46
1810.06	4605.33
1809.25	4665.82
1808.43	4661.97
1807.61	4713.25
1806.8	4718.58
1805.98	4726.97
1805.16	4664.95
1804.35	4642.74
1803.53	4608.3
1802.71	4812.5
1801.89	4664.86
1801.08	4758.88
1800.26	4623.53
1799.44	4800.08
1798.62	4683.11
1797.81	4605.91
1796.99	4764.04
1796.17	4900.72
1795.35	4683
1794.53	4947.93
1793.71	4739.44
1792.9	4836.35
1792.08	4753.1
1791.26	4773.67
1790.44	4754.55
1789.62	4939.87
1788.8	4957.34
1787.98	4776.54
1787.16	4827.58
1786.34	4854.21
1785.52	4841.19
1784.7	4855.61
1783.88	4812.13
1783.06	4896.63
1782.24	4901.9
1781.42	4992.45
1780.6	4912.42
1779.78	4887.23
1778.95	4755.49
1778.13	4992.12
1777.31	4912.14
1776.49	4832.2
1775.67	4916.57
1774.85	4791.02
1774.02	4893.61
1773.2	4944.48
1772.38	4885.88
1771.56	5006.64
1770.74	4865.99
1769.91	4910.75
1769.09	4946.38
1768.27	4893.9
1767.44	5017.6
1766.62	5044.08
1765.8	5076.62
1764.97	5063.62
1764.15	5068.83
1763.33	5061.91
1762.5	5097.46
1761.68	5178.51
1760.85	5110.9
1760.03	5207.08
1759.21	5036.4
1758.38	5108.3
1757.56	5055.91
1756.73	5033.84
1755.91	5151.16
1755.08	5092.73
1754.26	5228.17
1753.43	5293.91
1752.6	5256.68
1751.78	5213.4
1750.95	5194.36
1750.13	5323.62
1749.3	5262.2
1748.47	5409.55
1747.65	5399.56
1746.82	5489.38
1745.99	5427.97
1745.17	5687.06
1744.34	5737.49
1743.51	5512.86
1742.69	5614.67
1741.86	5616.74
1741.03	5673.18
1740.2	5750.75
1739.38	5930.96
1738.55	6059.79
1737.72	6070.84
1736.89	6296.18
1736.06	6177.42
1735.23	6435.85
1734.4	6338.23
1733.58	6388.43
1732.75	6517.02
1731.92	6699.84
1731.09	6611.28
1730.26	6772.92
1729.43	6991.77
1728.6	6942.38
1727.77	7103.88
1726.94	7235.21
1726.11	7435.76
1725.28	7371.27
1724.45	7379.05
1723.62	7389.83
1722.79	7373.53
1721.96	7041.28
1721.13	6943.81
1720.3	6846.37
1719.46	6682.8
1718.63	6732.78
1717.8	6476.08
1716.97	6487.01
1716.14	6530.99
1715.31	6235.39
1714.47	6108.14
1713.64	6251.29
1712.81	6039.99
1711.98	5906.83
1711.14	5935.85
1710.31	5811.76
1709.48	5744.74
1708.65	5671.74
1707.81	5616.77
1706.98	5540.82
1706.15	5635.86
1705.31	5529.94
1704.48	5484.02
1703.64	5674.95
1702.81	5506.14
1701.98	5331.38
1701.14	5534.23
1700.31	5506.32
1699.47	5427.51
1698.64	5348.72
1697.8	5416.68
1696.97	5412.76
1696.13	5498.65
1695.3	5509.68
1694.46	5457.88
1693.63	5468.91
1692.79	5464.99
1691.95	5529.86
1691.12	5507.98
1690.28	5575.81
1689.45	5580.84
1688.61	5445.4
1687.77	5653.64
1686.94	5640.73
1686.1	5550.15
1685.26	5378.97
1684.42	5560.21
1683.59	5580.16
1682.75	5567.27
1681.91	5542.44
1681.07	5639.97
1680.24	5642
1679.4	5417.3
1678.56	5505.86
1677.72	5582.45
1676.88	5662.01
1676.04	5601.42
1675.21	5490.18
1674.37	5584.61
1673.53	5619.41
1672.69	5538.02
1671.85	5635.37
1671.01	5646.32
1670.17	5505.41
1669.33	5715.84
1668.49	5729.75
1667.65	5517.48
1666.81	5706.97
1665.97	5673.27
1665.13	5782.35
1664.29	5656.46
1663.45	5542.51
1662.61	5666.42
1661.77	5665.46
1660.92	5729.87
1660.08	5571.41
1659.24	5730.89
1658.4	5646.74
1657.56	5616.08
1656.72	5674.5
1655.87	5637.91
1655.03	5737.87
1654.19	5594.43
1653.35	5715.14
1652.5	5791.3
1651.66	5772.52
1650.82	5673.66
1649.98	5737.93
1649.13	5683.58
1648.29	5854.54
1647.45	5743.88
1646.6	5701.41
1645.76	5922.65
1644.91	5711.31
1644.07	5734.03
1643.23	5673.82
1642.38	5770.56
1641.54	5923.51
1640.69	5807.07
1639.85	5794.24
1639	5793.25
1638.16	5842.55
1637.31	5767.6
1636.47	5843.51
1635.62	5848.42
1634.78	5723.26
1633.93	5890.76
1633.08	5874.97
1632.24	5915.33
1631.39	5846.37
1630.55	5963.52
1629.7	6086.54
1628.85	5993.96
1628.01	6125.79
1627.16	5991.91
1626.31	6173.86
1625.46	6193.46
1624.62	6307.45
1623.77	6232.63
1622.92	6517.63
1622.07	6374.98
1621.23	6574.37
1620.38	6982.96
1619.53	7123.23
1618.68	7272.29
1617.83	7736.53
1616.98	8218.29
1616.13	8832.41
1615.29	9349.15
1614.44	9806.83
1613.59	10261.4
1612.74	10406.8
1611.89	10090.2
1611.04	10003.1
1610.19	9392.5
1609.34	9129.13
1608.49	8642.37
1607.64	8335.12
1606.79	7998.58
1605.94	7588.68
1605.09	7481.59
1604.24	7351.03
1603.38	7053.08
1602.53	6790.47
1601.68	6739.39
1600.83	6691.26
1599.98	6640.21
1599.13	6474.7
1598.27	6725.96
1597.42	6422.61
1596.57	6257.23
1595.72	6238.55
1594.87	6416.37
1594.01	6215.89
1593.16	6159.13
1592.31	6243.07
1591.45	6133.57
1590.6	6170.61
1589.75	6116.82
1588.89	6150.91
1588.04	6331.43
1587.19	6119.52
1586.33	6320.47
1585.48	6137.91
1584.62	6098.81
1583.77	6214.81
1582.92	6257.62
1582.06	6113.22
1581.21	6249.62
1580.35	6292.41
1579.5	6177.32
1578.64	6269.79
1577.78	6224.88
1576.93	6293.93
1576.07	6298.7
1575.22	6212.91
1574.36	6273.17
1573.51	6102.73
1572.65	6265.17
1571.79	6281.61
1570.94	6341.82
1570.08	6364.07
1569.22	6284.21
1568.37	6370.64
1567.51	6060.4
1566.65	6280.97
1565.79	6116.62
1564.94	6389.58
1564.08	6309.79
1563.22	6337.84
1562.36	6106.59
1561.5	6245.36
1560.65	6218.08
1559.79	6164.59
1558.93	6245.05
1558.07	6261.44
1557.21	6266.19
1556.35	6346.59
1555.49	6217.48
1554.63	6265.86
1553.77	6133.91
1552.91	6185.19
1552.05	6280.07
1551.19	6337.13
1550.33	6187.81
1549.47	6241.96
1548.61	6397.78
1547.75	6123.61
1546.89	6096.42
1546.03	6255.09
1545.17	6254.01
1544.31	6226.81
1543.45	6292.49
1542.58	6256.58
1541.72	6403.48
1540.86	6335.66
1540	6305.56
1539.14	6246.47
1538.28	6390.37
1537.41	6345.79
1536.55	6367.88
1535.69	6381.27
1534.82	6229.51
1533.96	6379.07
1533.1	6441.7
1532.24	6333.44
1531.37	6306.28
1530.51	6363.1
1529.64	6448.83
1528.78	6439.04
1527.92	6458.18
1527.05	6543.86
1526.19	6418.36
1525.32	6501.12
1524.46	6456.62
1523.59	6336.98
1522.73	6367.68
1521.86	6271.21
1521	6463.73
1520.13	6445.28
1519.27	6412.39
1518.4	6515.25
1517.54	6459.27
1516.67	6492.8
1515.8	6425.29
1514.94	6412.63
1514.07	6492.32
1513.21	6479.66
1512.34	6417.97
1511.47	6477.42
1510.6	6363.85
1509.74	6351.22
1508.87	6615.31
1508	6478.72
1507.14	6425.73
1506.27	6464.95
1505.4	6411.99
1504.53	6497.28
1503.66	6291.71
1502.8	6400.03
1501.93	6522.7
1501.06	6406.45
1500.19	6402.47
1499.32	6479.04
1498.45	6498.06
1497.58	6519.94
1496.71	6446.93
1495.84	6454.44
1494.97	6620.05
1494.1	6722.37
1493.23	6589.02
1492.36	6426.99
1491.49	6512.06
1490.62	6689
1489.75	6561.49
1488.88	6393.84
1488.01	6542
1487.14	6483.47
1486.27	6617.22
1485.4	6452.54
1484.52	6414.13
1483.65	6573.63
1482.78	6672.86
1481.91	6502.55
1481.04	6593.15
1480.17	6554.75
1479.29	6593.74
1478.42	6767.37
1477.55	6708.9
1476.67	6744.97
1475.8	6801.08
1474.93	6676.79
1474.06	6652.73
1473.18	6628.68
1472.31	6730.55
1471.43	6820.94
1470.56	6939.91
1469.69	6801.42
1468.81	6711.59
1467.94	6741.88
1467.06	6895.08
1466.19	6805.28
1465.31	6752.67
1464.44	6811.5
1463.56	6870.31
1462.69	6894.82
1461.81	6810.81
1460.94	6755.38
1460.06	6777.05
1459.19	6795.86
1458.31	6851.75
1457.43	6784.94
1456.56	6712.45
1455.68	6919.5
1454.8	6995.29
1453.93	6934.2
1453.05	6984.31
1452.17	6760.78
1451.3	6865.05
1450.42	6892.35
1449.54	6865.52
1448.66	6844.39
1447.78	6891.62
1446.91	6893.27
1446.03	6957.55
1445.15	6796.95
1444.27	6889.68
1443.39	6888.49
1442.51	6688.15
1441.64	6766.63
1440.76	6799.58
1439.88	7005.97
1439	6771.64
1438.12	6841.52
1437.24	6897.17
1436.36	6807.89
1435.48	6775.46
1434.6	6842.45
1433.72	6679.39
1432.84	6967.85
1431.96	6782.11
1431.08	6829.18
1430.2	6842.19
1429.31	6806.95
1428.43	6760.38
1427.55	6960.59
1426.67	6996.25
1425.79	6856.09
1424.91	6894.59
1424.02	7012.44
1423.14	6736.33
1422.26	6933.5
1421.38	7042.78
1420.49	6891.44
1419.61	6952.54
1418.73	7027.78
1417.85	6975.6
1416.96	7073.46
1416.08	7035.44
1415.2	7051.19
1414.31	6925.49
1413.43	7127.94
1412.54	7106.9
1411.66	7102.84
1410.78	7033.75
1409.89	7049.49
1409.01	7150
1408.12	7148.76
1407.24	7065.58
1406.35	6858.16
1405.47	7085.72
1404.58	7022.37
1403.7	6956.21
1402.81	6892.9
1401.92	6832.44
1401.04	6966.69
1400.15	7123.46
1399.27	6840.15
1398.38	6994.07
1397.49	6756
1396.61	6864.77
1395.72	6894.58
1394.83	6873.65
1393.94	7058.43
1393.06	7006.49
1392.17	7002.45
1391.28	6916.74
1390.39	6836.69
1389.51	6981.9
1388.62	7076.38
1387.73	6835.93
1386.84	6950.11
1385.95	6819.49
1385.06	7071.45
1384.17	6968.97
1383.29	6723.13
1382.4	6904.7
1381.51	6973.76
1380.62	7000.65
1379.73	6996.62
1378.84	6953.26
1377.95	6963.28
1377.06	7023.85
1376.17	7140.56
1375.28	7136.51
1374.39	6857.37
1373.5	7044.21
1372.6	7000.89
1371.71	6980.03
1370.82	7116.26
1369.93	6927.12
1369.04	7054.89
1368.15	6975.16
1367.26	6945.91
1366.36	6947.5
1365.47	6963.1
1364.58	7029.13
1363.69	6966.27
1362.79	7186.3
1361.9	7143.05
1361.01	7203.39
1360.11	7104.16
1359.22	7125.31
1358.33	6911.41
1357.43	6971.75
1356.54	7037.66
1355.65	7039.23
1354.75	6931.75
1353.86	7101.07
1352.96	7032.75
1352.07	7037.11
1351.17	7116.91
1350.28	7003.92
1349.39	7022.25
1348.49	7289.12
1347.59	7075.64
1346.7	7135.82
1345.8	6916.85
1344.91	7097.04
1344.01	7199.05
1343.12	7139.2
1342.22	6992.9
1341.32	7119.97
1340.43	7199.59
1339.53	7039.42
1338.63	7185.92
1337.74	6961.71
1336.84	7127.68
1335.94	7076.28
1335.04	7228.24
1334.15	7140.65
1333.25	7064.22
1332.35	7182.69
1331.45	6997.72
1330.55	7141.21
1329.66	7178.92
1328.76	7308.42
1327.86	7056.8
1326.96	7244.68
1326.06	7318.48
1325.16	6914.09
1324.26	7221.41
1323.36	7250.72
1322.46	7216.11
1321.56	7225.95
1320.66	7235.8
1319.76	7167.88
1318.86	7241.59
1317.96	7295.85
1317.06	7363.96
1316.16	7371
1315.26	7577.81
1314.36	7443.32
1313.46	7297.78
1312.55	7640.39
1311.65	7492.09
1310.75	7568.4
1309.85	7528.27
1308.95	7599
1308.04	7536.71
1307.14	7732.09
1306.24	7755.66
1305.34	7748.76
1304.43	7669.87
1303.53	7604.85
1302.63	7636.74
1301.72	7665.84
1300.82	7614.69
1299.92	7807.01
1299.01	7764.15
1298.11	7901.06
1297.21	7753.13
1296.3	7964.64
1295.4	8217.53
1294.49	8343.21
1293.59	8372.14
1292.68	8456.31
1291.78	8457.59
1290.87	8323.55
1289.97	8534.69
1289.06	8527.67
1288.16	8341.24
1287.25	8320.46
1286.34	8399.02
1285.44	8441.68
1284.53	8238.85
1283.62	8287.04
1282.72	8269.04
1281.81	8140.78
1280.9	8365.36
1280	8193.03
1279.09	8037.29
1278.18	8090.98
1277.27	7938.07
1276.37	7989
1275.46	7957.3
1274.55	8082.54
1273.64	7695.78
1272.73	7848.53
1271.82	7695.82
1270.92	7650.46
1270.01	7640.86
1269.1	7639.51
1268.19	7566.68
1267.28	7697.31
1266.37	7583.26
1265.46	7548.95
1264.55	7544.88
1263.64	7527.07
1262.73	7492.78
1261.82	7532.66
1260.91	7512.11
1260	7348.82
1259.09	7520.45
1258.18	7296.84
1257.27	7564.44
1256.35	7318.96
1255.44	7474.01
1254.53	7253.31
1253.62	7380.9
1252.71	7223.35
1251.79	7523.56
1250.88	7368.78
1249.97	7274.33
1249.06	7410.02
1248.14	7321.07
1247.23	7415.62
1246.32	7239.09
1245.41	7319.93
1244.49	7203.69
1243.58	7481.54
1242.66	7398.15
1241.75	7342.13
1240.84	7357.25
1239.92	7293.06
1239.01	7551.51
1238.09	7282.29
1237.18	7237.27
1236.26	7263.32
1235.35	7395.92
1234.43	7282.61
1233.52	7213.05
1232.6	7225.43
1231.69	7218.7
1230.77	7304.78
1229.86	7202.51
1228.94	7304.93
1228.02	7347.29
1227.11	7223.24
1226.19	7396.52
1225.27	7313.41
1224.36	7320.3
1223.44	7248.13
1222.52	7347.69
1221.6	7278.27
1220.69	7464.98
1219.77	7109.54
1218.85	7426.93
1217.93	7259.52
1217.01	7383.47
1216.1	7248.79
1215.18	7209.41
1214.26	7289.77
1213.34	7438.11
1212.42	7464
1211.5	7315.82
1210.58	7325.41
1209.66	7354.02
1208.74	7165.16
1207.82	7487.31
1206.9	7480.55
1205.98	7297.2
1205.06	7331.23
1204.14	7270.18
1203.22	7529.57
1202.3	7373.49
1201.38	7442.76
1200.46	7343.75
1199.54	7339.73
1198.61	7381.84
1197.69	7494.46
1196.77	7306.01
1195.85	7651.79
1194.93	7655.86
1194	7432.24
1193.08	7588.11
1192.16	7570.51
1191.24	7474.35
1190.31	7538.04
1189.39	7552.95
1188.47	7673.46
1187.54	7804.75
1186.62	7594.96
1185.7	7607.14
1184.77	7600.38
1183.85	7693.72
1182.92	7624.74
1182	7515.22
1181.07	7665.3
1180.15	7588.25
1179.23	7719.35
1178.3	7615.29
1177.37	7673.39
1176.45	7620.7
1175.52	7586.94
1174.6	7785.43
1173.67	7778.65
1172.75	7731.38
1171.82	7708.42
1170.89	7518.15
1169.97	7538.41
1169.04	7507.4
1168.11	7657.11
1167.19	7496.65
1166.26	7554.63
1165.33	7545.21
1164.4	7570.82
1163.48	7564.09
1162.55	7527.72
1161.62	7424.03
1160.69	7414.63
1159.76	7545.26
1158.83	7455.08
1157.91	7585.66
1156.98	7428.21
1156.05	7459.18
1155.12	7587
1154.19	7593.73
1153.26	7509.01
1152.33	7644.81
1151.4	7535.91
1150.47	7435.12
1149.54	7447.24
1148.61	7652.82
1147.68	7509.07
1146.75	7580.27
1145.82	7425.84
1144.89	7537.3
1143.96	7592.34
1143.02	7585.62
1142.09	7589.64
1141.16	7558.78
1140.23	7562.8
1139.3	7743.86
1138.36	7428.71
1137.43	7518.55
1136.5	7535.98
1135.57	7489.08
1134.63	7637.82
1133.7	7510.53
1132.77	7849.43
1131.83	7612.32
1130.9	7726.13
1129.97	7639.07
1129.03	7774.25
1128.1	7802.31
1127.17	7715.28
1126.23	7826.29
1125.3	7827.57
1124.36	7828.86
1123.43	7862.23
1122.49	8007.89
1121.56	7907.55
1120.62	7972.97
1119.69	7910.08
1118.75	8087.69
1117.81	8032.83
1116.88	7932.57
1115.94	7968.55
1115.01	8036.55
1114.07	7778.85
1113.13	8081.73
1112.2	8018.92
1111.26	8214.92
1110.32	7989.39
1109.38	7891.95
1108.45	7967.88
1107.51	7849.15
1106.57	8026.35
1105.63	8150.18
1104.69	8119.42
1103.76	7918.16
1102.82	8113.87
1101.88	8096.44
1100.94	7967.18
1100	8077.58
1099.06	8118.73
1098.12	8194.47
1097.18	8163.74
1096.24	8356.5
1095.3	8384.27
1094.36	8276.39
1093.42	8349.37
1092.48	8414.35
1091.54	8285.26
1090.6	8501.71
1089.66	8181.34
1088.72	8163.94
1087.78	8167.79
1086.84	8745.28
1085.9	8836.66
1084.95	8898.8
1084.01	8637.09
1083.07	8370.17
1082.13	8172.32
1081.19	7974.55
1080.24	7925.39
1079.3	8051.27
1078.36	7856.27
1077.41	8024.53
1076.47	7739.5
1075.53	7804.37
1074.58	7855.97
1073.64	7756.55
1072.7	7964.4
1071.75	7751.13
1070.81	7702.09
1069.86	7674.24
1068.92	7757.57
1067.98	7877.91
1067.03	7633.09
1066.09	7951.81
1065.14	7783.77
1064.19	7671.31
1063.25	7918.47
1062.3	7734.66
1061.36	7828.42
1060.41	7745.11
1059.46	7783.35
1058.52	7855.92
1057.57	7717.19
1056.63	7721.09
1055.68	7769.87
1054.73	7779.04
1053.78	7680
1052.84	7699.74
1051.89	7698.36
1050.94	7736.55
1049.99	8022.63
1049.05	7791.79
1048.1	7708.67
1047.15	7789.01
1046.2	7914.11
1045.25	7815.21
1044.3	7866.5
1043.35	7872.99
1042.4	7832.08
1041.45	7791.18
1040.5	7921.42
1039.55	7935.79
1038.6	7913.32
1037.65	7811.92
1036.7	7823.67
1035.75	7872.25
1034.8	7902.4
1033.85	7872.06
1032.9	7889.05
1031.95	7779.88
1031	7746.95
1030.05	7892.7
1029.1	8098.81
1028.14	7987.05
1027.19	7867.45
1026.24	7881.79
1025.29	7754.38
1024.33	8073.19
1023.38	8050.75
1022.43	7933.87
1021.48	7966.55
1020.52	7959.87
1019.57	7911.25
1018.62	7833.8
1017.66	7835.02
1016.71	8014.45
1015.75	8033.97
1014.8	7959.18
1013.85	8010.14
1012.89	8100.36
1011.94	7939.19
1010.98	8021.54
1010.03	7986.07
1009.07	8057.92
1008.12	8038.16
1007.16	7963.46
1006.2	8343.92
1005.25	8177.66
1004.29	8142.21
1003.34	8033.56
1002.38	8301.34
1001.42	8263.26
1000.47	8308.81
999.508	8380.47
998.551	8167.4
997.594	8192.05
996.636	8229.74
995.679	8361.4
994.721	8200.68
993.763	8115.71
992.805	8315.15
991.846	8144.1
990.888	8022.66
989.929	8016
988.97	8228.35
988.011	8310.29
987.052	8118.54
986.093	8197.86
985.133	8003.59
984.173	8069.88
983.213	8099.68
982.253	8296.13
981.293	8088.96
980.333	8118.75
979.372	8070.44
978.411	8082
977.45	8142.99
976.489	8211.75
975.528	7893
974.566	7870.77
973.605	8064.34
972.643	8138.27
971.681	8266.74
970.719	8189.9
969.756	8048.15
968.794	8054.49
967.831	7998.51
966.868	8194.4
965.905	8177.35
964.942	7885.18
963.979	8068.01
963.015	8082.12
962.052	8293.39
961.088	8118.12
960.124	8155.55
959.159	8081.49
958.195	8100.77
957.23	8044.89
956.266	8095.27
955.301	7920.22
954.336	8164.88
953.37	8072.76
952.405	7869.33
951.439	8131.99
950.473	7967.45
949.507	8074.71
948.541	8065.49
947.575	8076.98
946.608	8207.44
945.642	8299.06
944.675	8077.78
943.708	8179.74
942.741	8170.51
941.773	8295.67
940.806	8177.9
939.838	8096.34
938.87	8110.38
937.902	8178.64
936.934	8164.26
935.965	8049.2
934.997	8388.44
934.028	8149.52
933.059	8106.77
932.09	8285.88
931.121	8235.38
930.151	8270
929.182	8307.18
928.212	8215.46
927.242	8322.22
926.272	8109.42
925.301	8435.16
924.331	8309.99
923.36	8190.02
922.389	8299.26
921.418	8320.94
920.447	8219.05
919.475	8269.03
918.504	8239.24
917.532	8502.73
916.56	8231.12
915.588	8291.35
914.616	8325.85
913.643	8249.79
912.671	8340.84
911.698	8244.24
910.725	8283.86
909.752	8423.66
908.779	8442.69
907.805	8323.03
906.831	8244.5
905.858	8391.9
904.883	8449.42
903.909	8355.51
902.935	8489.98
901.96	8290.92
900.986	8397.14
900.011	8416.14
899.036	8527.43
898.06	8438.73
897.085	8652.49
896.109	8399.8
895.133	8498.2
894.157	8501.79
893.181	8408.05
892.205	8585.77
891.229	8568.86
890.252	8487.96
889.275	8517.13
888.298	8415.8
887.321	8519.17
886.343	8604.59
885.366	8649.07
884.388	8532.44
883.41	8658.72
882.432	8657.15
881.454	8517.58
880.475	8669.35
879.497	8815.94
878.518	8753.05
877.539	8815.3
876.56	8543.07
875.58	8658.94
874.601	8751.81
873.621	8625.19
872.641	8837.94
871.661	8841.44
870.681	8885.74
869.701	8876.48
868.72	8780.54
867.739	8705.03
866.758	9195.33
865.777	8961.78
864.796	9107.92
863.815	9266.74
862.833	9448.43
861.851	9734.45
860.869	9969.44
859.887	10150.9
858.905	10268.7
857.922	10190.5
856.939	10305.6
855.956	9779.82
854.973	10006.9
853.99	9837.29
853.007	9777.03
852.023	9516.01
851.039	9277.95
850.055	9324.54
849.071	9129.79
848.087	9242.42
847.102	8984.27
846.118	9137.51
845.133	9184.08
844.148	8976.84
843.163	9023.42
842.177	8879.71
841.192	8802
840.206	8896.77
839.22	8935.73
838.234	8845.37
837.248	8909.67
836.261	8961.27
835.274	9053.39
834.288	8773.07
833.301	8875.33
832.313	8904.11
831.326	8892.36
830.339	8954.03
829.351	8967.59
828.363	8993.8
827.375	8825.17
826.387	9010.77
825.398	8905.43
824.409	8926.57
823.421	8871.85
822.432	9019.38
821.443	9055.65
820.453	9046.42
819.464	9042.25
818.474	8982.51
817.484	9092
816.494	8908.54
815.504	9020.52
814.513	8837.14
813.523	8966.77
812.532	8922.24
811.541	9019
810.55	8835.75
809.559	9111.55
808.567	9099.81
807.575	8911.6
806.583	9046.08
805.591	9092.32
804.599	8962.16
803.607	8942.9
802.614	8926.16
801.621	9012.67
800.628	9149.5
799.635	9057.21
798.642	9055.56
797.649	9141.99
796.655	9127.74
795.661	9352.47
794.667	9197.35
793.673	9039.77
792.678	9241.76
791.684	9323.03
790.689	9193.16
789.694	9261.84
788.699	9069.22
787.704	9152.96
786.708	9246.73
785.713	9096.9
784.717	9243.35
783.721	8840.07
782.724	9119.53
781.728	9210.7
780.731	9066.03
779.735	9091.96
778.738	9170.55
777.741	9091.15
776.743	9107.04
775.746	9050.24
774.748	9158.85
773.75	9187.24
772.752	9112.92
771.754	8930.93
770.756	9209.75
769.757	9163.01
768.758	9291.49
767.759	9154.65
766.76	9115.45
765.761	9221.36
764.761	8967.05
763.762	9222.99
762.762	9256.31
761.762	9159.63
760.762	8997.99
759.761	9186.27
758.761	9079.65
757.76	9372.76
756.759	9166.25
755.758	9281.94
754.756	9325.18
753.755	9141.25
752.753	9159.55
751.751	9137.91
750.749	9208.59
749.747	9087.17
748.745	9105.46
747.742	9213.51
746.739	9159.47
745.736	9297.38
744.733	9141.17
743.73	9209.26
742.726	9287.3
741.723	9477.39
740.719	9176.82
739.715	9332
738.71	9355.19
737.706	9296.23
736.701	9341.81
735.697	9419.71
734.692	9355.8
733.686	9276.99
732.681	9444.38
731.675	9435.19
730.67	9388.72
729.664	9501.33
728.658	9477.22
727.651	9567.41
726.645	9662.53
725.638	9233.6
724.631	9442.97
723.624	9235.18
722.617	9414.69
721.61	9405.52
720.602	9552.67
719.595	9265.63
718.587	9343.3
717.578	9420.94
716.57	9441.53
715.562	9509.21
714.553	9512.42
713.544	9619.71
712.535	9694.75
711.526	9658.3
710.516	9621.85
709.507	9667.14
708.497	9794.1
707.487	9599.23
706.477	9775.66
705.467	9729.33
704.456	9940.3
703.445	9908.8
702.434	10020.7
701.423	10014
700.412	9942.9
699.401	9802.66
698.389	9679.77
697.377	9843.53
696.365	9723.15
695.353	9573.17
694.34	9870.21
693.328	9720.26
692.315	9646.89
691.302	9580.95
690.289	9608.8
689.276	9708.19
688.262	9708.87
687.249	9768.75
686.235	9853.25
685.221	9604.91
684.206	9551.38
683.192	9589.06
682.177	9703.1
681.162	9615.1
680.147	9660.13
679.132	9547.54
678.117	9878.17
677.101	9672.03
676.086	9798.24
675.07	9919.48
674.054	9863.53
673.037	9805.14
672.021	9798.41
671.004	9722.84
669.987	9898.07
668.97	9741.39
667.953	9840.36
666.936	9664.09
665.918	9711.45
664.9	9672.82
663.882	9729.98
662.864	9823.94
661.846	9962.07
660.827	9697.6
659.808	9835.7
658.789	9973.74
657.77	9851.7
656.751	9835.17
655.731	9779.41
654.712	9834
653.692	9766.01
652.672	9881.85
651.652	9762.41
650.631	9836.56
649.611	9940.08
648.59	9970.08
647.569	9909.48
646.548	10015.4
645.526	10003.7
644.505	9965.18
643.483	9987.81
642.461	9819.62
641.439	9878.96
640.417	9992.07
639.394	9943.78
638.371	10037.3
637.348	10050.1
636.325	10182.6
635.302	10371.3
634.279	10679.6
633.255	11012.3
632.231	11408.3
631.207	11310.9
630.183	11130.7
629.159	10747.9
628.134	10306.7
627.109	10278
626.084	10198
625.059	10149.8
624.034	10140.6
623.008	10267.9
621.983	10097.9
620.957	10144.8
619.931	10242.8
618.904	10192.2
617.878	10268.2
616.851	10229.8
615.824	10067.2
614.797	10111.6
613.77	10214.4
612.743	10207.6
611.715	10188.7
610.687	10096.8
609.659	10182.5
608.631	9964.24
607.603	10076.7
606.574	10057.8
605.546	10235.8
604.517	10122.1
603.487	10134.8
602.458	10254.4
601.429	10247.6
600.399	10313.7
599.369	10224.4
598.339	10249.2
597.309	10237.6
596.278	10184.8
595.248	10403.6
594.217	10139.8
593.186	10227.6
592.155	10138.4
591.123	10107.5
590.091	10188
589.06	10283
588.028	10271.5
586.996	10100
585.963	10107.8
584.931	10265.8
583.898	10084.7
582.865	10078
581.832	10141.5
580.798	10463.8
579.765	10200.6
578.731	10261.6
577.697	10267
576.663	10390.8
575.629	10388.9
574.594	10483.6
573.56	10440.6
572.525	10450.7
571.49	10287
570.455	10229.5
569.419	10292.8
568.384	10310.2
567.348	10079
566.312	10308.8
565.276	10092.2
564.239	10210.9
563.203	10387.5
562.166	10429
561.129	10374
560.092	10292.5
559.054	10464.1
558.017	10573
556.979	10428.9
555.941	10472.8
554.903	10502.1
553.865	10387
552.826	10274.3
551.787	10373.5
550.749	10162.2
549.709	10028
548.67	10216.2
547.631	10288.9
546.591	10161.9
545.551	9970.1
544.511	10143.7
543.471	10283.6
542.43	10039
541.39	10054
540.349	10311.5
539.308	10424.9
538.267	10535.8
537.225	10488.2
536.184	10558.3
535.142	10645.1
534.1	10535.2
533.058	10346.1
532.015	10226.7
530.973	10229.6
529.93	10014.3
528.887	9950.1
527.844	9984.2
526.801	9805.03
525.757	9949.34
524.713	9892.4
523.669	9971.99
522.625	10027.6
521.581	10088
520.537	10263.2
519.492	10280.5
518.447	10532.2
517.402	10556.5
516.357	10413.4
515.311	10411.5
514.265	10447.8
513.22	10230.7
512.174	10345.9
511.127	10035.8
510.081	9912.06
509.034	9979.49
507.987	9607.47
506.94	9550.76
505.893	9618.21
504.846	9537.66
503.798	9858.04
502.75	9658.18
501.702	9911.62
500.654	10193.6
499.606	10072.5
