3200.54	42.0979
3199.95	25.2587
3199.35	0
3198.76	25.2511
3198.16	46.2867
3197.57	21.0362
3196.98	29.4463
3196.38	42.0597
3195.79	46.2587
3195.19	25.2282
3194.6	29.4285
3194	8.40686
3193.41	25.2168
3192.81	12.6065
3192.22	12.6046
3191.62	37.808
3191.03	21.0013
3190.43	33.597
3189.84	29.3929
3189.24	29.3884
3188.65	16.7909
3188.05	50.3649
3187.45	33.5716
3186.86	33.5665
3186.26	0
3185.67	33.5563
3185.07	33.5512
3184.47	29.3529
3183.88	33.5411
3183.28	25.152
3182.69	33.5309
3182.09	-16.7629
3181.49	0
3180.9	37.7052
3180.3	41.8883
3179.7	8.37639
3179.1	16.7502
3178.51	33.4954
3177.91	4.18629
3177.31	41.8566
3176.72	25.1102
3176.12	16.7376
3175.52	16.735
3174.92	41.8313
3174.33	37.6424
3173.73	25.0912
3173.13	8.36245
3172.53	33.4447
3171.93	20.8998
3171.34	12.538
3170.74	29.2509
3170.14	50.1367
3169.54	33.4194
3168.94	25.0608
3168.34	37.5855
3167.74	20.8776
3167.15	41.749
3166.55	20.8713
3165.95	12.5209
3165.35	29.211
3164.75	25.0342
3164.15	25.0304
3163.55	25.0266
3162.95	29.1933
3162.35	25.019
3161.75	33.3536
3161.15	25.0114
3160.55	41.6794
3159.95	37.5058
3159.35	29.1667
3158.75	29.1623
3158.15	24.9925
3157.55	24.9887
3156.95	24.9849
3156.35	29.1446
3155.75	33.3031
3155.15	45.7848
3154.55	79.0709
3153.95	29.127
3153.35	33.2829
3152.75	24.9584
3152.15	24.9546
3151.54	16.6339
3150.94	16.6314
3150.34	33.2577
3149.74	16.6263
3149.14	20.7797
3148.54	29.0872
3147.94	8.30937
3147.33	24.9243
3146.73	33.2274
3146.13	29.0696
3145.53	29.0652
3144.93	29.0607
3144.32	16.6036
3143.72	33.2022
3143.12	4.14964
3142.52	29.0431
3141.91	24.8903
3141.31	24.8865
3140.71	8.29425
3140.1	24.879
3139.5	33.1669
3138.9	49.7428
3138.29	45.5907
3137.69	20.7199
3137.09	20.7167
3136.48	24.8563
3135.88	-4.14209
3135.28	57.9804
3134.67	33.1266
3134.07	24.8412
3133.47	16.5583
3132.86	16.5558
3132.26	33.1065
3131.65	24.8261
3131.05	4.13706
3130.45	16.5457
3129.84	24.8148
3129.24	20.6759
3128.63	41.3454
3128.03	8.26783
3127.42	4.13329
3126.82	20.6633
3126.21	24.7922
3125.61	33.0512
3125	41.3077
3124.4	37.1713
3123.79	0
3123.19	33.0311
3122.58	24.7696
3121.97	41.2763
3121.37	28.889
3120.76	41.2638
3120.16	45.3833
3119.55	41.2512
3118.94	16.498
3118.34	37.1148
3117.73	0
3117.13	16.4905
3116.52	28.8539
3115.91	16.4854
3115.31	32.9659
3114.7	20.6005
3114.09	24.7169
3113.48	37.0697
3112.88	20.5911
3112.27	57.6464
3111.66	32.9358
3111.06	45.2798
3110.45	28.81
3109.84	24.6906
3109.23	24.6868
3108.63	41.1384
3108.02	45.2454
3107.41	41.1259
3106.8	20.5598
3106.19	24.668
3105.59	28.775
3104.98	36.9908
3104.37	24.6568
3103.76	28.7618
3103.15	20.541
3102.54	41.0758
3101.93	32.8557
3101.33	36.957
3100.72	32.8456
3100.11	28.7356
3099.5	32.8356
3098.89	32.8306
3098.28	32.8256
3097.67	49.2309
3097.06	41.0195
3096.45	32.8106
3095.84	53.3092
3095.23	41.0008
3094.62	28.6962
3094.01	32.7906
3093.4	45.0803
3092.79	32.7806
3092.18	36.8726
3091.57	40.9633
3090.96	20.4785
3090.35	45.0459
3089.74	36.8501
3089.13	49.126
3088.52	45.0253
3087.91	77.7591
3087.3	49.1035
3086.69	40.9134
3086.08	44.9979
3085.46	49.0811
3084.85	53.1631
3084.24	36.7996
3083.63	40.8822
3083.02	61.3139
3082.41	36.7828
3081.79	49.0362
3081.18	53.1144
3080.57	44.9361
3079.96	57.1827
3079.35	20.4193
3078.73	40.8323
3078.12	65.3218
3077.51	36.7379
3076.9	61.2205
3076.28	44.8882
3075.67	44.8813
3075.06	73.4309
3074.45	53.0253
3073.83	57.0955
3073.22	40.7763
3072.61	28.539
3071.99	65.2221
3071.38	61.1364
3070.77	65.2022
3070.15	52.9687
3069.54	48.8867
3068.93	61.0991
3068.31	57.0171
3067.7	32.5762
3067.08	44.7855
3066.47	40.7078
3065.86	56.9823
3065.24	52.904
3064.63	16.2757
3064.01	36.6147
3063.4	44.7444
3062.78	32.5364
3062.17	52.8636
3061.55	40.6581
3060.94	28.4563
3060.32	40.6457
3059.71	44.7034
3059.09	40.6333
3058.48	44.6898
3057.86	40.6209
3057.25	44.6761
3056.63	36.5476
3056.02	48.7227
3055.4	64.9536
3054.78	32.4719
3054.17	40.5836
3053.55	52.7506
3052.94	40.5712
3052.32	52.7345
3051.7	40.5588
3051.09	24.3316
3050.47	40.5464
3049.85	48.6482
3049.24	36.4806
3048.62	56.7389
3048	40.5216
3047.39	60.7731
3046.77	52.662
3046.15	64.8048
3045.53	44.5465
3044.92	48.5887
3044.3	32.3875
3043.68	56.6695
3043.06	40.472
3042.45	44.5124
3041.83	52.5975
3041.21	52.5895
3040.59	72.8051
3039.97	36.397
3039.35	32.3479
3038.74	20.2144
3038.12	44.4648
3037.5	36.3747
3036.88	28.2871
3036.26	44.4443
3035.64	24.2387
3035.02	32.3133
3034.41	28.2698
3033.79	56.5309
3033.17	68.6342
3032.55	64.587
3031.93	48.4328
3031.31	36.319
3030.69	40.3483
3030.07	40.3421
3029.45	48.4031
3028.83	32.2638
3028.21	24.1942
3027.59	48.3809
3026.97	64.498
3026.35	40.3051
3025.73	36.269
3025.11	56.4098
3024.49	48.3438
3023.87	24.1682
3023.25	44.3016
3022.63	60.402
3022	48.3142
3021.38	44.2812
3020.76	24.1497
3020.14	44.2677
3019.52	48.2846
3018.9	48.2772
3018.28	36.2023
3017.66	44.2405
3017.03	52.2762
3016.41	56.2889
3015.79	28.1401
3015.17	36.1746
3014.55	36.1691
3013.92	16.0727
3013.3	48.2106
3012.68	48.2032
3012.06	36.1469
3011.43	44.1727
3010.81	60.2263
3010.19	40.1447
3009.57	48.1663
3008.94	32.1059
3008.32	40.1262
3007.7	72.2161
3007.07	24.0684
3006.45	48.1293
3005.83	48.1219
3005.2	76.1814
3004.58	24.0536
3003.96	32.0665
3003.33	52.1001
3002.71	56.0992
3002.08	28.0453
3001.46	48.0703
3000.84	64.0838
3000.21	60.0694
2999.59	44.0441
2998.96	36.0306
2998.34	64.0445
2997.71	60.0325
2997.09	32.0124
2996.46	64.015
2995.84	40.0032
2995.21	67.995
2994.59	47.9891
2993.96	31.9878
2993.34	55.9701
2992.71	47.967
2992.09	43.963
2991.46	43.9562
2990.84	71.9173
2990.21	35.9531
2989.58	51.9243
2988.96	79.8713
2988.33	91.8379
2987.71	39.9234
2987.08	31.9338
2986.45	43.9022
2985.83	47.886
2985.2	71.8179
2984.57	47.8713
2983.95	55.8412
2983.32	51.8446
2982.69	47.8492
2982.07	55.8155
2981.44	19.931
2980.81	35.8703
2980.18	39.8498
2979.56	31.8749
2978.93	79.6751
2978.3	39.8314
2977.67	43.8078
2977.05	71.6745
2976.42	63.7009
2975.79	79.6139
2975.16	75.6215
2974.53	75.6099
2973.91	51.7251
2973.28	63.6519
2972.65	47.7316
2972.02	39.7702
2971.39	67.5989
2970.76	79.5159
2970.13	59.6278
2969.5	87.4406
2968.88	75.5052
2968.25	51.6535
2967.62	59.5911
2966.99	75.4704
2966.36	51.6297
2965.73	67.5053
2965.1	59.5544
2964.47	39.6968
2963.84	59.536
2963.21	67.4638
2962.58	71.4212
2961.95	51.5741
2961.32	51.5661
2960.69	87.2523
2960.06	67.4118
2959.43	63.4367
2958.8	83.2478
2958.17	71.3443
2957.53	55.4814
2956.9	75.2846
2956.27	67.3496
2955.64	75.2614
2955.01	79.2104
2954.38	47.5189
2953.75	71.2674
2953.12	59.3803
2952.48	47.4969
2951.85	47.4896
2951.22	75.1803
2950.59	79.125
2949.96	87.024
2949.33	59.3254
2948.69	79.0884
2948.06	86.9838
2947.43	67.2044
2946.8	55.3363
2946.16	55.3277
2945.53	67.1733
2944.9	43.4584
2944.26	63.2024
2943.63	86.89
2943	82.9276
2942.37	67.1215
2941.73	55.268
2941.1	82.8893
2940.47	55.251
2939.83	90.7555
2939.2	55.2339
2938.56	71.0041
2937.93	51.2728
2937.3	23.6607
2936.66	86.7426
2936.03	70.9603
2935.39	55.1828
2934.76	70.9384
2934.13	59.1062
2933.49	70.9165
2932.86	74.8447
2932.22	86.649
2931.59	47.2558
2930.95	39.3737
2930.32	62.9882
2929.68	23.6169
2929.05	51.1621
2928.41	39.3494
2927.78	59.015
2927.14	55.0722
2926.5	19.6656
2925.87	70.7852
2925.23	55.0467
2924.6	35.3817
2923.96	51.099
2923.32	55.0212
2922.69	55.0127
2922.05	55.0042
2921.42	74.637
2920.78	78.5531
2920.14	47.1246
2919.51	66.7495
2918.87	31.4067
2918.23	51.028
2917.6	62.7939
2916.96	35.3161
2916.32	66.6979
2915.68	82.3788
2915.05	86.2883
2914.41	90.1966
2913.77	70.5777
2913.13	70.5668
2912.5	74.4757
2911.86	78.3833
2911.22	54.8598
2910.58	70.5232
2909.94	54.8429
2909.31	35.2507
2908.67	74.4066
2908.03	90.0572
2907.39	74.3836
2906.75	74.3721
2906.11	105.67
2905.47	82.1753
2904.83	66.5126
2904.2	109.533
2903.56	43.0242
2902.92	39.1069
2902.28	86.0218
2901.64	58.6422
2901	46.9065
2900.36	54.7157
2899.72	62.5226
2899.08	54.6988
2898.44	50.7839
2897.8	74.2111
2897.16	35.1472
2896.52	54.665
2895.88	74.1767
2895.24	62.4549
2894.6	81.9594
2893.96	81.9467
2893.32	78.0324
2892.67	62.4162
2892.03	58.5061
2891.39	50.6975
2890.75	62.3872
2890.11	70.1748
2889.47	89.6539
2888.83	89.64
2888.19	70.1422
2887.54	77.9237
2886.9	62.3293
2886.26	77.8995
2885.62	77.8874
2884.98	89.5567
2884.33	46.718
2883.69	89.5289
2883.05	73.9472
2882.41	77.8271
2881.77	77.8151
2881.12	66.1326
2880.48	81.6805
2879.84	66.1121
2879.19	34.9951
2878.55	54.4283
2877.91	69.9684
2877.26	69.9576
2876.62	73.8327
2875.98	69.9359
2875.33	73.8098
2874.69	69.9142
2874.05	73.7869
2873.4	73.7755
2872.76	65.9994
2872.11	50.4623
2871.47	62.0978
2870.83	93.1323
2870.18	58.1986
2869.54	69.8275
2868.89	104.725
2868.25	62.0497
2867.6	69.795
2866.96	69.7842
2866.31	38.763
2865.67	65.8868
2865.02	77.5019
2864.38	77.4899
2863.73	54.2345
2863.09	69.7192
2862.44	81.3265
2861.8	69.6976
2861.15	61.9438
2860.5	65.8051
2859.86	69.6652
2859.21	50.3059
2858.57	65.7744
2857.92	85.1066
2857.27	77.3577
2856.63	96.6821
2855.98	85.067
2855.33	100.518
2854.69	65.7132
2854.04	77.2976
2853.39	46.3714
2852.75	61.8189
2852.1	65.6724
2851.45	69.5246
2850.81	81.0995
2850.16	57.9192
2849.51	50.1888
2848.86	73.3415
2848.21	108.065
2847.57	57.8832
2846.92	77.1656
2846.27	42.4345
2845.62	69.4275
2844.97	42.4213
2844.33	80.9735
2843.68	80.9609
2843.03	104.076
2842.38	50.1031
2841.73	84.7767
2841.08	69.352
2840.43	61.6366
2839.78	73.1821
2839.14	65.4685
2838.49	65.4583
2837.84	76.9978
2837.19	76.9859
2836.54	42.3356
2835.89	88.5062
2835.24	73.1024
2834.59	65.3973
2833.94	84.6186
2833.29	73.0683
2832.64	61.5217
2831.99	69.2011
2831.34	76.8781
2830.69	76.8662
2830.04	84.5396
2829.39	76.8422
2828.74	80.6718
2828.08	61.4547
2827.43	92.1677
2826.78	61.4355
2826.13	57.5869
2825.48	65.2549
2824.83	72.9206
2824.18	99.7706
2823.53	76.7347
2822.87	65.2143
2822.22	80.5463
2821.57	80.5338
2820.92	76.6869
2820.27	99.6774
2819.61	65.1635
2818.96	53.6557
2818.31	57.4793
2817.66	95.784
2817	57.4614
2816.35	80.4335
2815.7	68.9322
2815.05	80.4084
2814.39	103.366
2813.74	91.8667
2813.09	91.8524
2812.43	72.7051
2811.78	91.8238
2811.13	110.936
2810.47	76.4959
2809.82	65.0114
2809.16	80.2957
2808.51	84.1062
2807.86	76.4483
2807.2	103.189
2806.55	76.4244
2805.89	68.7713
2805.24	84.0407
2804.58	72.5692
2803.93	38.1884
2803.28	99.2743
2802.62	64.9
2801.97	114.512
2801.31	72.5127
2800.66	83.949
2800	83.9359
2799.34	76.2934
2798.69	80.0956
2798.03	99.1505
2797.38	87.6964
2796.72	83.8704
2796.07	87.669
2795.41	102.9
2794.75	95.2627
2794.1	95.2478
2793.44	83.805
2792.79	79.9832
2792.13	99.0113
2791.47	91.3808
2790.82	60.911
2790.16	102.771
2789.5	68.5035
2788.84	98.9341
2788.19	91.3095
2787.53	83.6873
2786.87	91.281
2786.22	60.8445
2785.56	76.0437
2784.9	79.8335
2784.24	87.423
2783.59	76.0081
2782.93	98.7951
2782.27	106.378
2781.61	94.9656
2780.95	60.7685
2780.29	83.5436
2779.64	75.9369
2778.98	87.3138
2778.32	91.0958
2777.66	83.4914
2777	75.8895
2776.34	94.847
2775.68	91.0389
2775.02	109.988
2774.36	75.842
2773.71	83.4132
2773.05	79.6092
2772.39	98.5484
2771.73	94.7433
2771.07	53.0479
2770.41	90.9251
2769.75	94.6988
2769.09	109.833
2768.43	79.5221
2767.77	83.2959
2767.11	87.0684
2766.45	109.765
2765.79	56.766
2765.12	98.379
2764.46	87.014
2763.8	105.913
2763.14	117.243
2762.48	83.1917
2761.82	98.3021
2761.16	102.067
2760.5	79.373
2759.83	90.6978
2759.17	75.5697
2758.51	98.2252
2757.85	83.1006
2757.19	71.7575
2756.53	132.164
2755.86	105.715
2755.2	98.1483
2754.54	83.0356
2753.88	90.5701
2753.21	90.5559
2752.55	113.177
2751.89	128.247
2751.23	113.142
2750.56	82.9576
2749.9	79.1744
2749.24	105.549
2748.57	82.9186
2747.91	101.748
2747.25	116.803
2746.58	105.483
2745.92	97.9334
2745.25	112.982
2744.59	120.496
2743.93	94.1225
2743.26	90.3434
2742.6	105.384
2741.93	94.0782
2741.27	71.4882
2740.61	116.62
2739.94	86.5113
2739.28	112.823
2738.61	105.285
2737.95	78.9514
2737.28	105.252
2736.62	86.4435
2735.95	86.4299
2735.29	116.474
2734.62	90.1595
2733.95	56.3408
2733.29	112.664
2732.62	108.891
2731.96	131.4
2731.29	90.0888
2730.62	90.0747
2729.96	93.8131
2729.29	101.302
2728.63	127.546
2727.96	120.024
2727.29	101.255
2726.63	134.985
2725.96	93.7248
2725.29	89.9617
2724.62	74.9563
2723.96	89.9335
2723.29	101.159
2722.62	97.3973
2721.96	71.1638
2721.29	116.091
2720.62	97.3515
2719.95	89.8488
2719.28	104.807
2718.62	108.533
2717.95	127.226
2717.28	97.2751
2716.61	97.2598
2715.94	112.205
2715.27	82.2709
2714.61	89.736
2713.94	138.321
2713.27	104.659
2712.6	93.4309
2711.93	119.573
2711.26	93.4016
2710.59	115.8
2709.92	93.3723
2709.25	100.826
2708.58	123.213
2707.91	126.926
2707.24	134.372
2706.57	115.691
2705.9	89.5529
2705.23	97.0004
2704.56	123.097
2703.89	82.0514
2703.22	96.9546
2702.55	78.2972
2701.88	126.747
2701.21	96.9089
2700.54	122.98
2699.87	85.7002
2699.2	111.765
2698.53	122.922
2697.86	111.73
2697.19	122.884
2696.51	96.8023
2695.84	137.735
2695.17	93.0499
2694.5	119.085
2693.83	104.183
2693.15	107.887
2692.48	133.908
2691.81	100.415
2691.14	126.428
2690.47	133.844
2689.79	81.7809
2689.12	115.219
2688.45	133.781
2687.77	115.182
2687.1	104.019
2686.43	122.575
2685.76	100.273
2685.08	115.11
2684.41	137.367
2683.74	141.058
2683.06	137.324
2682.39	141.013
2681.71	115.019
2681.04	144.679
2680.37	129.819
2679.69	129.799
2679.02	118.655
2678.34	103.807
2677.67	103.79
2676.99	122.305
2676.32	118.58
2675.65	103.741
2674.97	129.656
2674.3	107.412
2673.62	111.099
2672.95	99.9731
2672.27	96.2552
2671.59	85.1354
2670.92	151.739
2670.24	114.712
2669.57	99.8943
2668.89	129.472
2668.22	96.1642
2667.54	114.639
2666.86	99.8313
2666.19	114.603
2665.51	107.192
2664.83	110.871
2664.16	107.159
2663.48	125.614
2662.8	84.9611
2662.13	103.415
2661.45	114.477
2660.77	114.459
2660.1	121.824
2659.42	118.114
2658.74	121.785
2658.06	132.836
2657.39	166.019
2656.71	92.218
2656.03	99.5797
2655.35	129.064
2654.68	129.044
2654	110.592
2653.32	103.203
2652.64	140.039
2651.96	106.855
2651.28	117.89
2650.6	88.4036
2649.93	125.219
2649.25	125.199
2648.57	121.497
2647.89	139.884
2647.21	128.82
2646.53	106.72
2645.85	91.9854
2645.17	99.3285
2644.49	110.348
2643.81	139.752
2643.13	99.2815
2642.45	117.648
2641.77	132.333
2641.09	124.962
2640.41	110.243
2639.73	121.248
2639.05	128.576
2638.37	110.191
2637.69	139.553
2637.01	161.562
2636.33	113.81
2635.65	99.1091
2634.96	121.114
2634.28	124.765
2633.6	95.3931
2632.92	135.73
2632.24	124.705
2631.56	124.686
2630.88	142.999
2630.19	142.977
2629.51	124.627
2628.83	139.266
2628.15	168.559
2627.46	139.222
2626.78	113.558
2626.1	131.853
2625.42	139.156
2624.73	146.457
2624.05	146.434
2623.37	135.43
2622.69	128.089
2622	135.387
2621.32	139.024
2620.64	102.423
2619.95	98.7492
2619.27	131.645
2618.58	131.624
2617.9	109.669
2617.22	120.617
2616.53	135.216
2615.85	149.81
2615.16	116.906
2614.48	153.415
2613.79	168
2613.11	113.199
2612.43	131.437
2611.74	167.92
2611.06	167.894
2610.37	120.426
2609.69	124.056
2609	131.333
2608.31	153.197
2607.63	149.526
2606.94	127.624
2606.26	123.958
2605.57	131.229
2604.89	145.786
2604.2	156.696
2603.51	127.523
2602.83	116.574
2602.14	127.482
2601.45	142.029
2600.77	142.007
2600.08	94.6561
2599.39	149.242
2598.71	152.858
2598.02	145.556
2597.33	156.447
2596.65	156.423
2595.96	138.212
2595.27	149.1
2594.58	141.804
2593.9	149.053
2593.21	141.759
2592.52	141.737
2591.83	159.883
2591.14	123.526
2590.46	138.037
2589.77	167.071
2589.08	130.73
2588.39	159.756
2587.7	156.1
2587.01	152.446
2586.32	119.76
2585.64	145.141
2584.95	137.862
2584.26	163.231
2583.57	155.952
2582.88	123.291
2582.19	130.523
2581.5	145.002
2580.81	141.355
2580.12	155.828
2579.43	101.453
2578.74	166.647
2578.05	144.887
2577.36	162.972
2576.67	112.252
2575.98	130.337
2575.29	155.655
2574.6	166.488
2573.91	148.368
2573.22	159.199
2572.52	141.086
2571.83	75.9572
2571.14	126.575
2570.45	133.787
2569.76	144.611
2569.07	169.891
2568.38	122.881
2567.68	155.383
2566.99	151.746
2566.3	119.21
2565.61	151.697
2564.92	155.284
2564.22	158.871
2563.53	180.506
2562.84	129.944
2562.14	147.968
2561.45	108.252
2560.76	147.921
2560.07	162.326
2559.37	144.267
2558.68	155.062
2557.99	144.221
2557.29	136.988
2556.6	151.384
2555.91	154.964
2555.21	136.923
2554.52	122.491
2553.82	144.084
2553.13	165.67
2552.44	165.643
2551.74	165.617
2551.05	176.39
2550.35	143.969
2549.66	165.538
2548.96	129.531
2548.27	169.083
2547.57	136.684
2546.88	154.644
2546.18	154.619
2545.49	118.642
2544.79	143.786
2544.1	168.921
2543.4	158.114
2542.7	179.647
2542.01	147.287
2541.31	154.447
2540.62	140.057
2539.92	147.216
2539.22	150.783
2538.53	129.222
2537.83	175.857
2537.13	150.711
2536.44	179.389
2535.74	165.012
2535.04	118.359
2534.35	118.34
2533.65	172.104
2532.95	150.567
2532.25	157.712
2531.56	186.357
2530.86	182.744
2530.16	154.054
2529.46	136.119
2528.76	157.586
2528.07	186.208
2527.37	143.214
2526.67	164.67
2525.97	196.857
2525.27	157.46
2524.57	146.701
2523.88	160.988
2523.18	182.424
2522.48	157.36
2521.78	153.759
2521.08	168.036
2520.38	175.158
2519.68	146.537
2518.98	171.529
2518.28	189.366
2517.58	185.763
2516.88	171.447
2516.18	167.848
2515.48	171.392
2514.78	171.365
2514.08	182.046
2513.38	192.724
2512.68	196.261
2511.98	135.577
2511.28	164.093
2510.58	164.067
2509.88	142.644
2509.17	210.367
2508.47	185.378
2507.77	174.656
2507.07	174.628
2506.37	167.473
2505.67	167.447
2504.97	195.917
2504.26	149.585
2503.56	174.488
2502.86	192.263
2502.16	149.514
2501.45	167.286
2500.75	174.377
2500.05	206.372
2499.35	170.764
2498.64	206.306
2497.94	195.604
2497.24	138.679
2496.53	202.652
2495.83	145.744
2495.13	163.492
2494.42	174.126
2493.72	174.098
2493.02	163.413
2492.31	184.698
2491.61	195.323
2490.9	156.233
2490.2	170.409
2489.5	163.283
2488.79	202.296
2488.09	209.361
2487.38	159.656
2486.68	163.178
2485.97	156.059
2485.27	191.496
2484.56	159.554
2483.86	191.435
2483.15	180.77
2482.45	148.846
2481.74	198.429
2481.04	198.398
2480.33	180.655
2479.62	205.418
2478.92	180.597
2478.21	201.811
2477.51	162.839
2476.8	169.892
2476.09	201.714
2475.39	176.914
2474.68	162.735
2473.97	201.618
2473.27	183.902
2472.56	194.481
2471.85	194.45
2471.14	169.675
2470.44	169.647
2469.73	176.688
2469.02	211.991
2468.31	169.566
2467.61	197.795
2466.9	215.421
2466.19	187.139
2465.48	183.579
2464.77	127.073
2464.07	169.403
2463.36	190.548
2462.65	169.349
2461.94	201.069
2461.23	169.294
2460.52	179.846
2459.81	155.137
2459.1	169.213
2458.4	183.285
2457.69	176.207
2456.98	176.179
2456.27	204.335
2455.56	158.51
2454.85	200.747
2454.14	197.194
2453.43	207.724
2452.72	214.731
2452.01	214.697
2451.3	172.434
2450.59	225.184
2449.88	172.379
2449.16	186.42
2448.45	189.907
2447.74	189.877
2447.03	182.815
2446.32	196.846
2445.61	214.387
2444.9	189.755
2444.19	224.859
2443.47	196.72
2442.76	203.713
2442.05	196.657
2441.34	196.625
2440.63	196.594
2439.91	228.152
2439.2	193.021
2438.49	185.972
2437.78	192.959
2437.06	217.483
2436.35	234.984
2435.64	206.893
2434.93	196.341
2434.21	196.31
2433.5	189.268
2432.79	227.786
2432.07	234.757
2431.36	192.68
2430.64	189.147
2429.93	196.121
2429.22	182.083
2428.5	178.552
2427.79	189.025
2427.07	171.495
2426.36	213.46
2425.65	188.934
2424.93	178.409
2424.22	220.352
2423.5	209.826
2422.79	209.792
2422.07	188.782
2421.36	202.734
2420.64	206.196
2419.92	206.163
2419.21	181.673
2418.49	220.069
2417.78	220.034
2417.06	230.474
2416.35	205.997
2415.63	205.964
2414.91	216.402
2414.2	198.918
2413.48	184.929
2412.76	202.343
2412.05	216.263
2411.33	216.228
2410.61	191.784
2409.9	226.617
2409.18	191.722
2408.46	219.574
2407.74	216.054
2407.03	216.019
2406.31	215.984
2405.59	212.466
2404.87	243.775
2404.16	208.916
2403.44	222.808
2402.72	208.849
2402	198.375
2401.28	205.302
2400.56	191.352
2399.85	215.672
2399.13	236.505
2398.41	222.557
2397.69	225.998
2396.97	208.58
2396.25	180.74
2395.53	236.315
2394.81	250.175
2394.09	222.342
2393.37	187.571
2392.65	191.014
2391.93	201.4
2391.21	229.142
2390.49	204.806
2389.77	218.656
2389.05	239.442
2388.33	246.343
2387.61	228.958
2386.89	208.11
2386.17	246.224
2385.45	235.782
2384.73	246.144
2384	190.645
2383.28	263.394
2382.56	235.63
2381.84	194.017
2381.12	228.626
2380.4	204.345
2379.67	252.793
2378.95	204.279
2378.23	214.631
2377.51	193.829
2376.79	214.562
2376.06	221.448
2375.34	259.467
2374.62	214.458
2373.9	262.842
2373.17	217.847
2372.45	231.641
2371.73	183.209
2371	217.741
2370.28	224.618
2369.56	203.851
2368.83	248.727
2368.11	203.785
2367.38	203.752
2366.66	210.625
2365.94	265.828
2365.21	234.719
2364.49	227.779
2363.76	231.193
2363.04	276.006
2362.31	238.017
2361.59	179.346
2360.86	244.837
2360.14	234.454
2359.41	289.573
2358.69	210.251
2357.96	227.448
2357.24	241.194
2356.51	227.374
2355.79	296.228
2355.06	237.633
2354.33	230.708
2353.61	206.57
2352.88	244.402
2352.15	223.712
2351.43	240.882
2350.7	271.809
2349.98	244.244
2349.25	261.402
2348.52	237.287
2347.79	240.687
2347.07	275.027
2346.34	250.921
2345.61	285.248
2344.88	237.096
2344.16	247.364
2343.43	240.454
2342.7	223.243
2341.97	240.376
2341.25	236.904
2340.52	219.701
2339.79	233.395
2339.06	216.199
2338.33	271.062
2337.6	243.573
2336.87	260.684
2336.14	257.213
2335.42	229.739
2334.69	270.843
2333.96	229.665
2333.23	233.055
2332.5	246.724
2331.77	263.815
2331.04	232.942
2330.31	232.904
2329.58	263.687
2328.85	229.405
2328.12	253.332
2327.39	280.673
2326.66	215.604
2325.93	246.365
2325.2	260.01
2324.47	236.023
2323.73	218.885
2323	297.498
2322.27	266.679
2321.54	229.034
2320.81	259.757
2320.08	283.636
2319.35	232.339
2318.61	232.301
2317.88	256.173
2317.15	245.886
2316.42	252.676
2315.69	245.807
2314.95	245.767
2314.22	238.901
2313.49	232.038
2312.76	269.53
2312.02	252.43
2311.29	269.442
2310.56	286.449
2309.82	238.669
2309.09	279.538
2308.36	235.183
2307.62	286.263
2306.89	231.699
2306.16	255.509
2305.42	275.905
2304.69	269.049
2303.95	248.575
2303.22	245.13
2302.48	279.13
2301.75	292.699
2301.02	309.666
2300.28	268.787
2299.55	258.538
2298.81	265.299
2298.08	261.855
2297.34	272.013
2296.6	295.766
2295.87	268.526
2295.13	251.49
2294.4	285.428
2293.66	326.151
2292.93	288.732
2292.19	268.308
2291.45	244.494
2290.72	251.245
2289.98	268.177
2289.24	230.798
2288.51	261.303
2287.77	318.941
2287.03	271.395
2286.3	254.392
2285.56	291.655
2284.82	257.7
2284.08	291.56
2283.35	254.226
2282.61	305.022
2281.87	254.144
2281.13	301.535
2280.4	287.936
2279.66	270.954
2278.92	281.07
2278.18	304.725
2277.44	257.281
2276.7	301.241
2275.97	304.576
2275.23	294.376
2274.49	280.795
2273.75	297.662
2273.01	290.85
2272.27	273.896
2271.53	246.804
2270.79	321.131
2270.05	304.18
2269.31	246.684
2268.57	266.916
2267.83	327.678
2267.09	283.717
2266.35	283.67
2265.61	249.859
2264.87	293.706
2264.13	270.03
2263.39	296.985
2262.65	263.194
2261.91	266.525
2261.17	279.974
2260.42	290.046
2259.68	276.511
2258.94	276.466
2258.2	269.679
2257.46	269.635
2256.72	272.961
2255.97	283.025
2255.23	252.659
2254.49	282.932
2253.75	330.034
2253	303.043
2252.26	296.26
2251.52	286.114
2250.78	292.798
2250.03	262.466
2249.29	353.262
2248.55	282.564
2247.8	302.698
2247.06	319.462
2246.32	299.237
2245.57	315.996
2244.83	322.667
2244.09	285.648
2243.34	322.562
2242.6	346.025
2241.85	295.585
2241.11	288.82
2240.36	322.351
2239.62	308.87
2238.88	302.106
2238.13	315.481
2237.39	352.342
2236.64	348.929
2235.89	291.845
2235.15	318.63
2234.4	328.638
2233.66	258.173
2232.91	288.302
2232.17	305.014
2231.42	335.126
2230.67	321.668
2229.93	318.266
2229.18	308.165
2228.44	308.115
2227.69	308.064
2226.94	287.926
2226.2	287.879
2225.45	307.914
2224.7	307.863
2223.95	294.43
2223.21	324.489
2222.46	290.989
2221.71	314.351
2220.96	284.207
2220.22	317.591
2219.47	314.196
2218.72	344.223
2217.97	347.508
2217.22	324.065
2216.48	327.353
2215.73	340.658
2214.98	313.889
2214.23	307.16
2213.48	310.448
2212.73	293.709
2211.98	290.324
2211.23	336.988
2210.48	283.557
2209.73	333.542
2208.98	306.809
2208.23	320.096
2207.48	333.379
2206.73	316.658
2205.98	336.602
2205.23	309.89
2204.48	333.161
2203.73	343.099
2202.98	373.018
2202.23	289.708
2201.48	302.978
2200.73	359.519
2199.98	339.491
2199.23	329.452
2198.48	346.034
2197.72	306.057
2196.97	355.899
2196.22	352.515
2195.47	332.507
2194.72	342.426
2193.97	319.102
2193.21	368.902
2192.46	365.519
2191.71	342.202
2190.96	352.112
2190.2	338.769
2189.45	342.034
2188.7	345.298
2187.94	358.52
2187.19	311.994
2186.44	308.625
2185.68	338.436
2184.93	331.746
2184.18	374.811
2183.42	351.535
2182.67	354.794
2181.91	338.159
2181.16	348.048
2180.41	324.792
2179.65	351.248
2178.9	304.806
2178.14	331.257
2177.39	304.707
2176.63	334.46
2175.88	307.918
2175.12	324.419
2174.37	330.986
2173.61	284.601
2172.86	354.039
2172.1	330.823
2171.34	310.923
2170.59	330.714
2169.83	350.5
2169.08	350.442
2168.32	347.079
2167.56	323.888
2166.81	333.748
2166.05	310.566
2165.29	313.818
2164.54	333.584
2163.78	376.458
2163.02	293.853
2162.27	369.732
2161.51	336.665
2160.75	363.011
2159.99	306.859
2159.23	379.387
2158.48	359.534
2157.72	382.56
2156.96	356.118
2156.2	398.919
2155.44	372.483
2154.69	395.492
2153.93	369.065
2153.17	342.647
2152.41	368.944
2151.65	332.654
2150.89	375.409
2150.13	358.885
2149.37	368.702
2148.61	375.224
2147.85	385.035
2147.09	401.424
2146.33	332.272
2145.57	322.349
2144.81	351.895
2144.05	358.414
2143.29	358.355
2142.53	387.88
2141.77	361.523
2141.01	397.61
2140.25	377.832
2139.49	361.345
2138.73	335.01
2137.97	344.807
2137.2	315.2
2136.44	334.845
2135.68	354.484
2134.92	374.116
2134.16	334.68
2133.4	403.518
2132.63	370.651
2131.87	386.988
2131.11	360.692
2130.35	386.861
2129.58	396.631
2128.82	426.062
2128.06	389.947
2127.29	376.777
2126.53	393.094
2125.77	425.782
2125	353.668
2124.24	356.884
2123.48	379.741
2122.71	346.947
2121.95	356.708
2121.19	369.737
2120.42	353.319
2119.66	385.97
2118.89	343.392
2118.13	408.732
2117.36	349.817
2116.6	359.566
2115.83	411.799
2115.07	418.266
2114.3	378.991
2113.54	405.062
2112.77	401.729
2112.01	369.007
2111.24	395.067
2110.48	411.324
2109.71	411.256
2108.94	375.291
2108.18	371.966
2107.41	388.217
2106.64	371.844
2105.88	397.872
2105.11	388.025
2104.34	417.302
2103.58	417.234
2102.81	378.056
2102.04	394.286
2101.28	358.383
2100.51	345.294
2099.74	407.119
2098.97	315.872
2098.21	371.17
2097.44	390.641
2096.67	393.831
2095.9	410.038
2095.13	403.462
2094.36	393.636
2093.6	422.845
2092.83	380.498
2092.06	425.957
2091.29	380.372
2090.52	409.564
2089.75	441.996
2088.98	419.177
2088.21	412.61
2087.44	409.294
2086.67	386.492
2085.9	448.126
2085.13	409.091
2084.36	415.516
2083.59	412.202
2082.82	399.153
2082.05	418.555
2081.28	415.242
2080.51	402.199
2079.74	402.133
2078.97	447.461
2078.2	427.935
2077.43	369.519
2076.65	450.48
2075.88	401.801
2075.11	443.852
2074.34	395.189
2073.57	417.795
2072.8	401.535
2072.02	433.845
2071.25	420.825
2070.48	401.336
2069.71	407.742
2068.93	410.91
2068.16	391.432
2067.39	446.353
2066.61	417.174
2065.84	423.572
2065.07	439.666
2064.29	458.987
2063.52	420.13
2062.75	436.217
2061.97	413.53
2061.2	416.691
2060.43	377.867
2059.65	393.95
2058.88	429.399
2058.1	416.416
2057.33	419.574
2056.55	448.548
2055.78	458.153
2055	422.592
2054.23	406.395
2053.45	435.352
2052.68	451.401
2051.9	406.194
2051.13	419.019
2050.35	415.727
2049.57	434.991
2048.8	418.811
2048.02	421.963
2047.25	412.231
2046.47	441.143
2045.69	437.851
2044.92	424.903
2044.14	415.177
2043.36	424.762
2042.59	415.039
2041.81	456.789
2041.03	443.849
2040.25	430.912
2039.48	462.993
2038.7	475.775
2037.92	414.627
2037.14	478.831
2036.37	465.899
2035.59	469.035
2034.81	478.593
2034.03	475.302
2033.25	462.379
2032.47	404.515
2031.69	475.066
2030.92	442.893
2030.14	407.523
2029.36	494.079
2028.58	436.257
2027.8	449.014
2027.02	464.973
2026.24	455.278
2025.46	448.791
2024.68	464.742
2023.9	429.414
2023.12	448.567
2022.34	429.272
2021.56	409.983
2020.78	445.142
2020	467.481
2019.21	428.987
2018.43	467.326
2017.65	438.446
2016.87	467.171
2016.09	470.293
2015.31	409.439
2014.53	460.542
2013.74	447.675
2012.96	476.375
2012.18	501.869
2011.4	450.648
2010.62	469.747
2009.83	402.573
2009.05	466.396
2008.27	450.349
2007.49	427.92
2006.7	450.199
2005.92	440.547
2005.14	472.393
2004.35	449.975
2003.57	456.282
2002.79	437.064
2002	456.13
2001.22	472
2000.43	465.544
1999.65	465.467
1998.87	478.14
1998.08	446.19
1997.3	548.085
1996.51	468.344
1995.73	458.709
1994.94	442.708
1994.16	442.635
1993.37	490.32
1992.59	452.038
1991.8	483.791
1991.02	502.804
1990.23	464.539
1989.44	439.012
1988.66	496.192
1987.87	457.947
1987.09	550.081
1986.3	470.511
1985.51	479.969
1984.73	463.999
1983.94	451.211
1983.15	495.614
1982.37	505.061
1981.58	403.347
1980.79	479.49
1980	495.285
1979.22	520.597
1978.43	510.989
1977.64	555.33
1976.85	460.054
1976.06	510.734
1975.28	507.477
1974.49	507.392
1973.7	456.577
1972.91	478.692
1972.12	481.782
1971.33	491.209
1970.54	478.453
1969.76	462.533
1968.97	471.959
1968.18	471.88
1967.39	487.634
1966.6	481.22
1965.81	519.125
1965.02	512.709
1964.23	531.609
1963.44	452.425
1962.65	442.86
1961.86	518.693
1961.07	474.335
1960.28	445.8
1959.48	483.66
1958.69	496.222
1957.9	508.78
1957.11	445.503
1956.32	533.883
1955.53	461.147
1954.74	495.809
1953.94	502.041
1953.15	495.643
1952.36	536.594
1951.57	498.634
1950.78	536.415
1949.98	504.777
1949.19	495.23
1948.4	507.763
1947.61	548.67
1946.81	501.288
1946.02	516.965
1945.23	561.003
1944.43	532.548
1943.64	529.309
1942.85	522.92
1942.05	510.235
1941.26	497.553
1940.46	579.332
1939.67	500.535
1938.88	531.926
1938.08	541.278
1937.29	556.92
1936.49	459.304
1935.7	541.007
1934.9	553.496
1934.11	543.971
1933.31	481.004
1932.52	502.926
1931.72	515.413
1930.93	474.478
1930.13	515.241
1929.33	508.873
1928.54	511.928
1927.74	493.002
1926.95	549.432
1926.15	527.367
1925.35	539.833
1924.56	567.985
1923.76	574.165
1922.96	539.562
1922.17	536.336
1921.37	523.702
1920.57	526.75
1919.77	545.471
1918.98	551.649
1918.18	532.754
1917.38	542.064
1916.58	523.177
1915.78	526.222
1914.99	516.738
1914.19	547.964
1913.39	532.219
1912.59	585.343
1911.79	560.208
1910.99	531.952
1910.19	513.091
1909.39	572.439
1908.59	509.792
1907.8	559.739
1907	575.278
1906.2	487.654
1905.4	503.2
1904.6	531.24
1903.8	581.142
1903	552.929
1902.2	546.59
1901.39	515.27
1900.59	558.896
1899.79	580.655
1898.99	571.194
1898.19	574.219
1897.39	517.959
1896.59	592.745
1895.79	517.785
1894.99	567.597
1894.18	542.557
1893.38	573.642
1892.58	554.843
1891.78	551.634
1890.98	545.309
1890.17	563.911
1889.37	557.587
1888.57	507.661
1887.76	557.4
1886.96	566.646
1886.16	507.406
1885.36	544.67
1884.55	529.019
1883.75	541.376
1882.94	566.171
1882.14	569.187
1881.34	600.189
1880.53	500.592
1879.73	593.77
1878.92	528.398
1878.12	596.679
1877.32	494.042
1876.51	562.305
1875.71	568.423
1874.9	549.694
1874.1	558.917
1873.29	608.497
1872.49	592.874
1871.68	555.532
1870.87	567.851
1870.07	586.371
1869.26	564.558
1868.46	583.072
1867.65	561.268
1866.84	582.877
1866.04	598.278
1865.23	573.383
1864.42	548.496
1863.62	514.322
1862.81	560.703
1862	585.387
1861.2	554.321
1860.39	538.746
1859.58	616.049
1858.77	566.422
1857.96	535.38
1857.16	553.855
1856.35	572.324
1855.54	590.786
1854.73	559.761
1853.92	544.207
1853.12	565.756
1852.31	581.116
1851.5	670.644
1850.69	590.191
1849.88	583.913
1849.07	599.259
1848.26	568.274
1847.45	552.739
1846.64	583.52
1845.83	571.074
1845.02	626.533
1844.21	586.311
1843.4	598.554
1842.59	610.792
1841.78	592.184
1840.97	548.911
1840.16	659.816
1839.35	585.72
1838.54	591.785
1837.72	604.013
1836.91	563.856
1836.1	585.325
1835.29	569.826
1834.48	619.004
1833.67	578.872
1832.85	575.696
1832.04	621.77
1831.23	615.51
1830.42	627.714
1829.6	658.374
1828.79	565.983
1827.98	599.718
1827.17	633.441
1826.35	621.037
1825.54	596.341
1824.73	642.341
1823.91	602.286
1823.1	583.75
1822.29	626.658
1821.47	598.91
1820.66	629.517
1819.84	598.708
1819.03	601.677
1818.21	632.268
1817.4	665.918
1816.58	632.055
1815.77	628.881
1814.95	625.707
1814.14	579.602
1813.32	640.827
1812.51	606.997
1811.69	652.872
1810.88	612.922
1810.06	643.459
1809.25	652.541
1808.43	606.485
1807.61	633.946
1806.8	594.033
1805.98	587.809
1805.16	621.381
1804.35	602.913
1803.53	605.872
1802.71	642.483
1801.89	614.844
1801.08	645.324
1800.26	657.447
1799.44	660.393
1798.62	599.145
1797.81	660.17
1796.99	647.836
1796.17	608.007
1795.35	690.384
1794.53	641.399
1793.71	641.29
1792.9	699.194
1792.08	650.232
1791.26	671.488
1790.44	671.374
1789.62	634.647
1788.8	652.843
1787.98	658.833
1787.16	631.275
1786.34	640.316
1785.52	615.819
1784.7	637.052
1783.88	646.087
1783.06	682.542
1782.24	609.31
1781.42	688.403
1780.6	645.65
1779.78	645.541
1778.95	599.764
1778.13	620.971
1777.31	645.213
1776.49	645.104
1775.67	687.589
1774.85	654.012
1774.02	641.735
1773.2	589.932
1772.38	632.397
1771.56	668.769
1770.74	680.813
1769.91	647.27
1769.09	607.663
1768.27	686.543
1767.44	707.688
1766.62	671.127
1765.8	689.231
1764.97	661.792
1764.15	722.385
1763.33	704.054
1762.5	667.525
1761.68	670.445
1760.85	712.796
1760.03	733.904
1759.21	642.815
1758.38	679.086
1757.56	657.753
1756.73	684.917
1755.91	690.861
1755.08	660.449
1754.26	742.122
1753.43	696.568
1752.6	699.478
1751.78	647.891
1750.95	675.024
1750.13	674.91
1749.3	689.926
1748.47	747.293
1747.65	759.266
1746.82	768.211
1745.99	765.056
1745.17	731.669
1744.34	798.049
1743.51	755.6
1742.69	779.647
1741.86	788.579
1741.03	894.176
1740.2	815.495
1739.38	996.547
1738.55	908.817
1737.72	899.607
1736.89	968.875
1736.06	884.213
1735.23	908.201
1734.4	983.466
1733.58	1028.54
1732.75	1025.35
1731.92	1049.3
1731.09	1097.36
1730.26	1073.06
1729.43	1096.99
1728.6	1084.75
1727.77	1096.61
1726.94	1183.78
1726.11	1162.5
1725.28	1120.14
1724.45	1225.33
1723.62	1155.88
1722.79	1206.85
1721.96	1203.64
1721.13	1149.28
1720.3	1100.95
1719.46	1085.73
1718.63	1088.55
1717.8	1076.34
1716.97	1064.13
1716.14	1030.89
1715.31	1015.69
1714.47	1006.51
1713.64	997.323
1712.81	976.129
1711.98	933.922
1711.14	918.751
1710.31	852.552
1709.48	792.378
1708.65	861.265
1707.81	777.107
1706.98	854.972
1706.15	788.84
1705.31	791.705
1704.48	743.596
1703.64	761.457
1702.81	809.285
1701.98	722.239
1701.14	761.068
1700.31	751.952
1699.47	766.8
1698.64	754.69
1697.8	721.625
1696.97	763.415
1696.13	745.325
1695.3	778.119
1694.46	709.165
1693.63	747.937
1692.79	738.836
1691.95	717.775
1691.12	747.555
1690.28	777.325
1689.45	783.171
1688.61	669.467
1687.77	756.01
1686.94	693.14
1686.1	731.856
1685.26	698.878
1684.42	767.44
1683.59	746.41
1682.75	734.342
1681.91	773.017
1681.07	740.06
1680.24	748.885
1679.4	727.876
1678.56	787.403
1677.72	754.466
1676.88	715.577
1676.04	721.417
1675.21	700.431
1674.37	739.052
1673.53	718.069
1672.69	759.653
1671.85	750.588
1671.01	783.218
1670.17	723.534
1669.33	818.675
1668.49	791.747
1667.65	726.14
1666.81	734.943
1665.97	764.567
1665.13	776.335
1664.29	743.489
1663.45	686.866
1662.61	796.748
1661.77	743.108
1660.92	766.757
1660.08	754.74
1659.24	778.379
1658.4	742.601
1657.56	733.565
1656.72	777.98
1655.87	763.003
1655.03	759.904
1654.19	777.582
1653.35	801.188
1652.5	759.515
1651.66	780.15
1650.82	791.88
1649.98	723.542
1649.13	806.434
1648.29	761.831
1647.45	791.339
1646.6	800.094
1645.76	773.292
1644.91	761.311
1644.07	784.875
1643.23	778.818
1642.38	766.842
1641.54	781.512
1640.69	734.023
1639.85	801.96
1639	733.772
1638.16	739.563
1637.31	783.802
1636.47	751.139
1635.62	801.275
1634.78	742.013
1633.93	798.045
1633.08	806.774
1632.24	794.818
1631.39	750.368
1630.55	797.499
1629.7	806.223
1628.85	823.801
1628.01	859.086
1627.16	838.277
1626.31	820.427
1625.46	820.286
1624.62	843.747
1623.77	831.804
1622.92	920.137
1622.07	899.339
1621.23	925.718
1620.38	969.774
1619.53	984.344
1618.68	1110.88
1617.83	1095.96
1616.98	1225.38
1616.13	1354.75
1615.29	1457.58
1614.44	1681.09
1613.59	1733.78
1612.74	1677.57
1611.89	1712.59
1611.04	1638.75
1610.19	1550.22
1609.34	1473.48
1608.49	1455.59
1607.64	1308.33
1606.79	1255.2
1605.94	1169.75
1605.09	1134.29
1604.24	1095.9
1603.38	1031.08
1602.53	1036.78
1601.68	986.682
1600.83	974.768
1599.98	924.697
1599.13	924.538
1598.27	912.642
1597.42	877.277
1596.57	906.462
1595.72	926.837
1594.87	888.556
1594.01	864.947
1593.16	820.826
1592.31	896.892
1591.45	808.822
1590.6	881.934
1589.75	911.078
1588.89	814.264
1588.04	822.91
1587.19	846.193
1586.33	846.047
1585.48	822.486
1584.62	895.507
1583.77	810.5
1582.92	860.094
1582.06	842.396
1581.21	842.252
1580.35	801.171
1579.5	830.269
1578.64	923.661
1577.78	827.061
1576.93	835.685
1576.07	899.814
1575.22	867.528
1574.36	811.89
1573.51	858.47
1572.65	846.645
1571.79	817.31
1570.94	831.762
1570.08	834.537
1569.22	878.155
1568.37	845.918
1567.51	842.856
1566.65	851.459
1565.79	766.765
1564.94	897.806
1564.08	807.303
1563.22	865.443
1562.36	844.9
1561.5	809.8
1560.65	789.273
1559.79	844.465
1558.93	870.522
1558.07	806.332
1557.21	812.014
1556.35	846.794
1555.49	762.274
1554.63	887.228
1553.77	834.723
1552.91	837.487
1552.05	872.232
1551.19	874.989
1550.33	773.113
1549.47	845.629
1548.61	819.334
1547.75	851.148
1546.89	804.53
1546.03	845.047
1545.17	801.349
1544.31	865.076
1543.45	847.513
1542.58	815.445
1541.72	812.403
1540.86	844.174
1540	832.427
1539.14	855.483
1538.28	869.833
1537.41	872.582
1536.55	823.158
1535.69	878.077
1534.82	866.336
1533.96	900.95
1533.1	889.209
1532.24	897.743
1531.37	819.412
1530.51	894.539
1529.64	804.657
1528.78	827.67
1527.92	804.38
1527.05	792.669
1526.19	789.64
1525.32	861.803
1524.46	855.871
1523.59	832.596
1522.73	820.89
1521.86	849.648
1521	794.602
1520.13	832.022
1519.27	846.32
1518.4	825.959
1517.54	851.803
1516.67	886.3
1515.8	831.304
1514.94	862.906
1514.07	865.643
1513.21	807.794
1512.34	885.535
1511.47	833.471
1510.6	914.064
1509.74	885.077
1508.87	861.864
1508	858.833
1507.14	861.566
1506.27	893.109
1505.4	795.017
1504.53	817.92
1503.66	809.14
1502.8	811.88
1501.93	895.216
1501.06	874.915
1500.19	825.846
1499.32	834.335
1498.45	839.944
1497.58	836.922
1496.71	816.649
1495.84	842.383
1494.97	816.367
1494.1	879.455
1493.23	816.085
1492.36	833.182
1491.49	907.724
1490.62	867.358
1489.75	913.153
1488.88	864.187
1488.01	907.096
1487.14	869.629
1486.27	843.652
1485.4	846.375
1484.52	932.286
1483.65	863.291
1482.78	914.758
1481.91	840.056
1481.04	902.975
1480.17	868.426
1479.29	856.813
1478.42	870.99
1477.55	882.298
1476.67	859.232
1475.8	850.493
1474.93	853.209
1474.06	890.275
1473.18	872.948
1472.31	838.458
1471.43	841.173
1470.56	889.659
1469.69	920.966
1468.81	903.649
1467.94	886.337
1467.06	849.021
1466.19	937.477
1465.31	905.88
1464.44	857.152
1463.56	885.57
1462.69	814.012
1461.81	916.676
1460.94	942.213
1460.06	884.956
1459.19	873.386
1458.31	861.82
1457.43	933.001
1456.56	938.544
1455.68	915.564
1454.8	941.071
1453.93	909.544
1453.05	892.282
1452.17	923.48
1451.3	920.47
1450.42	940.255
1449.54	868.873
1448.66	917.143
1447.78	928.375
1446.91	891.199
1446.03	922.359
1445.15	967.74
1444.27	890.735
1443.39	870.664
1442.51	924.564
1441.64	930.092
1440.76	921.399
1439.88	952.516
1439	895.494
1438.12	918.077
1437.24	949.178
1436.36	917.758
1435.48	948.848
1434.6	869.153
1433.72	880.362
1432.84	905.763
1431.96	902.767
1431.08	925.318
1430.2	933.671
1429.31	910.809
1428.43	896.466
1427.55	992.749
1426.67	921.678
1425.79	910.176
1424.91	915.688
1424.02	864.509
1423.14	870.026
1422.26	952.046
1421.38	912.219
1420.49	875.238
1419.61	923.229
1418.73	903.248
1417.85	891.767
1416.96	948.223
1416.08	871.647
1415.2	925.257
1414.31	913.78
1413.43	939.078
1412.54	967.195
1411.66	924.613
1410.78	975.339
1409.89	1014.74
1409.01	910
1408.12	994.61
1407.24	1070.71
1406.35	901.051
1405.47	881.126
1404.58	900.738
1403.7	948.574
1402.81	959.7
1401.92	939.778
1401.04	962.187
1400.15	956.377
1399.27	899.797
1398.38	908.101
1397.49	938.96
1396.61	924.7
1395.72	907.627
1394.83	921.56
1393.94	932.67
1393.06	963.497
1392.17	932.345
1391.28	971.611
1390.39	932.02
1389.51	934.673
1388.62	900.733
1387.73	869.619
1386.84	925.743
1385.95	942.462
1385.06	914.169
1384.17	933.696
1383.29	908.227
1382.4	919.314
1381.51	938.83
1380.62	947.097
1379.73	994.7
1378.84	929.911
1377.95	921.322
1377.06	907.119
1376.17	904.153
1375.28	948.914
1374.39	990.853
1373.5	954.196
1372.6	973.671
1371.71	934.225
1370.82	900.402
1369.93	905.854
1369.04	956.168
1368.15	1014.87
1367.26	953.031
1366.36	896.814
1365.47	879.845
1364.58	913.31
1363.69	957.968
1362.79	940.997
1361.9	893.231
1361.01	929.47
1360.11	932.107
1359.22	917.951
1358.33	982.148
1357.43	903.642
1356.54	942.644
1355.65	906.123
1354.75	964.684
1353.86	911.398
1352.96	936.395
1352.07	969.768
1351.17	958.422
1350.28	969.429
1349.39	927.361
1348.49	952.334
1347.59	966.129
1346.7	915.708
1345.8	1007.66
1344.91	971.204
1344.01	987.776
1343.12	962.495
1342.22	973.484
1341.32	962.158
1340.43	942.471
1339.53	875.397
1338.63	961.653
1337.74	902.96
1336.84	936.239
1335.94	980.65
1335.04	921.984
1334.15	980.307
1333.25	913.308
1332.35	996.668
1331.45	985.359
1330.55	1007.45
1329.66	918.234
1328.76	929.201
1327.86	951.291
1326.96	976.154
1326.06	970.422
1325.16	967.472
1324.26	975.641
1323.36	950.458
1322.46	986.414
1321.56	997.354
1320.66	1027.73
1319.76	958.124
1318.86	919.083
1317.96	966.117
1317.06	963.172
1316.16	1026.83
1315.26	976.708
1314.36	932.149
1313.46	1062.35
1312.55	1076.03
1311.65	1000.98
1310.75	1011.89
1309.85	1111.5
1308.95	1022.62
1308.04	1075.09
1307.14	1044.43
1306.24	1077.48
1305.34	1093.91
1304.43	1046.65
1303.53	1076.92
1302.63	1026.9
1301.72	1059.93
1300.82	1056.98
1299.92	1076.16
1299.01	1037.25
1298.11	1178.11
1297.21	1094.95
1296.3	1116.87
1295.4	1194.07
1294.49	1138.59
1293.59	1201.94
1292.68	1105.04
1291.78	1184.95
1290.87	1154.36
1289.97	1179.01
1289.06	1231.25
1288.16	1313.84
1287.25	1197.71
1286.34	1208.53
1285.44	1235.91
1284.53	1219.14
1283.62	1191.35
1282.72	1210.44
1281.81	1201.96
1280.9	1157.64
1280	1154.69
1279.09	1124.17
1278.18	1082.65
1277.27	1189.88
1276.37	1131.84
1275.46	1153.67
1274.55	1142.46
1273.64	1103.72
1272.73	1131.05
1271.82	1073.07
1270.92	1059.12
1270.01	1053.44
1269.1	1097.25
1268.19	1146.55
1267.28	1014.4
1266.37	1107.67
1265.46	1047.02
1264.55	1057.82
1263.64	1109.83
1262.73	1068.44
1261.82	1002.34
1260.91	991.181
1260	1018.46
1259.09	1023.77
1258.18	1067.5
1257.27	968.534
1256.35	979.336
1255.44	940.765
1254.53	998.187
1253.62	1028.17
1252.71	1025.25
1251.79	1014.11
1250.88	928.976
1249.97	964.431
1249.06	994.394
1248.14	884.663
1247.23	991.305
1246.32	947.324
1245.41	1004.64
1244.49	914.146
1243.58	938.614
1242.66	952.128
1241.75	984.787
1240.84	1033.84
1239.92	970.767
1239.01	899.51
1238.09	934.888
1237.18	910.125
1236.26	959.152
1235.35	1032.75
1234.43	999.789
1233.52	980.494
1232.6	933.899
1231.69	961.037
1230.77	966.327
1229.86	887.008
1228.94	990.545
1228.02	933.076
1227.11	949.278
1226.19	930.02
1225.27	957.124
1224.36	970.587
1223.44	921.35
1222.52	948.441
1221.6	948.274
1220.69	893.617
1219.77	967.007
1218.85	942.325
1217.93	950.327
1217.01	955.605
1216.1	925.493
1215.18	993.369
1214.26	914.282
1213.34	984.856
1212.42	943.881
1211.5	962.751
1210.58	916.356
1209.66	962.411
1208.74	937.778
1207.82	926.741
1206.9	915.708
1205.98	918.263
1205.06	920.817
1204.14	955.96
1203.22	912.346
1202.3	939.333
1201.38	960.882
1200.46	917.29
1199.54	955.115
1198.61	930.53
1197.69	943.928
1196.77	900.37
1195.85	916.479
1194.93	954.271
1194	883.629
1193.08	902.443
1192.16	913.121
1191.24	921.087
1190.31	975.096
1189.39	996.589
1188.47	888.107
1187.54	920.435
1186.62	979.82
1185.7	1006.71
1184.77	998.413
1183.85	968.478
1182.92	979.126
1182	887.007
1181.07	1059.89
1180.15	1000.23
1179.23	956.81
1178.3	943.129
1177.37	1002.4
1176.45	986.017
1175.52	1031.76
1174.6	1015.37
1173.67	974.694
1172.75	1025.81
1171.82	982.445
1170.89	976.874
1169.97	957.815
1169.04	971.133
1168.11	898.139
1167.19	973.485
1166.26	943.655
1165.33	921.922
1164.4	972.968
1163.48	962.016
1162.55	891.796
1161.62	899.719
1160.69	902.252
1159.76	953.256
1158.83	980.01
1157.91	974.453
1156.98	925.835
1156.05	922.98
1155.12	971.244
1154.19	930.722
1153.26	987.036
1152.33	943.837
1151.4	1005.51
1150.47	954.254
1149.54	937.96
1148.61	972.725
1147.68	929.567
1146.75	940.146
1145.82	934.608
1144.89	963.979
1143.96	969.178
1143.02	963.637
1142.09	917.842
1141.16	923.046
1140.23	936.296
1139.3	976.364
1138.36	1003.01
1137.43	908.983
1136.5	989.249
1135.57	999.795
1134.63	946.018
1133.7	980.683
1132.77	972.472
1131.83	999.084
1130.9	985.516
1129.97	1025.5
1129.03	1081.54
1128.1	1014.43
1127.17	995.52
1126.23	973.938
1125.3	1110.2
1124.36	994.99
1123.43	1069.69
1122.49	1058.81
1121.56	1018.52
1120.62	1074.47
1119.69	1023.5
1118.75	1068.74
1117.81	1068.55
1116.88	1049.66
1115.94	996.068
1115.01	1116.04
1114.07	1113.17
1113.13	982.192
1112.2	1080.75
1111.26	1064.55
1110.32	1048.36
1109.38	1109.51
1108.45	1034.65
1107.51	1029.13
1106.57	1039.61
1105.63	1002.12
1104.69	1105.86
1103.76	1036.39
1102.82	1038.87
1101.88	1030.7
1100.94	1009.21
1100	1025.01
1099.06	995.543
1098.12	995.366
1097.18	995.188
1096.24	1056.2
1095.3	1002.81
1094.36	1026.57
1093.42	1021.07
1092.48	1036.84
1091.54	975.518
1090.6	1015.21
1089.66	927.342
1088.72	969.683
1087.78	974.823
1086.84	971.993
1085.9	950.578
1084.95	958.373
1084.01	947.585
1083.07	952.723
1082.13	1000.31
1081.19	1000.14
1080.24	1021.18
1079.3	986.519
1078.36	957.177
1077.41	925.194
1076.47	962.136
1075.53	983.165
1074.58	922.049
1073.64	961.621
1072.7	903.18
1071.75	963.926
1070.81	921.391
1069.86	907.991
1068.92	971.35
1067.98	976.469
1067.03	952.483
1066.09	976.12
1065.14	970.656
1064.19	920.24
1063.25	965.022
1062.3	925.198
1061.36	969.963
1060.41	906.37
1059.46	924.702
1058.52	950.953
1057.57	890.038
1056.63	940.05
1055.68	961.003
1054.73	968.75
1053.78	958.021
1052.84	936.74
1051.89	923.381
1050.94	944.318
1049.99	967.885
1049.05	959.801
1048.1	1012.36
1047.15	991.089
1046.2	1011.99
1045.25	935.401
1044.3	911.523
1043.35	942.968
1042.4	961.234
1041.45	1000.56
1040.5	971.42
1039.55	937.029
1038.6	944.756
1037.65	968.268
1036.7	994.401
1035.75	991.593
1034.8	936.191
1033.85	1007.01
1032.9	967.401
1031.95	975.113
1031	982.822
1030.05	987.901
1029.1	971.962
1028.14	948.15
1027.19	984.744
1026.24	1016.07
1025.29	955.516
1024.33	1018.33
1023.38	984.039
1022.43	926.143
1021.48	1025.66
1020.52	1012.36
1019.57	899.423
1018.62	946.453
1017.66	982.981
1016.71	1037.84
1015.75	990.49
1014.8	990.312
1013.85	977.038
1012.89	940.197
1011.94	968.832
1010.98	1007.93
1010.03	958.014
1009.07	968.311
1008.12	989.07
1007.16	939.186
1006.2	1022.72
1005.25	998.998
1004.29	1014.51
1003.34	1019.55
1002.38	990.619
1001.42	1034.87
1000.47	990.264
999.508	990.086
998.551	976.849
997.594	963.617
996.636	976.498
995.679	931.945
994.721	950.048
993.763	983.801
992.805	973.188
991.846	970.405
990.888	946.757
989.929	930.941
988.97	930.774
988.011	948.854
987.052	1013.84
986.093	982.388
985.133	963.974
984.173	911.704
983.213	994.881
982.253	976.475
981.293	926.833
980.333	1020.37
979.372	934.308
978.411	996.589
977.45	1017.22
976.489	1045.65
975.528	951.841
974.566	1034.88
973.605	977.496
972.643	946.129
971.681	948.557
970.719	961.378
969.756	981.988
968.794	963.63
967.831	984.232
966.868	981.458
965.905	968.302
964.942	1033.02
963.979	973.143
963.015	1004.1
962.052	931.287
961.088	957.056
960.124	1003.56
959.159	954.119
958.195	987.646
957.23	946
956.266	953.604
955.301	893.842
954.336	958.441
953.37	978.988
952.405	963.275
951.439	986.402
950.473	955.162
949.507	1004.16
948.541	1029.86
947.575	1052.96
946.608	1001.03
945.642	956.888
944.675	1021.36
943.708	969.469
942.741	1010.65
941.773	992.379
940.806	950.858
939.838	999.771
938.87	1002.17
937.902	1007.16
936.934	996.649
935.965	957.746
934.997	996.289
934.028	1032.24
933.059	980.449
932.09	982.852
931.121	995.571
930.151	1003.13
929.182	974.585
928.212	984.721
927.242	1018.05
926.272	986.942
925.301	979.035
924.331	1048.41
923.36	934.898
922.389	973.355
921.418	1058.14
920.447	988.448
919.475	1001.14
918.504	995.81
917.532	1016.21
916.56	1021.17
915.588	1010.7
914.616	997.662
913.643	1012.91
912.671	984.45
911.698	1022.82
910.725	1004.65
909.752	1030.16
908.779	1011.99
907.805	1042.63
906.831	978.248
905.858	1006.31
904.883	1052.33
903.909	1003.38
902.935	982.672
901.96	1059.45
900.986	1056.7
900.011	1041.12
899.036	1122.97
898.06	1033.05
897.085	1112.32
896.109	1022.43
895.133	1027.37
894.157	1078.41
893.181	1085.9
892.205	1065.22
891.229	1111.11
890.252	1075.07
889.275	1072.32
888.298	1107.95
887.321	1089.84
886.343	1148.47
885.366	1104.79
884.388	1114.82
883.41	1071.16
882.432	1070.96
881.454	1103.99
880.475	1075.68
879.497	1113.81
878.518	1105.94
877.539	1021.47
876.56	1072.35
875.58	1125.76
874.601	1097.49
873.621	1097.29
872.641	1048.61
871.661	1081.58
870.681	1124.75
869.701	1144.94
868.72	1058.05
867.739	1147.08
866.758	1093.35
865.777	1169.59
864.796	1087.86
863.815	1138.6
862.833	1184.24
861.851	1145.83
860.869	1214.36
859.887	1287.95
858.905	1259.73
857.922	1241.69
856.939	1282.16
855.956	1315
854.973	1205.41
853.99	1314.52
853.007	1281.23
852.023	1260.67
851.039	1240.11
850.055	1206.85
849.071	1201.56
848.087	1203.88
847.102	1165.57
846.118	1188.21
845.133	1167.68
844.148	1086.26
843.163	1080.98
842.177	1189.88
841.192	1128.79
840.206	1199.59
839.22	1123.3
838.234	1107.89
837.248	1112.76
836.261	1087.21
835.274	1125.02
834.288	1109.62
833.301	1149.94
832.313	1012.98
831.326	1119.14
830.339	1129.06
829.351	1156.7
828.363	1128.65
827.375	1120.86
826.387	1059.94
825.398	1074.92
824.409	1094.96
823.421	1147.85
822.432	1071.81
821.443	1114.58
820.453	1169.97
819.464	1119.23
818.474	1159.44
817.484	1149.13
816.494	1105.99
815.504	1138.61
814.513	1039.96
813.523	1123.05
812.532	1130.42
811.541	1079.76
810.55	1104.78
809.559	1071.8
808.567	1129.6
807.575	1126.87
806.583	1093.9
805.591	1093.7
804.599	1161.53
803.607	1113.45
802.614	1130.88
801.621	1123.12
800.628	1110.33
799.635	1125.23
798.642	1057.07
797.649	1061.91
796.655	1112.03
795.661	1134.47
794.667	1101.57
793.673	1171.78
792.678	1169.05
791.684	1131.13
790.689	1163.6
789.694	1135.74
788.699	1125.49
787.704	1054.95
786.708	1110.01
785.713	1102.27
784.717	1079.48
783.721	1169.64
782.724	1119.24
781.728	1086.42
780.731	1048.59
779.735	1040.87
778.738	1070.78
777.741	1037.99
776.743	1050.33
775.746	1090.24
774.748	1037.42
773.75	1049.76
772.752	1074.61
771.754	1114.49
770.756	1071.72
769.757	1141.62
768.758	1066.32
767.759	1081.14
766.76	1080.94
765.761	1095.76
764.761	1048.03
763.762	1022.83
762.762	1072.65
761.762	1087.46
760.762	1059.76
759.761	1099.55
758.761	1109.35
757.76	1079.17
756.759	1096.45
755.758	1133.71
754.756	1106.04
753.755	1045.93
752.753	1118.11
751.751	1147.85
750.749	1112.71
749.747	1122.49
748.745	1077.39
747.742	1072.21
746.739	1181.71
745.736	1066.83
744.733	1123.96
743.73	1039.03
742.726	1103.61
741.723	1158.21
740.719	1080.8
739.715	1117.95
738.71	1100.32
737.706	1134.96
736.701	1080.01
735.697	1122.11
734.692	1074.64
733.686	1034.65
732.681	1111.54
731.675	1091.45
730.67	1108.65
729.664	1123.36
728.658	1125.64
727.651	1083.2
726.645	1137.65
725.638	1062.93
724.631	1129.78
723.624	1164.33
722.617	1134.33
721.61	1101.86
720.602	1071.88
719.595	1151.07
718.587	1133.5
717.578	1108.49
716.57	1093.41
715.562	1088.25
714.553	1142.58
713.544	1092.81
712.535	1149.6
711.526	1216.27
710.516	1161.56
709.507	1119.25
708.497	1138.85
707.487	1237.65
706.477	1197.83
705.467	1153.07
704.456	1217.18
703.445	1251.59
702.434	1283.51
701.423	1221.45
700.412	1174.26
699.401	1208.65
698.389	1188.66
697.377	1151.38
696.365	1165.99
695.353	1101.56
694.34	1121.11
693.328	1078.93
692.315	1103.42
691.302	1206.87
690.289	1122.75
689.276	1115.15
688.262	1149.48
687.249	1141.87
686.235	1099.74
685.221	1129.12
684.206	1111.66
683.192	1148.42
682.177	1162.99
681.162	1123.36
680.147	1155.18
679.132	1108.17
678.117	1196.61
677.101	1198.85
676.086	1092.8
675.07	1156.58
674.054	1075.17
673.037	1225.03
672.021	1151.02
671.004	1172.94
669.987	1148.14
668.97	1184.8
667.953	1142.8
666.936	1262.99
665.918	1107.98
664.9	1181.47
663.882	1117.4
662.864	1176.12
661.846	1183.27
660.827	1195.33
659.808	1092.04
658.789	1167.9
657.77	1160.32
656.751	1165.01
655.731	1174.61
654.712	1159.68
653.692	1193.79
652.672	1235.23
651.652	1183.55
650.631	1144.13
649.611	1156.16
648.59	1131.46
647.569	1148.39
646.548	1106.56
645.526	1182.24
644.505	1164.89
643.483	1159.78
642.461	1208.49
641.439	1188.7
640.417	1205.6
639.394	1188.27
638.371	1185.6
637.348	1168.27
636.325	1224.26
635.302	1290
634.279	1365.49
633.255	1462.93
632.231	1457.78
631.207	1418.45
630.183	1315.66
629.159	1361.79
628.134	1215.14
627.109	1210.03
626.084	1185.42
625.059	1192.52
624.034	1180.11
623.008	1194.51
621.983	1208.92
620.957	1130.71
619.931	1169.49
618.904	1147.35
617.878	1217.77
616.851	1144.49
615.824	1197.84
614.797	1190.32
613.77	1204.7
612.743	1199.61
611.715	1245.61
610.687	1187.01
609.659	1189.22
608.631	1171.98
607.603	1205.8
606.574	1130.22
605.546	1212.64
604.517	1180.83
603.487	1183.04
602.458	1180.39
601.429	1206.89
600.399	1216.38
599.369	1235.57
598.339	1174.67
597.309	1191.44
596.278	1225.18
595.248	1237.08
594.217	1210.18
593.186	1163.88
592.155	1248.52
591.123	1139.21
590.091	1189.89
589.06	1226.02
588.028	1194.3
586.996	1143.21
585.963	1222.92
584.931	1128.26
583.898	1171.63
582.865	1229.5
581.832	1238.95
580.798	1216.95
579.765	1211.88
578.731	1158.45
577.697	1245.29
576.663	1216.04
575.629	1189.23
574.594	1210.76
573.56	1154.96
572.525	1128.18
571.49	1183.52
570.455	1200.2
569.419	1202.4
568.384	1192.52
567.348	1218.85
566.312	1182.42
565.276	1090.52
564.239	1194.05
563.203	1232.41
562.166	1164.67
561.129	1244.01
560.092	1212.44
559.054	1202.58
558.017	1231.27
556.979	1221.41
555.941	1216.36
554.903	1237.81
553.865	1208.69
552.826	1230.13
551.787	1162.51
550.749	1195.98
549.709	1210.2
548.67	1176.29
547.631	1195.32
546.591	1144.6
545.551	1202.09
544.511	1156.19
543.471	1136.75
542.43	1182.19
541.39	1181.97
540.349	1196.17
539.308	1258.38
538.267	1186.12
537.225	1214.7
536.184	1238.48
535.142	1202.26
534.1	1175.64
533.058	1182.62
532.015	1230.37
530.973	1186.97
529.93	1213.13
528.887	1160.17
527.844	1128.79
526.801	1205.26
525.757	1142.75
524.713	1192.84
523.669	1197.4
522.625	1194.79
521.581	1242.44
520.537	1206.31
519.492	1127.12
518.447	1169.97
517.402	1246.3
516.357	1219.76
515.311	1166.93
514.265	1193.01
513.22	1216.69
512.174	1192.57
511.127	1189.96
510.081	1170.62
509.034	1134.58
507.987	1108.09
506.94	1126.99
505.893	1083.81
504.846	1076.45
503.798	1133.52
502.75	1123.76
501.702	1083
500.654	1118.58
499.606	1225.67
