3200.54	79.986
3199.95	96.8252
3199.35	101.02
3198.76	63.1278
3198.16	109.405
3197.57	84.1449
3196.98	79.9256
3196.38	96.7374
3195.79	96.7228
3195.19	96.7082
3194.6	71.4691
3194	113.493
3193.41	105.07
3192.81	96.6497
3192.22	88.232
3191.62	96.6205
3191.03	63.0038
3190.43	104.99
3189.84	100.776
3189.24	138.546
3188.65	117.536
3188.05	58.7591
3187.45	96.5182
3186.86	92.3078
3186.26	113.27
3185.67	117.447
3185.07	92.2659
3184.47	109.025
3183.88	117.394
3183.28	75.456
3182.69	79.636
3182.09	96.3869
3181.49	83.802
3180.9	104.737
3180.3	96.3431
3179.7	83.7639
3179.1	83.7512
3178.51	66.9909
3177.91	96.2848
3177.31	117.199
3176.72	92.0706
3176.12	83.6879
3175.52	87.859
3174.92	100.395
3174.33	71.1024
3173.73	117.092
3173.13	100.349
3172.53	108.695
3171.93	83.5992
3171.34	137.918
3170.74	75.2165
3170.14	116.986
3169.54	116.968
3168.94	100.243
3168.34	83.5232
3167.74	87.6861
3167.15	96.0226
3166.55	91.8338
3165.95	70.9517
3165.35	87.633
3164.75	116.826
3164.15	129.324
3163.55	95.9353
3162.95	87.5799
3162.35	91.7364
3161.75	104.23
3161.15	83.3715
3160.55	100.031
3159.95	116.685
3159.35	112.5
3158.75	95.8191
3158.15	99.97
3157.55	129.108
3156.95	120.76
3156.35	149.887
3155.75	129.05
3155.15	133.192
3154.55	141.495
3153.95	120.669
3153.35	116.49
3152.75	79.0349
3152.15	128.932
3151.54	99.8033
3150.94	141.367
3150.34	112.245
3149.74	87.2881
3149.14	103.899
3148.54	112.194
3147.94	141.259
3147.33	137.084
3146.73	99.6822
3146.13	116.278
3145.53	83.0433
3144.93	124.546
3144.32	78.8672
3143.72	103.757
3143.12	99.5915
3142.52	132.768
3141.91	112.006
3141.31	116.137
3140.71	95.3839
3140.1	120.248
3139.5	111.938
3138.9	82.9047
3138.29	120.194
3137.69	120.175
3137.09	140.874
3136.48	132.567
3135.88	103.552
3135.28	111.819
3134.67	120.084
3134.07	95.2246
3133.47	115.908
3132.86	107.613
3132.26	120.011
3131.65	111.718
3131.05	119.975
3130.45	78.5921
3129.84	103.395
3129.24	111.65
3128.63	128.171
3128.03	95.08
3127.42	111.599
3126.82	152.908
3126.21	103.301
3125.61	115.679
3125	115.662
3124.4	123.904
3123.79	144.533
3123.19	103.222
3122.58	103.207
3121.97	140.34
3121.37	111.429
3120.76	123.791
3120.16	127.898
3119.55	103.128
3118.94	160.855
3118.34	127.84
3117.73	136.067
3117.13	148.414
3116.52	136.026
3115.91	136.005
3115.31	152.467
3114.7	181.285
3114.09	119.465
3113.48	107.09
3112.88	135.901
3112.27	135.881
3111.66	123.509
3111.06	127.607
3110.45	119.356
3109.84	144.028
3109.23	156.35
3108.63	127.529
3108.02	148.076
3107.41	156.278
3106.8	139.807
3106.19	119.229
3105.59	156.207
3104.98	127.413
3104.37	123.284
3103.76	152.027
3103.15	156.112
3102.54	156.088
3101.93	147.85
3101.33	151.934
3100.72	143.7
3100.11	135.468
3099.5	197.014
3098.89	143.634
3098.28	188.747
3097.67	184.616
3097.06	172.282
3096.45	147.648
3095.84	135.323
3095.23	180.403
3094.62	168.078
3094.01	172.151
3093.4	147.535
3092.79	143.415
3092.18	147.49
3091.57	200.72
3090.96	208.881
3090.35	167.898
3089.74	184.251
3089.13	192.41
3088.52	184.194
3087.91	175.981
3087.3	180.046
3086.69	200.476
3086.08	175.901
3085.46	188.144
3084.85	216.742
3084.24	208.531
3083.63	216.676
3083.02	208.467
3082.41	192.088
3081.79	228.836
3081.18	204.286
3080.57	216.51
3079.96	245.069
3079.35	212.361
3078.73	236.827
3078.12	236.791
3077.51	257.165
3076.9	232.638
3076.28	224.441
3075.67	228.487
3075.06	199.895
3074.45	216.18
3073.83	224.304
3073.22	191.649
3072.61	240.543
3071.99	211.972
3071.38	232.318
3070.77	195.607
3070.15	171.13
3069.54	191.473
3068.93	171.077
3068.31	162.906
3067.7	179.169
3067.08	211.713
3066.47	215.752
3065.86	195.368
3065.24	219.755
3064.63	174.964
3064.01	179.005
3063.4	227.79
3062.78	211.487
3062.17	199.255
3061.55	195.159
3060.94	158.542
3060.32	219.487
3059.71	235.709
3059.09	190.976
3058.48	138.132
3057.86	174.67
3057.25	203.073
3056.63	166.495
3056.02	170.529
3055.4	174.563
3054.78	190.772
3054.17	186.685
3053.55	194.772
3052.94	178.513
3052.32	198.769
3051.7	194.682
3051.09	182.487
3050.47	198.677
3049.85	190.539
3049.24	210.777
3048.62	218.85
3048	194.504
3047.39	182.319
3046.77	182.291
3046.15	206.565
3045.53	202.484
3044.92	186.257
3044.3	230.761
3043.68	174.056
3043.06	214.502
3042.45	190.189
3041.83	198.252
3041.21	153.723
3040.59	206.281
3039.97	165.808
3039.35	238.566
3038.74	194.058
3038.12	202.113
3037.5	185.915
3036.88	169.723
3036.26	218.181
3035.64	197.949
3035.02	197.919
3034.41	262.505
3033.79	218.048
3033.17	209.94
3032.55	238.164
3031.93	238.128
3031.31	185.631
3030.69	225.951
3030.07	181.54
3029.45	254.116
3028.83	221.814
3028.21	217.747
3027.59	173.365
3026.97	193.494
3026.35	221.678
3025.73	177.315
3025.11	189.376
3024.49	209.49
3023.87	221.542
3023.25	225.535
3022.63	197.313
3022	189.231
3021.38	245.56
3020.76	205.272
3020.14	209.265
3019.52	205.21
3018.9	253.455
3018.28	225.259
3017.66	209.137
3017.03	241.275
3016.41	257.321
3015.79	225.121
3015.17	196.951
3014.55	221.033
3013.92	277.254
3013.3	220.965
3012.68	236.999
3012.06	208.849
3011.43	240.942
3010.81	200.754
3010.19	236.854
3009.57	260.901
3008.94	240.794
3008.32	252.795
3007.7	208.624
3007.07	228.649
3006.45	236.636
3005.83	236.599
3005.2	268.64
3004.58	252.563
3003.96	236.491
3003.33	260.5
3002.71	232.411
3002.08	236.382
3001.46	264.386
3000.84	268.351
3000.21	236.273
2999.59	252.253
2998.96	268.227
2998.34	268.186
2997.71	272.147
2997.09	260.101
2996.46	228.053
2995.84	240.019
2995.21	283.979
2994.59	259.941
2993.96	243.907
2993.34	251.865
2992.71	287.802
2992.09	275.768
2991.46	251.749
2990.84	243.72
2990.21	251.672
2989.58	275.598
2988.96	267.569
2988.33	283.5
2987.71	287.448
2987.08	251.479
2986.45	259.422
2985.83	275.344
2985.2	291.262
2984.57	243.346
2983.95	255.274
2983.32	243.271
2982.69	311.02
2982.07	287.051
2981.44	306.938
2980.81	263.049
2980.18	318.798
2979.56	258.984
2978.93	286.83
2978.3	318.651
2977.67	246.917
2977.05	258.825
2976.42	302.579
2975.79	302.533
2975.16	270.645
2974.53	334.275
2973.91	310.351
2973.28	302.347
2972.65	298.322
2972.02	298.276
2971.39	326.065
2970.76	294.209
2970.13	333.915
2969.5	313.991
2968.88	286.125
2968.25	349.655
2967.62	349.601
2966.99	309.826
2966.36	341.55
2965.73	285.905
2965.1	337.475
2964.47	297.726
2963.84	341.34
2963.21	357.161
2962.58	313.46
2961.95	337.215
2961.32	329.23
2960.69	329.179
2960.06	317.232
2959.43	352.866
2958.8	356.776
2958.17	360.685
2957.53	360.629
2956.9	348.687
2956.27	380.327
2955.64	305.007
2955.01	344.565
2954.38	340.552
2953.75	308.825
2953.12	324.612
2952.48	324.562
2951.85	312.64
2951.22	352.16
2950.59	312.544
2949.96	363.919
2949.33	288.717
2948.69	324.262
2948.06	308.397
2947.43	383.46
2946.8	343.875
2946.16	320.11
2945.53	268.693
2944.9	248.898
2944.26	347.613
2943.63	319.913
2943	347.506
2942.37	371.143
2941.73	347.399
2941.1	315.769
2940.47	315.72
2939.83	303.834
2939.2	335.349
2938.56	370.799
2937.93	327.357
2937.3	370.685
2936.66	307.542
2936.03	287.783
2935.39	342.922
2934.76	311.341
2934.13	307.352
2933.49	330.944
2932.86	326.953
2932.22	322.964
2931.59	330.79
2930.95	314.99
2930.32	295.257
2929.68	346.382
2929.05	330.586
2928.41	338.405
2927.78	287.206
2927.14	298.963
2926.5	302.85
2925.87	326.399
2925.23	334.212
2924.6	345.954
2923.96	373.416
2923.32	330.127
2922.69	334.005
2922.05	306.452
2921.42	298.548
2920.78	337.778
2920.14	302.383
2919.51	310.189
2918.87	380.806
2918.23	368.971
2917.6	361.065
2916.96	317.845
2916.32	388.417
2915.68	349.129
2915.05	333.387
2914.41	384.316
2913.77	356.809
2913.13	333.232
2912.5	341.02
2911.86	384.078
2911.22	364.426
2910.58	360.452
2909.94	376.065
2909.31	364.257
2908.67	340.704
2908.03	399.384
2907.39	356.258
2906.75	371.86
2906.11	371.803
2905.47	379.572
2904.83	391.25
2904.2	434.221
2903.56	340.282
2902.92	410.622
2902.28	375.368
2901.64	410.495
2901	390.887
2900.36	390.827
2899.72	355.597
2899.08	359.449
2898.44	378.926
2897.8	355.432
2897.16	359.282
2896.52	425.606
2895.88	382.595
2895.24	370.826
2894.6	409.797
2893.96	378.516
2893.32	382.359
2892.67	362.794
2892.03	405.643
2891.39	444.578
2890.75	354.827
2890.11	421.049
2889.47	378.105
2888.83	397.534
2888.19	436.44
2887.54	444.165
2886.9	424.618
2886.26	424.552
2885.62	377.754
2884.98	397.164
2884.33	412.676
2883.69	385.364
2883.05	396.98
2882.41	404.701
2881.77	424.092
2881.12	408.466
2880.48	388.955
2879.84	423.895
2879.19	447.159
2878.55	439.314
2877.91	404.262
2877.26	384.767
2876.62	376.935
2875.98	372.992
2875.33	357.395
2874.69	392.296
2874.05	384.469
2873.4	403.824
2872.76	423.173
2872.11	388.171
2871.47	353.181
2870.83	422.976
2870.18	384.111
2869.54	364.655
2868.89	407.264
2868.25	426.591
2867.6	407.138
2866.96	422.582
2866.31	383.754
2865.67	441.829
2865.02	434.011
2864.38	383.575
2863.73	449.372
2863.09	414.442
2862.44	460.85
2861.8	398.825
2861.15	452.964
2860.5	429.668
2859.86	448.953
2859.21	425.665
2858.57	390.778
2857.92	441.007
2857.27	409.996
2856.63	483.41
2855.98	456.268
2855.33	436.867
2854.69	432.934
2854.04	394.218
2853.39	490.764
2852.75	428.868
2852.1	448.117
2851.45	451.91
2850.81	413.221
2850.16	424.741
2849.51	382.207
2848.86	455.489
2848.21	439.981
2847.57	459.207
2846.92	497.718
2846.27	420.487
2845.62	447.421
2844.97	455.065
2844.33	424.147
2843.68	412.515
2843.03	408.596
2842.38	435.512
2841.73	493.246
2841.08	408.406
2840.43	469.979
2839.78	435.241
2839.14	485.237
2838.49	450.507
2837.84	454.287
2837.19	454.217
2836.54	488.784
2835.89	423.29
2835.24	484.785
2834.59	450.087
2833.94	446.171
2833.29	457.638
2832.64	503.709
2831.99	465.185
2831.34	445.893
2830.69	476.57
2830.04	434.226
2829.39	484.106
2828.74	526.287
2828.08	483.956
2827.43	472.359
2826.78	430.049
2826.13	518.282
2825.48	495.17
2824.83	468.227
2824.18	525.714
2823.53	506.449
2822.87	448.828
2822.22	425.745
2821.57	494.707
2820.92	486.962
2820.27	429.38
2819.61	463.811
2818.96	494.399
2818.31	498.154
2817.66	471.257
2817	455.861
2816.35	547.714
2815.7	509.333
2815.05	463.306
2814.39	528.316
2813.74	524.406
2813.09	558.769
2812.43	524.242
2811.78	554.769
2811.13	485.825
2810.47	554.596
2809.82	478.025
2809.16	470.303
2808.51	554.336
2807.86	504.559
2807.2	535.054
2806.55	492.938
2805.89	492.861
2805.24	511.884
2804.58	527.082
2803.93	515.543
2803.28	542.191
2802.62	553.559
2801.97	542.021
2801.31	541.937
2800.66	595.274
2800	507.43
2799.34	484.463
2798.69	514.9
2798.03	568.209
2797.38	526.178
2796.72	503.222
2796.07	472.65
2795.41	560.232
2794.75	594.439
2794.1	586.726
2793.44	544.732
2792.79	537.03
2792.13	567.411
2791.47	567.323
2790.82	529.165
2790.16	513.857
2789.5	528.999
2788.84	585.994
2788.19	582.098
2787.53	555.379
2786.87	589.523
2786.22	619.853
2785.56	612.152
2784.9	574.041
2784.24	573.951
2783.59	596.664
2782.93	573.772
2782.27	596.477
2781.61	592.586
2780.95	600.089
2780.29	565.818
2779.64	584.714
2778.98	630.178
2778.32	527.597
2777.66	592.03
2777	614.705
2776.34	584.257
2775.68	603.133
2775.02	515.806
2774.36	546.063
2773.71	629.39
2773.05	572.428
2772.39	568.548
2771.73	541.931
2771.07	557.003
2770.41	583.436
2769.75	575.769
2769.09	613.552
2768.43	594.523
2767.77	594.43
2767.11	586.766
2766.45	605.599
2765.79	575.229
2765.12	571.355
2764.46	616.664
2763.8	593.872
2763.14	608.907
2762.48	616.375
2761.82	597.374
2761.16	642.644
2760.5	578.289
2759.83	631.105
2759.17	649.899
2758.51	608.241
2757.85	593.036
2757.19	585.39
2756.53	638.164
2755.86	596.533
2755.2	626.639
2754.54	675.608
2753.88	694.371
2753.21	618.799
2752.55	599.839
2751.89	660.097
2751.23	622.28
2750.56	678.744
2749.9	591.923
2749.24	580.521
2748.57	678.425
2747.91	595.413
2747.25	655.606
2746.58	602.761
2745.92	678
2745.25	643.999
2744.59	643.898
2743.93	643.798
2743.26	715.219
2742.6	707.579
2741.93	643.495
2741.27	665.969
2740.61	677.151
2739.94	635.67
2739.28	639.331
2738.61	624.19
2737.95	657.928
2737.28	582.645
2736.62	665.239
2735.95	680.166
2735.29	732.661
2734.62	646.143
2733.95	646.042
2733.29	642.185
2732.62	638.329
2731.96	687.035
2731.29	668.159
2730.62	690.572
2729.96	697.969
2729.29	709.116
2728.63	705.253
2727.96	671.385
2727.29	660.03
2726.63	663.676
2725.96	659.823
2725.29	674.713
2724.62	682.102
2723.96	689.49
2723.29	659.408
2722.62	726.734
2721.96	722.874
2721.29	692.802
2720.62	666.483
2719.95	718.79
2719.28	778.567
2718.62	752.247
2717.95	643.613
2717.28	688.408
2716.61	639.67
2715.94	744.295
2715.27	695.563
2714.61	699.193
2713.94	699.083
2713.27	698.973
2712.6	736.236
2711.93	728.647
2711.26	665.019
2710.59	743.36
2709.92	705.894
2709.25	713.252
2708.58	716.874
2707.91	701.828
2707.24	731.578
2706.57	701.608
2705.9	723.886
2705.23	727.503
2704.56	719.928
2703.89	727.274
2703.22	742.076
2702.55	771.787
2701.88	704.564
2701.21	741.726
2700.54	797.51
2699.87	726.588
2699.2	782.357
2698.53	785.959
2697.86	748.592
2697.19	748.474
2696.51	789.311
2695.84	751.961
2695.17	755.565
2694.5	725.675
2693.83	714.398
2693.15	721.726
2692.48	736.491
2691.81	803.319
2691.14	751.133
2690.47	769.605
2689.79	799.222
2689.12	776.796
2688.45	854.713
2687.77	787.698
2687.1	746.71
2686.43	780.022
2685.76	794.754
2685.08	783.489
2684.41	794.504
2683.74	731.274
2683.06	768.273
2682.39	734.754
2681.71	805.134
2681.04	808.717
2680.37	738.117
2679.69	808.463
2679.02	808.335
2678.34	848.989
2677.67	819.201
2676.99	778.304
2676.32	793.004
2675.65	803.994
2674.97	803.867
2674.3	777.813
2673.62	777.691
2672.95	781.271
2672.27	881.105
2671.59	851.354
2670.92	751.294
2670.24	802.981
2669.57	847.252
2668.89	850.817
2668.22	824.793
2667.54	776.588
2666.86	817.138
2666.19	842.887
2665.51	787.31
2664.83	794.577
2664.16	860.964
2663.48	860.829
2662.8	849.611
2662.13	856.864
2661.45	830.879
2660.77	804.902
2660.1	823.234
2659.42	874.779
2658.74	856.188
2658.06	811.775
2657.39	841.161
2656.71	756.188
2656.03	807.702
2655.35	859.201
2654.68	848.004
2654	847.87
2653.32	829.307
2652.64	821.806
2651.96	869.577
2651.28	873.124
2650.6	858.252
2649.93	909.677
2649.25	927.945
2648.57	843.118
2647.89	916.608
2647.21	846.533
2646.53	850.079
2645.85	894.098
2645.17	919.708
2644.49	845.998
2643.81	812.766
2643.13	926.627
2642.45	875.009
2641.77	874.871
2641.09	874.733
2640.41	911.343
2639.73	914.873
2639.05	925.749
2638.37	874.18
2637.69	859.352
2637.01	884.92
2636.33	895.794
2635.65	921.347
2634.96	888.17
2634.28	921.056
2633.6	865.876
2632.92	924.433
2632.24	887.609
2631.56	891.136
2630.88	876.328
2630.19	901.852
2629.51	927.368
2628.83	967.535
2628.15	853.788
2627.46	941.583
2626.78	967.077
2626.1	886.347
2625.42	970.433
2624.73	944.649
2624.05	970.126
2623.37	929.709
2622.69	925.902
2622	925.756
2621.32	852.439
2620.64	914.489
2619.95	918.002
2619.27	976.365
2618.58	961.586
2617.9	987.023
2617.22	968.592
2616.53	906.312
2615.85	913.477
2615.16	949.865
2614.48	975.284
2613.79	956.869
2613.11	960.369
2612.43	956.566
2611.74	945.463
2611.06	938.014
2610.37	905.022
2609.69	934.068
2609	974.049
2608.31	1043.2
2607.63	933.624
2606.94	977.233
2606.26	918.745
2605.57	1035.25
2604.89	987.703
2604.2	983.902
2603.51	1045.69
2602.83	1034.59
2602.14	1089.06
2601.45	921.368
2600.77	1052.31
2600.08	1001.17
2599.39	971.891
2598.71	902.587
2598.02	1066.19
2597.33	960.514
2596.65	964
2595.96	1018.4
2595.27	992.787
2594.58	1065.35
2593.9	1007.01
2593.21	999.584
2592.52	1013.96
2591.83	995.633
2591.14	977.31
2590.46	998.95
2589.77	1038.74
2589.08	1060.37
2588.39	1013
2587.7	1027.36
2587.01	950.972
2586.32	1012.52
2585.64	1070.41
2584.95	997.683
2584.26	1008.41
2583.57	1080.78
2582.88	1087.86
2582.19	1040.56
2581.5	1022.27
2580.81	1072.85
2580.12	1054.56
2579.43	1025.4
2578.74	1043.35
2578.05	1104.77
2577.36	985.078
2576.67	981.3
2575.98	1042.69
2575.29	995.468
2574.6	973.594
2573.91	1114.57
2573.22	1052.88
2572.52	1063.57
2571.83	1070.63
2571.14	1084.93
2570.45	1124.53
2569.76	1124.35
2569.07	1015.73
2568.38	1073.4
2567.68	1138.27
2566.99	1011.64
2566.3	1155.97
2565.61	1029.37
2564.92	1014.77
2564.22	1075.99
2563.53	1097.48
2562.84	1097.3
2562.14	1107.95
2561.45	1129.43
2560.76	1118.43
2560.07	1085.78
2559.37	1096.43
2558.68	1182.8
2557.99	1067.24
2557.29	1103.12
2556.6	1142.59
2555.91	1070.33
2555.21	1135.02
2554.52	1095.21
2553.82	1134.66
2553.13	1127.28
2552.44	1083.88
2551.74	1162.92
2551.05	1119.54
2550.35	1184.15
2549.66	1050.81
2548.96	1061.43
2548.27	1158.4
2547.57	1154.62
2546.88	1093.29
2546.18	1197.4
2545.49	1118.11
2544.79	1189.83
2544.1	1146.51
2543.4	1218.2
2542.7	1059.91
2542.01	1203.44
2541.31	1156.56
2540.62	1109.69
2539.92	1141.82
2539.22	1170.36
2538.53	1101.98
2537.83	1209.47
2537.13	1126.74
2536.44	1176.79
2535.74	1223.24
2535.04	1223.04
2534.35	1258.71
2533.65	1154.53
2532.95	1132.84
2532.25	1276.03
2531.56	1229.24
2530.86	1236.21
2530.16	1157.19
2529.46	1167.76
2528.76	1221.29
2528.07	1185.29
2527.37	1278.19
2526.67	1170.59
2525.97	1120.29
2525.27	1195.27
2524.57	1191.5
2523.88	1244.97
2523.18	1219.73
2522.48	1190.93
2521.78	1344.5
2521.08	1258.48
2520.38	1261.85
2519.68	1225.91
2518.98	1290.04
2518.28	1168.35
2517.58	1221.75
2516.88	1225.13
2516.18	1210.65
2515.48	1267.59
2514.78	1188.84
2514.08	1238.62
2513.38	1163.48
2512.68	1213.25
2511.98	1202.35
2511.28	1227.13
2510.58	1219.8
2509.88	1237.44
2509.17	1351.34
2508.47	1329.73
2507.77	1219.02
2507.07	1215.27
2506.37	1264.96
2505.67	1254.07
2504.97	1260.99
2504.26	1257.23
2503.56	1278.39
2502.86	1178.5
2502.16	1206.79
2501.45	1277.78
2500.75	1313.16
2500.05	1248.91
2499.35	1294.96
2498.64	1291.19
2497.94	1226.97
2497.24	1340.56
2496.53	1294.13
2495.83	1322.36
2495.13	1304.38
2494.42	1289.96
2493.72	1279.09
2493.02	1296.65
2492.31	1310.65
2491.61	1239.41
2490.9	1232.11
2490.2	1423.63
2489.5	1274.31
2488.79	1288.31
2488.09	1369.72
2487.38	1287.9
2486.68	1319.62
2485.97	1315.86
2485.27	1354.66
2484.56	1297.71
2483.86	1379.04
2483.15	1361.09
2482.45	1314.81
2481.74	1339.4
2481.04	1310.84
2480.33	1292.92
2479.62	1331.67
2478.92	1402.28
2478.21	1356.03
2477.51	1327.49
2476.8	1348.52
2476.09	1458.01
2475.39	1365.78
2474.68	1468.15
2473.97	1411.32
2473.27	1453.54
2472.56	1326.01
2471.85	1385.9
2471.14	1424.56
2470.44	1367.78
2469.73	1311.02
2469.02	1346.14
2468.31	1388.32
2467.61	1434.01
2466.9	1409.06
2466.19	1366.47
2465.48	1383.9
2464.77	1426.04
2464.07	1334.05
2463.36	1432.64
2462.65	1361.85
2461.94	1336.93
2461.23	1343.77
2460.52	1308.29
2459.81	1389.18
2459.1	1403.06
2458.4	1335.86
2457.69	1434.33
2456.98	1384.77
2456.27	1504.33
2455.56	1451.25
2454.85	1479.19
2454.14	1475.43
2453.43	1411.82
2452.72	1489.04
2452.01	1383.21
2451.3	1474.49
2450.59	1329.99
2449.88	1428.28
2449.16	1375.29
2448.45	1529.81
2447.74	1536.6
2447.03	1430.88
2446.32	1497.44
2445.61	1444.48
2444.9	1489.93
2444.19	1447.53
2443.47	1370.01
2442.76	1531.36
2442.05	1485.46
2441.34	1569.49
2440.63	1463.92
2439.91	1481.24
2439.2	1491.53
2438.49	1529.88
2437.78	1410.36
2437.06	1469.76
2436.35	1539.67
2435.64	1493.84
2434.93	1528.66
2434.21	1468.82
2433.5	1514.15
2432.79	1545.44
2432.07	1513.66
2431.36	1551.95
2430.64	1485.15
2429.93	1502.42
2429.22	1474.17
2428.5	1508.94
2427.79	1410.69
2427.07	1427.96
2426.36	1550.21
2425.65	1431
2424.93	1644.16
2424.22	1500.49
2423.5	1531.73
2422.79	1527.98
2422.07	1485.79
2421.36	1565.94
2420.64	1607.63
2419.92	1607.37
2419.21	1586.15
2418.49	1523.02
2417.78	1554.21
2417.06	1539.99
2416.35	1567.67
2415.63	1501.09
2414.91	1532.26
2414.2	1682.08
2413.48	1500.37
2412.76	1664.09
2412.05	1608.02
2411.33	1555.44
2410.61	1607.5
2409.9	1614.21
2409.18	1600.01
2408.46	1693.86
2407.74	1613.43
2407.03	1491.23
2406.31	1675.62
2405.59	1508.16
2404.87	1619.36
2404.16	1556.43
2403.44	1594.47
2402.72	1618.58
2402	1621.8
2401.28	1607.62
2400.56	1579.53
2399.85	1624.49
2399.13	1655.53
2398.41	1749.16
2397.69	1686.29
2396.97	1553.92
2396.25	1633.61
2395.53	1612.5
2394.81	1650.46
2394.09	1591.14
2393.37	1649.93
2392.65	1642.72
2391.93	1684.12
2391.21	1638.72
2390.49	1638.45
2389.77	1620.83
2389.05	1651.8
2388.33	1651.54
2387.61	1720.65
2386.89	1647.54
2386.17	1643.8
2385.45	1636.6
2384.73	1705.68
2384	1695
2383.28	1729.39
2382.56	1708.32
2381.84	1711.51
2381.12	1603.85
2380.4	1690.17
2379.67	1721.07
2378.95	1641.16
2378.23	1668.58
2377.51	1716.77
2376.79	1733.8
2376.06	1678.16
2375.34	1702.1
2374.62	1726.04
2373.9	1691.18
2373.17	1680.53
2372.45	1794.35
2371.73	1728.39
2371	1759.21
2370.28	1738.19
2369.56	1755.19
2368.83	1741.09
2368.11	1723.54
2367.38	1692.18
2366.66	1757.51
2365.94	1850.44
2365.21	1701.71
2364.49	1763.56
2363.76	1756.37
2363.04	1704.34
2362.31	1773.05
2361.59	1796.91
2360.86	1755.24
2360.14	1744.61
2359.41	1796.04
2358.69	1775.07
2357.96	1816.14
2357.24	1771.05
2356.51	1805.22
2355.79	1808.37
2355.06	1825.3
2354.33	1714.81
2353.61	1766.18
2352.88	1752.12
2352.15	1793.14
2351.43	1841.03
2350.7	1771.92
2349.98	1799.15
2349.25	1771.34
2348.52	1881.1
2347.79	1908.31
2347.07	1797.99
2346.34	1873.32
2345.61	1859.27
2344.88	1883.02
2344.16	1838.05
2343.43	1906.46
2342.7	1730.99
2341.97	1923.01
2341.25	1919.26
2340.52	1891.49
2339.79	1874.02
2339.06	1914.9
2338.33	1935.18
2337.6	1903.99
2336.87	1793.92
2336.14	1872.51
2335.42	1817.34
2334.69	1919.9
2333.96	1964.15
2333.23	1864.44
2332.5	1908.69
2331.77	1973.48
2331.04	1866.96
2330.31	1955.71
2329.58	1838.96
2328.85	1842.09
2328.12	1927.37
2327.39	1920.22
2326.66	1950.71
2325.93	1950.39
2325.2	1943.23
2324.47	1891.61
2323.73	1925.5
2323	1867.06
2322.27	1846.24
2321.54	1886.96
2320.81	1903.75
2320.08	1882.93
2319.35	1933.88
2318.61	1895.99
2317.88	1974.24
2317.15	1980.75
2316.42	1942.87
2315.69	1884.52
2314.95	1925.17
2314.22	2006.77
2313.49	1951.85
2312.76	1978.83
2312.02	1893.22
2311.29	1998.65
2310.56	1994.91
2309.82	2021.87
2309.09	2116.99
2308.36	2000.76
2307.62	2000.44
2306.89	2013.74
2306.16	2033.85
2305.42	2105.06
2304.69	2016.17
2303.95	1974.98
2303.22	2042.75
2302.48	2059.44
2301.75	2042.09
2301.02	2082.59
2300.28	2004
2299.55	1976.46
2298.81	1979.54
2298.08	1986.02
2297.34	2162.5
2296.6	2015.97
2295.87	2042.83
2295.13	2035.71
2294.4	2045.57
2293.66	2153.95
2292.93	2021.13
2292.19	2132.88
2291.45	2044.24
2290.72	2159.35
2289.98	1992.66
2289.24	2138.28
2288.51	2114.18
2287.77	2147.76
2287.03	2106.71
2286.3	2052.09
2285.56	2160.28
2284.82	2129.41
2284.08	2034.14
2283.35	2166.01
2282.61	2141.93
2281.87	2053.48
2281.13	2202.22
2280.4	2018.94
2279.66	2066.03
2278.92	2160.51
2278.18	2244.81
2277.44	2122.57
2276.7	2118.84
2275.97	2104.96
2275.23	2050.48
2274.49	2124.57
2273.75	2141.14
2273.01	2205.05
2272.27	2201.31
2271.53	2106.29
2270.79	2075.52
2270.05	2149.54
2269.31	2240.43
2268.57	2189.38
2267.83	2128.22
2267.09	2151.52
2266.35	2087
2265.61	2187.96
2264.87	2238.24
2264.13	2150.12
2263.39	2200.39
2262.65	2213.53
2261.91	2196.3
2261.17	2118.36
2260.42	2276.53
2259.68	2249.18
2258.94	2134.18
2258.2	2116.98
2257.46	2096.41
2256.72	2281.41
2255.97	2136.16
2255.23	2189.71
2254.49	2239.88
2253.75	2313.61
2253	2255.99
2252.26	2195.02
2251.52	2282.18
2250.78	2288.54
2250.03	2311.72
2249.29	2173.4
2248.55	2331.15
2247.8	2266.87
2247.06	2229.51
2246.32	2316.56
2245.57	2302.74
2244.83	2319.17
2244.09	2281.82
2243.34	2372.17
2242.6	2314.67
2241.85	2394.91
2241.11	2280.34
2240.36	2370.63
2239.62	2400.45
2238.88	2299.36
2238.13	2235.22
2237.39	2288.54
2236.64	2385.47
2235.89	2328.05
2235.15	2401.46
2234.4	2364.18
2233.66	2393.97
2232.91	2396.93
2232.17	2332.86
2231.42	2365.99
2230.67	2305.29
2229.93	2428.87
2229.18	2341.38
2228.44	2257.27
2227.69	2360.71
2226.94	2340.24
2226.2	2349.9
2225.45	2372.94
2224.7	2339.09
2223.95	2372.17
2223.21	2405.23
2222.46	2404.84
2221.71	2411.14
2220.96	2383.99
2220.22	2503.95
2219.47	2450.06
2218.72	2469.72
2217.97	2339
2217.22	2372.02
2216.48	2431.76
2215.73	2377.93
2214.98	2451
2214.23	2473.97
2213.48	2466.89
2212.73	2473.16
2211.98	2432.72
2211.23	2472.36
2210.48	2378.55
2209.73	2601.63
2208.98	2487.82
2208.23	2490.75
2207.48	2463.67
2206.73	2373.27
2205.98	2626.17
2205.23	2459.13
2204.48	2462.06
2203.73	2538.27
2202.98	2454.59
2202.23	2520.79
2201.48	2557
2200.73	2603.19
2199.98	2516.22
2199.23	2459.24
2198.48	2462.16
2197.72	2624.77
2196.97	2504.6
2196.22	2450.98
2195.47	2560.31
2194.72	2423.58
2193.97	2499.64
2193.21	2535.78
2192.46	2588.54
2191.71	2475.15
2190.96	2587.69
2190.2	2783.22
2189.45	2553.63
2188.7	2543.26
2187.94	2632.47
2187.19	2532.47
2186.44	2525.41
2185.68	2534.95
2184.93	2624.11
2184.18	2686.7
2183.42	2603.35
2182.67	2583.03
2181.91	2556.09
2181.16	2558.98
2180.41	2671.24
2179.65	2627.73
2178.9	2557.72
2178.14	2620.24
2177.39	2686.05
2176.63	2602.83
2175.88	2529.56
2175.12	2621.84
2174.37	2687.6
2173.61	2680.54
2172.86	2676.8
2172.1	2659.82
2171.34	2662.69
2170.59	2615.95
2169.83	2737.87
2169.08	2691.13
2168.32	2594.83
2167.56	2663.81
2166.81	2660.07
2166.05	2636.51
2165.29	2679.02
2164.54	2632.34
2163.78	2760.69
2163.02	2671.09
2162.27	2733.38
2161.51	2683.42
2160.75	2633.48
2159.99	2659.44
2159.23	2672.2
2158.48	2704.75
2157.72	2770.26
2156.96	2773.11
2156.2	2713.31
2155.44	2801.86
2154.69	2725.6
2153.93	2830.6
2153.17	2770.83
2152.41	2763.79
2151.65	2625
2150.89	2733.24
2150.13	2732.79
2149.37	2768.56
2148.61	2860.26
2147.85	2830.17
2147.09	2800.1
2146.33	2691.07
2145.57	2891.28
2144.81	2854.62
2144.05	2771.95
2143.29	2755.06
2142.53	2748.03
2141.77	2856.03
2141.01	2829.28
2140.25	2881.38
2139.49	2759.36
2138.73	2808.18
2137.97	2850.4
2137.2	2761.29
2136.44	2931.54
2135.68	2904.8
2134.92	2763.21
2134.16	2949.78
2133.4	2827.91
2132.63	2827.44
2131.87	2764.67
2131.11	2885.54
2130.35	2822.77
2129.58	2828.86
2128.82	2772.68
2128.06	2959.01
2127.29	2935.59
2126.53	2944.93
2125.77	2918.24
2125	2927.59
2124.24	2920.56
2123.48	2864.42
2122.71	2978.51
2121.95	2909.3
2121.19	2830.29
2120.42	3016.3
2119.66	2822.82
2118.89	2989.14
2118.13	2910.17
2117.36	2978.35
2116.6	2837.3
2115.83	3000.25
2115.07	2960.54
2114.3	2920.85
2113.54	2904.03
2112.77	2906.82
2112.01	2978.18
2111.24	2987.49
2110.48	2928.24
2109.71	3110.53
2108.94	2920.74
2108.18	3054.04
2107.41	3014.39
2106.64	3036.72
2105.88	3104.71
2105.11	3065.07
2104.34	2983.06
2103.58	2963.01
2102.81	3014.67
2102.04	3111.93
2101.28	3023.45
2100.51	3120.67
2099.74	3028.96
2098.97	3074.05
2098.21	2992.15
2097.44	3066.53
2096.67	3127.87
2095.9	2945.11
2095.13	3178.89
2094.36	3149.09
2093.6	3011.96
2092.83	3115.53
2092.06	3053.24
2091.29	3124.26
2090.52	3107.49
2089.75	3084.23
2088.98	3090.21
2088.21	3161.18
2087.44	3079.45
2086.67	3056.21
2085.9	3185.59
2085.13	3207.8
2084.36	3223.5
2083.59	3089.89
2082.82	3144.55
2082.05	3118.07
2081.28	3224.61
2080.51	3117.04
2079.74	3045.18
2078.97	3235.99
2078.2	3070.11
2077.43	3286.78
2076.65	3185.77
2075.88	3133.4
2075.11	3100.48
2074.34	3216.58
2073.57	3099.46
2072.8	3199.33
2072.02	3273.27
2071.25	3214.46
2070.48	3191.27
2069.71	3236.05
2068.93	3293.75
2068.16	3205.86
2067.39	3302.37
2066.61	3288.88
2065.84	3294.81
2065.07	3229.61
2064.29	3284.02
2063.52	3312.56
2062.75	3363.72
2061.97	3311.47
2061.2	3226.94
2060.43	3332.98
2059.65	3290.45
2058.88	3357.71
2058.1	3328.1
2057.33	3243.63
2056.55	3378.63
2055.78	3300.64
2055	3258.15
2054.23	3231.81
2053.45	3328.02
2052.68	3340.37
2051.9	3297.91
2051.13	3313.48
2050.35	3393.49
2049.57	3331.71
2048.8	3408.48
2048.02	3372.48
2047.25	3420.23
2046.47	3374.59
2045.69	3341.83
2044.92	3273.68
2044.14	3356.82
2043.36	3436.71
2042.59	3346.05
2041.81	3351.93
2041.03	3415.7
2040.25	3450.51
2039.48	3337.41
2038.7	3288.63
2037.92	3435.94
2037.14	3268.26
2036.37	3511.92
2035.59	3405.32
2034.81	3446.51
2034.03	3436.31
2033.25	3329.77
2032.47	3370.96
2031.69	3392.87
2030.92	3546.36
2030.14	3382.12
2029.36	3474.6
2028.58	3406.66
2027.8	3434.96
2027.02	3460.04
2026.24	3735.2
2025.46	3571.09
2024.68	3464.73
2023.9	3476.97
2023.12	3546.89
2022.34	3370.1
2021.56	3468.84
2020.78	3573.94
2020	3589.36
2019.21	3540.74
2018.43	3444.13
2017.65	3574.77
2016.87	3583.78
2016.09	3618.38
2015.31	3541.01
2014.53	3438.07
2013.74	3559.02
2012.96	3606.38
2012.18	3628.16
2011.4	3707.46
2010.62	3582.22
2009.83	3536.89
2009.05	3558.67
2008.27	3567.66
2007.49	3765.06
2006.7	3493.04
2005.92	3508.42
2005.14	3619.55
2004.35	3650.86
2003.57	3624.73
2002.79	3601.79
2002	3645.85
2001.22	3606.97
2000.43	3740.3
1999.65	3666.35
1998.87	3719.93
1998.08	3655.57
1997.3	3709.13
1996.51	3762.68
1995.73	3755.68
1994.94	3608.55
1994.16	3601.58
1993.37	3702.87
1992.59	3629.04
1991.8	3781.21
1991.02	3602.37
1990.23	3639.95
1989.44	3849.31
1988.66	3724.62
1987.87	3762.16
1987.09	3742.46
1986.3	3926.23
1985.51	3706.25
1984.73	3778.73
1983.94	3806.7
1983.15	3847.37
1982.37	3786.37
1981.58	3788.92
1980.79	3899.43
1980	3838.46
1979.22	3821.94
1978.43	3830.83
1977.64	3728.65
1976.85	3712.16
1976.06	3771.82
1975.28	3710.92
1974.49	3881.55
1973.7	3931.64
1972.91	3813.69
1972.12	3759.17
1971.33	3840.94
1970.54	3992.39
1969.76	3807.98
1968.97	3816.85
1968.18	3768.71
1967.39	3951.73
1966.6	3865.59
1965.81	3795.31
1965.02	3921.27
1964.23	3863.66
1963.44	3869.34
1962.65	3887.68
1961.86	3858.57
1961.07	3965.44
1960.28	3936.32
1959.48	3941.99
1958.69	3859.15
1957.9	3886.95
1957.11	4031.65
1956.32	3914.09
1955.53	4027.14
1954.74	4013.84
1953.94	4038.43
1953.15	3971.46
1952.36	3973.95
1951.57	3998.54
1950.78	3969.47
1949.98	3858.39
1949.19	4009.15
1948.4	4071.56
1947.61	3894.3
1946.81	3997.69
1946.02	3981.26
1945.23	3936.47
1944.43	4112.28
1943.64	4073.79
1942.85	4041.61
1942.05	3984.24
1941.26	3923.74
1940.46	3951.42
1939.67	3972.8
1938.88	4063.41
1938.08	4113.09
1937.29	3970.81
1936.49	4143.17
1935.7	4098.44
1934.9	3949.95
1934.11	3968.16
1933.31	4058.66
1932.52	4124
1931.72	4107.59
1930.93	4138.33
1930.13	4090.51
1929.33	4108.68
1928.54	4186.51
1927.74	4144.98
1926.95	4068.94
1926.15	4181.27
1925.35	4102.1
1924.56	4107.69
1923.76	4053.67
1922.96	4159.65
1922.17	4137
1921.37	4177.07
1920.57	4157.56
1919.77	4156.87
1918.98	4149.9
1918.18	4036.39
1917.38	4157.92
1916.58	4069.5
1915.78	4068.82
1914.99	4140.17
1914.19	4242.81
1913.39	4107.48
1912.59	4263.3
1911.79	4228.16
1910.99	4252.49
1910.19	4298.7
1909.39	4263.58
1908.59	4272.24
1907.8	4102.67
1907	4258.31
1906.2	4223.21
1905.4	4222.5
1904.6	4165.55
1903.8	4239.83
1903	4307.85
1902.2	4216.55
1901.39	4293.92
1900.59	4258.85
1899.79	4223.8
1898.99	4238.7
1898.19	4125.64
1897.39	4315.28
1896.59	4314.56
1895.79	4313.84
1894.99	4518.95
1894.18	4268.74
1893.38	4383.37
1892.58	4351.47
1891.78	4338.27
1890.98	4399.87
1890.17	4333.7
1889.37	4357.9
1888.57	4413.23
1887.76	4381.35
1886.96	4299.66
1886.16	4367.43
1885.36	4369.81
1884.55	4341.07
1883.75	4430.57
1882.94	4404.94
1882.14	4438.41
1881.34	4366.14
1880.53	4421.38
1879.73	4445.51
1878.92	4401.25
1878.12	4434.69
1877.32	4480.55
1876.51	4405.24
1875.71	4538.07
1874.9	4295.07
1874.1	4455.81
1873.29	4467.48
1872.49	4426.38
1871.68	4602.54
1870.87	4443.51
1870.07	4607.2
1869.26	4572.3
1868.46	4512.61
1867.65	4468.44
1866.84	4517.29
1866.04	4525.83
1865.23	4478.58
1864.42	4406.56
1863.62	4607.21
1862.81	4417.47
1862	4571.59
1861.2	4502.69
1860.39	4542.19
1859.58	4544.52
1858.77	4667.57
1857.96	4570.85
1857.16	4489.63
1856.35	4538.37
1855.54	4580.91
1854.73	4493.55
1853.92	4644.31
1853.12	4439.48
1852.31	4624.2
1851.5	4675.96
1850.69	4523.77
1849.88	4649.67
1849.07	4553.13
1848.26	4614.14
1847.45	4739.97
1846.64	4553.92
1845.83	4580.94
1845.02	4648.07
1844.21	4594.83
1843.4	4649.59
1842.59	4556.27
1841.78	4546.25
1840.97	4770.6
1840.16	4590.96
1839.35	4701.17
1838.54	4762.02
1837.72	4656.44
1836.91	4701.88
1836.1	4679.52
1835.29	4586.33
1834.48	4693.34
1833.67	4689.48
1832.85	4824.14
1832.04	4730.99
1831.23	4859.45
1830.42	4754.01
1829.6	4793.21
1828.79	4792.4
1827.98	4723.93
1827.17	4756.96
1826.35	4682.37
1825.54	4730.77
1824.73	4895.93
1823.91	4723.03
1823.1	4826.69
1822.29	4835.09
1821.47	4732.92
1820.66	4879.53
1819.84	4768.17
1819.03	4831.83
1818.21	4849.44
1817.4	4765.76
1816.58	4694.39
1815.77	4874.59
1814.95	4781.75
1814.14	4759.48
1813.32	4875.19
1812.51	4966.34
1811.69	4867.42
1810.88	4857.4
1810.06	4779.98
1809.25	4819
1808.43	4775.31
1807.61	4939.88
1806.8	4948.23
1805.98	4846.37
1805.16	4845.55
1804.35	4905.94
1803.53	4843.91
1802.71	4836.98
1801.89	4903.46
1801.08	5138.13
1800.26	4904.86
1799.44	4986.58
1798.62	4961.28
1797.81	4987.95
1796.99	4837.38
1796.17	4900.72
1795.35	4951.82
1794.53	4911.28
1793.71	4971.53
1792.9	4955.42
1792.08	4878.27
1791.26	4926.28
1790.44	4952.91
1789.62	5034.46
1788.8	4765.15
1787.98	5066.31
1787.16	4894.67
1786.34	5037.15
1785.52	4993.62
1784.7	5020.21
1783.88	5144.31
1783.06	4954.52
1782.24	5017.66
1781.42	5038.14
1780.6	4930.69
1779.78	4862.87
1778.95	5139.1
1778.13	5065.17
1777.31	5070.4
1776.49	5072.59
1775.67	5135.62
1774.85	5028.29
1774.02	5015.27
1773.2	5099.57
1772.38	5086.54
1771.56	5240.71
1770.74	5148.65
1769.91	5199.44
1769.09	5064.87
1768.27	5015.41
1767.44	5142.13
1766.62	5150.37
1765.8	5146.46
1764.97	5145.59
1764.15	5178.1
1763.33	5277.37
1762.5	5224.9
1761.68	5281.65
1760.85	5135.17
1760.03	5228.31
1759.21	5212.26
1758.38	5114.37
1757.56	5292.34
1756.73	5203.55
1755.91	5129.95
1755.08	5226.03
1754.26	5273.61
1753.43	5142.49
1752.6	5302.1
1751.78	5234.6
1750.95	5312.41
1750.13	5529.42
1749.3	5386.26
1748.47	5409.55
1747.65	5372.34
1746.82	5513.57
1745.99	5430.99
1745.17	5572.17
1744.34	5462.4
1743.51	5591.44
1742.69	5502.86
1741.86	5568.4
1741.03	5676.2
1740.2	5898.75
1739.38	6036.66
1738.55	5872.59
1737.72	6221.78
1736.89	6033.59
1736.06	6237.77
1735.23	6357.41
1734.4	6244.71
1733.58	6445.74
1732.75	6435.59
1731.92	6621.45
1731.09	6541.94
1730.26	6812.11
1729.43	6729.58
1728.6	6854.99
1727.77	6962.29
1726.94	7033.4
1726.11	6860.54
1725.28	7196.62
1724.45	7207.44
1723.62	7146.01
1722.79	7084.61
1721.96	6969.06
1721.13	6952.83
1720.3	6747.1
1719.46	6691.82
1718.63	6447.11
1717.8	6659.48
1716.97	6288.61
1716.14	6518.97
1715.31	6205.34
1714.47	5984.96
1713.64	6143.15
1712.81	5967.9
1711.98	6053.98
1711.14	5860.79
1710.31	6015.89
1709.48	5867.8
1708.65	5734.76
1707.81	5838.8
1706.98	5750.81
1706.15	5737.84
1705.31	5631.9
1704.48	5564.98
1703.64	5576.02
1702.81	5479.16
1701.98	5741.95
1701.14	5537.22
1700.31	5470.37
1699.47	5610.22
1698.64	5651.19
1697.8	5551.42
1696.97	5535.51
1696.13	5576.47
1695.3	5530.63
1694.46	5502.76
1693.63	5591.57
1692.79	5563.7
1691.95	5431.16
1691.12	5531.91
1690.28	5692.41
1689.45	5524.04
1688.61	5591.84
1687.77	5540.09
1686.94	5625.79
1686.1	5690.55
1685.26	5480.52
1684.42	5467.64
1683.59	5732.43
1682.75	5447.86
1681.91	5620.04
1681.07	5592.23
1680.24	5516.69
1679.4	5596.29
1678.56	5604.28
1677.72	5558.6
1676.88	5667.97
1676.04	5661.04
1675.21	5543.83
1674.37	5694.87
1673.53	5762.43
1672.69	5621.43
1671.85	5659.19
1671.01	5682.05
1670.17	5684.06
1669.33	5501.5
1668.49	5664.27
1667.65	5562.12
1666.81	5519.51
1665.97	5697.07
1665.13	5716.92
1664.29	5724.86
1663.45	5714.97
1662.61	5615.88
1661.77	5837.86
1660.92	5685.29
1660.08	5621.92
1659.24	5594.23
1658.4	5721
1657.56	5633.9
1656.72	5716.08
1655.87	5795.26
1655.03	5880.35
1654.19	5689.41
1653.35	5721.08
1652.5	5731.97
1651.66	5769.55
1650.82	5691.45
1649.98	5628.21
1649.13	5911.87
1648.29	5854.54
1647.45	5797.23
1646.6	5870.32
1645.76	5836.73
1644.91	5711.31
1644.07	5772.53
1643.23	5878.15
1642.38	5838.66
1641.54	5793.26
1640.69	5721.23
1639.85	5965.87
1639	5893.84
1638.16	5987.5
1637.31	5950.98
1636.47	5781.4
1635.62	5993.3
1634.78	5903.59
1633.93	5946.91
1633.08	5981.36
1632.24	5962.61
1631.39	5929.09
1630.55	5871.96
1629.7	5921.16
1628.85	6162.27
1628.01	6043.12
1627.16	6062.75
1626.31	6203.37
1625.46	6087.23
1624.62	6092.09
1623.77	6303.43
1622.92	6305.3
1622.07	6374.98
1621.23	6409.27
1620.38	6661.67
1619.53	6813.78
1618.68	7063.08
1617.83	7656.99
1616.98	8035.66
1616.13	8434.82
1615.29	8813.23
1614.44	9144.41
1613.59	9643.26
1612.74	9706.35
1611.89	9531.08
1611.04	8973.39
1610.19	8774.76
1609.34	8517.39
1608.49	8230.69
1607.64	7967.61
1606.79	7657.59
1605.94	7368.25
1605.09	7178.92
1604.24	7024.91
1603.38	6838.64
1602.53	6781.66
1601.68	6680.66
1600.83	6532.71
1599.98	6393.62
1599.13	6389.59
1598.27	6470.66
1597.42	6284.71
1596.57	6298.3
1595.72	6364.68
1594.87	6287.34
1594.01	6215.89
1593.16	6326.22
1592.31	6172.72
1591.45	6136.5
1590.6	6117.87
1589.75	6213.49
1588.89	6089.41
1588.04	6228.93
1587.19	6145.88
1586.33	6153.6
1585.48	6044.25
1584.62	6169.05
1583.77	6112.4
1582.92	6228.37
1582.06	6250.7
1581.21	5986.42
1580.35	6122.82
1579.5	6194.86
1578.64	6024.26
1577.78	6221.95
1576.93	6203.35
1576.07	6292.85
1575.22	6055.17
1574.36	6097.94
1573.51	6237.05
1572.65	6081.25
1571.79	6156.1
1570.94	6125.85
1570.08	6110.21
1569.22	6088.74
1568.37	6151.87
1567.51	6104.14
1566.65	6100.18
1565.79	6128.29
1564.94	6185.53
1564.08	6053.32
1563.22	6055.19
1562.36	6208.56
1561.5	6224.97
1560.65	6270.5
1559.79	6359.69
1558.93	6178.09
1558.07	6112.99
1557.21	6225.44
1556.35	6177.81
1555.49	6153.47
1554.63	6236.77
1553.77	6235.7
1552.91	6284.06
1552.05	6050.39
1551.19	6215.04
1550.33	6254.66
1549.47	6265.21
1548.61	6171.16
1547.75	6210.76
1546.89	6203.88
1546.03	6339.3
1545.17	6129.16
1544.31	6241.32
1543.45	6156.08
1542.58	6358.15
1541.72	6272.91
1540.86	6338.56
1540	6250.45
1539.14	6266.77
1538.28	6172.91
1537.41	6244.32
1536.55	6385.27
1535.69	6352.29
1534.82	6252.69
1533.96	6283.47
1533.1	6236.05
1532.24	6342.12
1531.37	6335.24
1530.51	6357.31
1529.64	6388.05
1528.78	6407.21
1527.92	6403.21
1527.05	6315.32
1526.19	6334.47
1525.32	6399.9
1524.46	6202.17
1523.59	6409.25
1522.73	6344.56
1521.86	6245.2
1521	6327.92
1520.13	6234.38
1519.27	6285.3
1518.4	6411.29
1517.54	6335.11
1516.67	6331.13
1515.8	6358.9
1514.94	6383.77
1514.07	6489.44
1513.21	6372.92
1512.34	6498.73
1511.47	6321.69
1510.6	6277.34
1509.74	6152.29
1508.87	6373.18
1508	6475.83
1507.14	6492
1506.27	6387.17
1505.4	6386.06
1504.53	6235.2
1503.66	6314.75
1502.8	6368.36
1501.93	6324.08
1501.06	6389.18
1500.19	6477.28
1499.32	6292.04
1498.45	6276.57
1497.58	6407.78
1496.71	6357.79
1495.84	6399.81
1494.97	6306.72
1494.1	6386.1
1493.23	6407.99
1492.36	6404.01
1491.49	6437.37
1490.62	6384.56
1489.75	6504.06
1488.88	6646.49
1488.01	6386.99
1487.14	6500.69
1486.27	6473.74
1485.4	6458.27
1484.52	6612.06
1483.65	6504.8
1482.78	6492.2
1481.91	6602.89
1481.04	6610.35
1480.17	6411.45
1479.29	6536.42
1478.42	6632.71
1477.55	6602.91
1476.67	6538.76
1475.8	6526.17
1474.93	6459.19
1474.06	6566.85
1473.18	6537.09
1472.31	6553.13
1471.43	6552
1470.56	6499.37
1469.69	6684.16
1468.81	6657.26
1467.94	6650.39
1467.06	6554.9
1466.19	6673.81
1465.31	6606.93
1464.44	6588.64
1463.56	6718.9
1462.69	6703.46
1461.81	6785.11
1460.94	6592.64
1460.06	6805.6
1459.19	6847.23
1458.31	6771.85
1457.43	6685.08
1456.56	6598.34
1455.68	6637.13
1454.8	6675.9
1453.93	6760.28
1453.05	6642.23
1452.17	6737.98
1451.3	6802.36
1450.42	6795.48
1449.54	6683.2
1448.66	6719.07
1447.78	6712.21
1446.91	6628.47
1446.03	6650.1
1445.15	6657.48
1444.27	6562.41
1443.39	6632.41
1442.51	6796.26
1441.64	6723.97
1440.76	6617.58
1439.88	6619.27
1439	6697.72
1438.12	6705.09
1437.24	6763.6
1436.36	6734.02
1435.48	6613.53
1434.6	6703.27
1433.72	6846.94
1432.84	6797.49
1431.96	6651.52
1431.08	6681.59
1430.2	6740.02
1429.31	6775.74
1428.43	6604.35
1427.55	6705.31
1426.67	6704.15
1425.79	6751.18
1424.91	6659.29
1424.02	6785.68
1423.14	6807.18
1422.26	6582.15
1421.38	6742.49
1420.49	6769.64
1419.61	6734.48
1418.73	6775.78
1417.85	6802.91
1416.96	6878.15
1416.08	6964.69
1415.2	6904.06
1414.31	6798.18
1413.43	6995
1412.54	6790.16
1411.66	6805.94
1410.78	6895.23
1409.89	6684.86
1409.01	6779.78
1408.12	6925.53
1407.24	7000.61
1406.35	6892.05
1405.47	6840.02
1404.58	6655.29
1403.7	6834.82
1402.81	6861.85
1401.92	6787.28
1401.04	6718.38
1400.15	6728.5
1399.27	6696.3
1398.38	6793.84
1397.49	6770.1
1396.61	6802.75
1395.72	6843.84
1394.83	6758.11
1393.94	6785.11
1393.06	6752.93
1392.17	6855.98
1391.28	6666.09
1390.39	6783.19
1389.51	6779.2
1388.62	6789.27
1387.73	6779.65
1386.84	6688.43
1385.95	6881.38
1385.06	6818.3
1384.17	6848.04
1383.29	6813.11
1382.4	6772.56
1381.51	6855.71
1380.62	6902.29
1379.73	6721.25
1378.84	6770.65
1377.95	6727.33
1377.06	6790.75
1376.17	6668.83
1375.28	6864.19
1374.39	6871.41
1373.5	6828.11
1372.6	6762.39
1371.71	6873.42
1370.82	6605.75
1369.93	6848.59
1369.04	6850.2
1368.15	6840.59
1367.26	6895.46
1366.36	6832.6
1365.47	6856.63
1364.58	6805
1363.69	6764.6
1362.79	6906.25
1361.9	6826.64
1361.01	6752.65
1360.11	6849.44
1359.22	6786.68
1358.33	6950.58
1357.43	6823.48
1356.54	6749.56
1355.65	6857.45
1354.75	6803.12
1353.86	6843.87
1352.96	6923.73
1352.07	6799.56
1351.17	6820.72
1350.28	6760.86
1349.39	6971.97
1348.49	6867.42
1347.59	6880.18
1346.7	6677.97
1345.8	6713.09
1344.91	6837.5
1344.01	6830.72
1343.12	6885.32
1342.22	6953.85
1341.32	6813.19
1340.43	6800.85
1339.53	6950.21
1338.63	6792.9
1337.74	6814
1336.84	6893.62
1335.94	6956.49
1335.04	6841.07
1334.15	6839.87
1333.25	6660.47
1332.35	6856.96
1331.45	6836.28
1330.55	6899.09
1329.66	7042.58
1328.76	6896.68
1327.86	6759.17
1326.96	6944.32
1326.06	6881.93
1325.16	6814.01
1324.26	6779.46
1323.36	7075.64
1322.46	6849.33
1321.56	6889.8
1320.66	6938.59
1319.76	6895.72
1318.86	7036.12
1317.96	6907.18
1317.06	7039.21
1316.16	7179.51
1315.26	6892.45
1314.36	7021.63
1313.46	7214.57
1312.55	7091.28
1311.65	7259.18
1310.75	7149.78
1309.85	7181.79
1308.95	7274.76
1308.04	7337.21
1307.14	7100.45
1306.24	7312.48
1305.34	7363.82
1304.43	7395.75
1303.53	7256.03
1302.63	7382.09
1301.72	7499.79
1300.82	7310.32
1299.92	7408.63
1299.01	7451.59
1298.11	7486.23
1297.21	7363.26
1296.3	7610.77
1295.4	7587.33
1294.49	7663.37
1293.59	7753.21
1292.68	7854.07
1291.78	7885.83
1290.87	7696.66
1289.97	7974.18
1289.06	7870.64
1288.16	7885.82
1287.25	7848.56
1286.34	7789.23
1285.44	7820.97
1284.53	7943.72
1283.62	7876.14
1282.72	7753.43
1281.81	7956.07
1280.9	7781.03
1280	7658.4
1279.09	7643.28
1278.18	7559.29
1277.27	7533.18
1276.37	7493.3
1275.46	7563.57
1274.55	7496.17
1273.64	7370.99
1272.73	7179.81
1271.82	7426.18
1270.92	7226.81
1270.01	7313.55
1269.1	7194.01
1268.19	7080.02
1267.28	7188.73
1266.37	7025.31
1265.46	7227.43
1264.55	7083.28
1263.64	7145.22
1262.73	7267.56
1261.82	7030.11
1260.91	7103.01
1260	7099.01
1259.09	6930.34
1258.18	6890.7
1257.27	7095.27
1256.35	6992.52
1255.44	6914.49
1254.53	7006.51
1253.62	6988.82
1252.71	7110.95
1251.79	7032.96
1250.88	6974.17
1249.97	6926.37
1249.06	6958.02
1248.14	7126.6
1247.23	7002.12
1246.32	7009.1
1245.41	7059.88
1244.49	6858.83
1243.58	6852.15
1242.66	7012.37
1241.75	7022.08
1240.84	7042.72
1239.92	7186.41
1239.01	6854.32
1238.09	6891.38
1237.18	7032.29
1236.26	7009.19
1235.35	7092.65
1234.43	6930.23
1233.52	6836.15
1232.6	6905.94
1231.69	7041.23
1230.77	6851.64
1229.86	6883.18
1228.94	6843.77
1228.02	6973.52
1227.11	7010.48
1226.19	6949.24
1225.27	6983.46
1224.36	6927.7
1223.44	6912.85
1222.52	6930.71
1221.6	6981.26
1220.69	6941.88
1219.77	7049.62
1218.85	6898.58
1217.93	7058.02
1217.01	6961.48
1216.1	7052.8
1215.18	6975.36
1214.26	7020.38
1213.34	6970.17
1212.42	6930.86
1211.5	6940.51
1210.58	6939.29
1209.66	6834.75
1208.74	6896.06
1207.82	6946.48
1206.9	6986.01
1205.98	6897.84
1205.06	6874.89
1204.14	6884.54
1203.22	7054.39
1202.3	6857.67
1201.38	6859.18
1200.46	7031.65
1199.54	6883.88
1198.61	6983.05
1197.69	6935.7
1196.77	7086.34
1195.85	6976.63
1194.93	6983.53
1194	7185.58
1193.08	7000.03
1192.16	7069.24
1191.24	7024.64
1190.31	7188.63
1189.39	7024.87
1188.47	7064.24
1187.54	7149.62
1186.62	7156.47
1185.7	7249.92
1184.77	7029.48
1183.85	7152.67
1182.92	7132.47
1182	7147.44
1181.07	7165.1
1180.15	7169.24
1179.23	7251.76
1178.3	7077.52
1177.37	7097.88
1176.45	7139.85
1175.52	7143.98
1174.6	7113.01
1173.67	7109.05
1172.75	7213.08
1171.82	7155.12
1170.89	6900.19
1169.97	7222.73
1169.04	7143.22
1168.11	7025.98
1167.19	7027.43
1166.26	6953.39
1165.33	6927.9
1164.4	7104.55
1163.48	7167.97
1162.55	7088.56
1161.62	7025.35
1160.69	7102.21
1159.76	6931.3
1158.83	6897.76
1157.91	6953.07
1156.98	7264.04
1156.05	6988.28
1155.12	7124.25
1154.19	7050.36
1153.26	7164.75
1152.33	7093.57
1151.4	7116.51
1150.47	6943.21
1149.54	7097.85
1148.61	7061.66
1147.68	7132.95
1146.75	6989.32
1145.82	7138.47
1144.89	7139.89
1143.96	7076.88
1143.02	7209.83
1142.09	7114.62
1141.16	7086.52
1140.23	7224.77
1139.3	7156.43
1138.36	7168.57
1137.43	7172.66
1136.5	7174.06
1135.57	7078.97
1134.63	7187.59
1133.7	7084.5
1132.77	7112.71
1131.83	7181.08
1130.9	7273.54
1129.97	7424.87
1129.03	7246.86
1128.1	7448.99
1127.17	7276.4
1126.23	7181.46
1125.3	7362.09
1124.36	7379.51
1123.43	7354.13
1122.49	7323.41
1121.56	7380.92
1120.62	7470.48
1119.69	7501.22
1118.75	7441.1
1117.81	7565.33
1116.88	7483.86
1115.94	7423.78
1115.01	7483.87
1114.07	7525.25
1113.13	7286.37
1112.2	7434.51
1111.26	7537.24
1110.32	7407.85
1109.38	7353.19
1108.45	7397.22
1107.51	7414.56
1106.57	7493.21
1105.63	7345.29
1104.69	7351.98
1103.76	7465.23
1102.82	7336.04
1101.88	7566.44
1100.94	7415.98
1100	7558.42
1099.06	7604.99
1098.12	7619.61
1097.18	7573.01
1096.24	7590.29
1095.3	7626.17
1094.36	7678
1093.42	7729.82
1092.48	7723.12
1091.54	7517.07
1090.6	7685.82
1089.66	7477.19
1088.72	7606.04
1087.78	7432.03
1086.84	7534.28
1085.9	7278.03
1084.95	7255.49
1084.01	7190.5
1083.07	7377.63
1082.13	7299.37
1081.19	7226.44
1080.24	7185.37
1079.3	7125.74
1078.36	7347.19
1077.41	7141.76
1076.47	7198.79
1075.53	7221.36
1074.58	7312.81
1073.64	7149.91
1072.7	7201.6
1071.75	7115.58
1070.81	7193.74
1069.86	7171.27
1068.92	7336.74
1067.98	7237.52
1067.03	7140.97
1066.09	7166.15
1065.14	7196.61
1064.19	7137.15
1063.25	7268.07
1062.3	7227.12
1061.36	7133.33
1060.41	7153.19
1059.46	7151.91
1058.52	7190.26
1057.57	7162.56
1056.63	7171.84
1055.68	7445.14
1054.73	7177.2
1053.78	7223.42
1052.84	7227.41
1051.89	7075.74
1050.94	7243.29
1049.99	7120.68
1049.05	7061.4
1048.1	7220.95
1047.15	7103.68
1046.2	7181.47
1045.25	7259.23
1044.3	7139.39
1043.35	7335.66
1042.4	7060.46
1041.45	7309.34
1040.5	7247.48
1039.55	7269.87
1038.6	7379.1
1037.65	7240.96
1036.7	7242.29
1035.75	7201.54
1034.8	7271.26
1033.85	7206.85
1032.9	7386.95
1031.95	7172.73
1031	7258.17
1030.05	7159.65
1029.1	7321.24
1028.14	7249.02
1027.19	7297.61
1026.24	7364.57
1025.29	7289.75
1024.33	7346.18
1023.38	7271.39
1022.43	7256.97
1021.48	7297.64
1020.52	7322.56
1019.57	7310.76
1018.62	7361.88
1017.66	7336.97
1016.71	7406.42
1015.75	7284.56
1014.8	7322.55
1013.85	7260.99
1012.89	7348.73
1011.94	7405.02
1010.98	7403.69
1010.03	7433.77
1009.07	7194.29
1008.12	7470.36
1007.16	7487.33
1006.2	7467.68
1005.25	7542.18
1004.29	7483.3
1003.34	7508.1
1002.38	7407.43
1001.42	7463.59
1000.47	7527.57
999.508	7426.95
998.551	7475.25
997.594	7596.64
996.636	7524.78
995.679	7434.67
994.721	7428.12
993.763	7322.4
992.805	7401.97
991.846	7278.04
990.888	7441.04
989.929	7442.31
988.97	7430.55
988.011	7369.26
987.052	7347.08
986.093	7384.85
985.133	7430.42
984.173	7348.33
983.213	7253.25
982.253	7374.34
981.293	7427.68
980.333	7410.73
979.372	7261.05
978.411	7254.54
977.45	7341.69
976.489	7298.76
975.528	7440.48
974.566	7410.54
973.605	7305.22
972.643	7192.14
971.681	7591.06
970.719	7288.29
969.756	7367.51
968.794	7225.92
967.831	7284.35
966.868	7449.22
965.905	7318.08
964.942	7379.05
963.979	7465.96
963.015	7415.32
962.052	7473.65
961.088	7355.59
960.124	7434.65
959.159	7381.46
958.195	7424.2
957.23	7368.43
956.266	7185.71
955.301	7363.19
954.336	7374.81
953.37	7357.95
952.405	7499.04
951.439	7259.5
950.473	7265.96
949.507	7430.29
948.541	7320.27
947.575	7401.74
946.608	7408.17
945.642	7551.66
944.675	7309.82
943.708	7458.45
942.741	7498.46
941.773	7440.26
940.806	7335.56
939.838	7509.91
938.87	7281.26
937.902	7424.56
936.934	7415.48
935.965	7403.82
934.997	7358.6
934.028	7419.21
933.059	7376.59
932.09	7483.6
931.121	7366.19
930.151	7393.23
929.182	7376.42
928.212	7506.56
927.242	7371.18
926.272	7423.97
925.301	7474.16
924.331	7449.62
923.36	7427.68
922.389	7488.14
921.418	7360.63
920.447	7585.82
919.475	7563.86
918.504	7539.34
917.532	7589.43
916.56	7539.19
915.588	7465.82
914.616	7559.61
913.643	7645.65
912.671	7657.12
911.698	7416.74
910.725	7392.27
909.752	7539.93
908.779	7430.7
907.805	7516.67
906.831	7520.44
905.858	7547.32
904.883	7494.62
903.909	7436.81
902.935	7568.89
901.96	7505.95
900.986	7655.92
900.011	7646.84
899.036	7614.69
898.06	7638.95
897.085	7699.08
896.109	7748.93
895.133	7711.66
894.157	7556.58
893.181	7660.21
892.205	7640.9
891.229	7665.12
890.252	7686.77
889.275	7664.91
888.298	7640.49
887.321	7728.65
886.343	7727.25
885.366	7638.9
884.388	7719.34
883.41	7608.01
882.432	7831.56
881.454	7822.48
880.475	7713.75
879.497	7955.04
878.518	7741.61
877.539	7765.74
876.56	7738.8
875.58	7918.65
874.601	7884.03
873.621	7775.43
872.641	7825.04
871.661	7856.79
870.681	7801.81
869.701	7846.29
868.72	7801.53
867.739	8154.43
866.758	8012.78
865.777	7988.4
864.796	8183.12
863.815	8036.44
862.833	8383.89
861.851	8418.02
860.869	8877.29
859.887	8809.5
858.905	8769.72
857.922	8813.93
856.939	8682.59
855.956	8828.54
854.973	8893.06
853.99	8670.24
853.007	8518.68
852.023	8331.59
851.039	8215.73
850.055	8178.66
849.071	8019.68
848.087	8046.16
847.102	7996.46
846.118	8088.94
845.133	7932.63
844.148	8060.63
843.163	8051.55
842.177	8006.96
841.192	7987.75
840.206	7892.46
839.22	8010.2
838.234	7955.51
837.248	8017.43
836.261	7894.33
835.274	8070.26
834.288	7964.93
833.301	7900.16
832.313	7873.4
831.326	7920.07
830.339	7966.73
829.351	7998.19
828.363	7973.96
827.375	7916.85
826.387	7983.71
825.398	7779.92
824.409	7958.05
823.421	8077.96
822.432	7927.35
821.443	7976.45
820.453	8025.54
819.464	7965.97
818.474	7919.05
817.484	8240.88
816.494	8042.43
815.504	7980.37
814.513	7936.01
813.523	7916.9
812.532	7907.89
811.541	8007.36
810.55	7980.68
809.559	7812.78
808.567	8060.98
807.575	7946.07
806.583	7967.31
805.591	7897.82
804.599	8102.98
803.607	8003.26
802.614	8001.81
801.621	8065.82
800.628	8069.39
799.635	7957.16
798.642	8149.5
797.649	8004.58
796.655	8038.35
795.661	8062.04
794.667	8128.47
793.673	8099.33
792.678	8200.93
791.684	8078.78
790.689	8039.61
789.694	8063.28
788.699	8031.66
787.704	8027.68
786.708	8013.66
785.713	8072.46
784.717	7895.26
783.721	8069.52
782.724	8017.86
781.728	7983.78
780.731	7954.72
779.735	7878.03
778.738	8255.25
777.741	7987.98
776.743	8116.87
775.746	8035.19
774.748	8023.7
773.75	8049.79
772.752	8030.79
771.754	8044.35
770.756	8082.95
769.757	7986.34
768.758	8019.92
767.759	8073.51
766.76	8132.09
765.761	7983.01
764.761	8066.59
763.762	8200.16
762.762	8076.15
761.762	8034.67
760.762	8108.19
759.761	8019.24
758.761	8157.69
757.76	8098.75
756.759	8119.75
755.758	7893.52
754.756	7986.95
753.755	8162.72
752.753	8091.35
751.751	8087.37
750.749	8170.72
749.747	8002.1
748.745	8115.36
747.742	8056.52
746.739	8030.12
745.736	8118.38
744.733	8014.72
743.73	8070.56
742.726	8196.14
741.723	8104.97
740.719	8180.69
739.715	8019.84
738.71	8190.14
737.706	8263.31
736.701	8266.78
735.697	8158.28
734.692	8037.38
733.686	8157.78
732.681	8265.7
731.675	8047.88
730.67	8339.73
729.664	8121.98
728.658	8110.56
727.651	8141.37
726.645	8152.3
725.638	8145.84
724.631	8233.73
723.624	8185.05
722.617	8163.7
721.61	8311.1
720.602	8294.69
719.595	8131.92
718.587	8013.86
717.578	8210.78
716.57	8323.32
715.562	8041.68
714.553	8320.27
713.544	8276.62
712.535	8255.28
711.526	8385.06
710.516	8064.03
709.507	8347.31
708.497	8439.86
707.487	8331.88
706.477	8503.59
705.467	8415.42
704.456	8344.61
703.445	8338.13
702.434	8442.94
701.423	8478.48
700.412	8573.34
699.401	8438.29
698.389	8347.78
697.377	8519.2
696.365	8406.47
695.353	8244.39
694.34	8188.55
693.328	8204.33
692.315	8316.37
691.302	8319.78
690.289	8365.14
689.276	8321.66
688.262	8347.26
687.249	8427.12
686.235	8435.43
685.221	8330.34
684.206	8326.34
683.192	8339.6
682.177	8323.28
681.162	8432.61
680.147	8470.47
679.132	8212.8
678.117	8440.27
677.101	8409.18
676.086	8289.49
675.07	8474.99
674.054	8315.97
673.037	8393.16
672.021	8494.91
671.004	8515.48
669.987	8300.02
668.97	8318.16
667.953	8402.65
666.936	8275.78
665.918	8394.64
664.9	8452.05
663.882	8418.56
662.864	8404.74
661.846	8658.5
660.827	8578.37
659.808	8554.7
658.789	8445.17
657.77	8406.82
656.751	8611.29
655.731	8376.75
654.712	8441.4
653.692	8503.58
652.672	8467.71
651.652	8517.6
650.631	8567.48
649.611	8343
648.59	8407.59
647.569	8663.14
646.548	8451.01
645.526	8515.54
644.505	8413.63
643.483	8573.57
642.461	8596.45
641.439	8636.45
640.417	8600.62
639.394	8464.56
638.371	8516.78
637.348	8581.2
636.325	8819.09
635.302	8837.01
634.279	8918.43
633.255	9295.34
632.231	9452.35
631.207	9411.54
630.183	9219.41
629.159	8983.43
628.134	8781.69
627.109	8706.88
626.084	8497.95
625.059	8713.42
624.034	8670.36
623.008	8500.55
621.983	8681.79
620.957	8626.57
619.931	8702.94
618.904	8808.52
617.878	8648.58
616.851	8559.32
615.824	8472.53
614.797	8473.4
613.77	8552.15
612.743	8613.84
611.715	8573.32
610.687	8627.68
609.659	8611.49
608.631	8553.98
607.603	8494.05
606.574	8609.15
605.546	8503.06
604.517	8615.69
603.487	8587.37
602.458	8593.07
601.429	8778.47
600.399	8687.01
599.369	8651.42
598.339	8812.43
597.309	8759.84
596.278	8731.54
595.248	8691.11
594.217	8527.02
593.186	8610.3
592.155	8630.53
591.123	8701.65
590.091	8559.48
589.06	8618.47
588.028	8684.71
586.996	8578.95
585.963	8783.2
584.931	8653.25
583.898	8719.43
582.865	8715.4
581.832	8798.48
580.798	8743.62
579.765	8816.99
578.731	8692.01
577.697	8927.37
576.663	8645.28
575.629	8837.05
574.594	8707.33
573.56	8560.74
572.525	8554.32
571.49	8550.32
570.455	8621.19
569.419	8713.75
568.384	8572.12
567.348	8568.12
566.312	8725.8
565.276	8615.61
564.239	8606.78
563.203	8757.12
562.166	8842.31
561.129	8982.91
560.092	8901.7
559.054	8733.76
558.017	9047.79
556.979	8947.34
555.941	8854.15
554.903	8770.63
553.865	8583.61
552.826	8567.57
551.787	8676.7
550.749	8465.73
549.709	8488.22
548.67	8171.52
547.631	8598.11
546.591	8562.84
545.551	8667.04
544.511	8602.93
543.471	8738.32
542.43	8695.85
541.39	8675.02
540.349	8783.9
539.308	8755.85
538.267	8715.81
537.225	8807.81
536.184	8825.38
535.142	8732.55
534.1	8798.1
533.058	8618.96
532.015	8523.82
530.973	8524.63
529.93	8383.99
528.887	8224.23
527.844	8400.05
526.801	8235.55
525.757	8344.22
524.713	8584.59
523.669	8580.6
522.625	8540.7
521.581	8673.17
520.537	8731.39
519.492	8772.84
518.447	8764.03
517.402	8750.44
516.357	8693.81
515.311	8637.19
514.265	8530.39
513.22	8461.87
512.174	8178.29
511.127	8289.07
510.081	8158.52
509.034	7975.47
507.987	8059.96
506.94	8022.64
505.893	8126.19
504.846	8057.84
503.798	8359.41
502.75	8462.83
501.702	8423.09
500.654	8392.9
499.606	8512.95
