3200.54	88.4056
3199.95	75.7762
3199.35	88.3923
3198.76	71.5448
3198.16	75.7419
3197.57	92.5594
3196.98	79.9256
3196.38	92.5314
3195.79	109.339
3195.19	105.118
3194.6	109.306
3194	88.2721
3193.41	92.4615
3192.81	88.2454
3192.22	92.4336
3191.62	121.826
3191.03	100.806
3190.43	138.587
3189.84	92.3777
3189.24	113.355
3188.65	75.5589
3188.05	83.9416
3187.45	104.911
3186.86	96.5036
3186.26	109.075
3185.67	50.3345
3185.07	88.072
3184.47	88.0587
3183.88	88.0454
3183.28	75.456
3182.69	79.636
3182.09	88.0054
3181.49	108.943
3180.9	117.305
3180.3	92.1543
3179.7	96.3285
3179.1	83.7512
3178.51	117.234
3177.91	71.167
3177.31	79.5276
3176.72	87.8856
3176.12	104.61
3175.52	79.4914
3174.92	83.6625
3174.33	79.4674
3173.73	79.4553
3173.13	108.712
3172.53	91.973
3171.93	83.5992
3171.34	108.662
3170.74	104.467
3170.14	87.7393
3169.54	116.968
3168.94	121.127
3168.34	116.933
3167.74	104.388
3167.15	96.0226
3166.55	79.311
3165.95	75.1254
3165.35	108.498
3164.75	125.171
3164.15	112.637
3163.55	112.62
3162.95	91.7503
3162.35	58.3777
3161.75	100.061
3161.15	66.6972
3160.55	66.6871
3159.95	54.175
3159.35	104.167
3158.75	116.649
3158.15	108.301
3157.55	120.779
3156.95	99.9396
3156.35	133.233
3155.75	104.072
3155.15	99.8942
3154.55	112.364
3153.95	95.7029
3153.35	70.7262
3152.75	103.993
3152.15	133.091
3151.54	99.8033
3150.94	91.4725
3150.34	137.188
3149.74	83.1316
3149.14	108.055
3148.54	87.2617
3147.94	149.569
3147.33	108.005
3146.73	107.989
3146.13	83.0559
3145.53	74.739
3144.93	103.788
3144.32	112.074
3143.72	99.6066
3143.12	95.4418
3142.52	78.8313
3141.91	99.5612
3141.31	70.5118
3140.71	128.561
3140.1	111.955
3139.5	91.209
3138.9	136.793
3138.29	128.483
3137.69	120.175
3137.09	99.4403
3136.48	124.282
3135.88	107.694
3135.28	124.244
3134.67	140.788
3134.07	132.486
3133.47	99.3497
3132.86	107.613
3132.26	140.703
3131.65	140.681
3131.05	86.8782
3130.45	103.411
3129.84	82.716
3129.24	90.9738
3128.63	148.844
3128.03	148.821
3127.42	115.732
3126.82	115.714
3126.21	123.961
3125.61	185.913
3125	132.185
3124.4	115.644
3123.79	123.886
3123.19	132.124
3122.58	132.104
3121.97	123.829
3121.37	123.81
3120.76	132.044
3120.16	115.521
3119.55	132.004
3118.94	119.61
3118.34	123.716
3117.73	115.451
3117.13	115.433
3116.52	131.904
3115.91	119.519
3115.31	127.743
3114.7	123.603
3114.09	119.465
3113.48	148.279
3112.88	131.783
3112.27	131.763
3111.66	127.626
3111.06	168.77
3110.45	127.587
3109.84	160.489
3109.23	139.892
3108.63	156.326
3108.02	127.51
3107.41	156.278
3106.8	156.255
3106.19	148.008
3105.59	147.986
3104.98	164.403
3104.37	127.393
3103.76	139.7
3103.15	168.437
3102.54	156.088
3101.93	119.102
3101.33	119.084
3100.72	180.651
3100.11	155.993
3099.5	164.178
3098.89	139.53
3098.28	160.025
3097.67	201.026
3097.06	176.384
3096.45	147.648
3095.84	184.532
3095.23	209.104
3094.62	163.978
3094.01	168.052
3093.4	155.732
3092.79	155.708
3092.18	221.236
3091.57	176.142
3090.96	184.307
3090.35	196.564
3089.74	241.573
3089.13	196.504
3088.52	233.313
3087.91	253.74
3087.3	245.518
3086.69	253.663
3086.08	216.808
3085.46	290.396
3084.85	310.799
3084.24	265.775
3083.63	314.793
3083.02	232.993
3082.41	294.262
3081.79	273.785
3081.18	351.372
3080.57	326.808
3079.96	351.265
3079.35	306.289
3078.73	302.159
3078.12	310.278
3077.51	395.953
3076.9	322.428
3076.28	330.54
3075.67	371.291
3075.06	318.201
3074.45	322.231
3073.83	326.26
3073.22	309.9
3072.61	289.467
3071.99	273.118
3071.38	293.455
3070.77	248.583
3070.15	272.993
3069.54	260.729
3068.93	268.836
3068.31	228.068
3067.7	260.61
3067.08	260.57
3066.47	260.53
3065.86	240.14
3065.24	284.868
3064.63	244.135
3064.01	223.756
3063.4	231.858
3062.78	235.889
3062.17	284.65
3061.55	227.685
3060.94	247.977
3060.32	215.422
3059.71	195.07
3059.09	195.04
3058.48	231.574
3057.86	207.166
3057.25	247.749
3056.63	178.677
3056.02	162.409
3055.4	211.099
3054.78	207.008
3054.17	174.51
3053.55	182.598
3052.94	174.456
3052.32	206.882
3051.7	158.179
3051.09	202.763
3050.47	186.513
3049.85	170.269
3049.24	194.563
3048.62	210.745
3048	190.452
3047.39	158.01
3046.77	182.291
3046.15	190.364
3045.53	210.583
3044.92	206.502
3044.3	206.471
3043.68	186.2
3043.06	210.455
3042.45	161.863
3041.83	194.206
3041.21	190.131
3040.59	202.236
3039.97	194.117
3039.35	202.174
3038.74	194.058
3038.12	177.859
3037.5	210.165
3036.88	185.887
3036.26	193.939
3035.64	173.71
3035.02	197.919
3034.41	205.966
3033.79	185.744
3033.17	222.052
3032.55	193.761
3031.93	213.912
3031.31	189.666
3030.69	213.846
3030.07	193.642
3029.45	213.781
3028.83	201.649
3028.21	205.65
3027.59	217.714
3026.97	229.774
3026.35	185.403
3025.73	169.255
3025.11	205.493
3024.49	189.347
3023.87	201.402
3023.25	221.508
3022.63	221.474
3022	201.309
3021.38	249.585
3020.76	205.272
3020.14	253.533
3019.52	225.328
3018.9	193.109
3018.28	217.214
3017.66	189.028
3017.03	217.147
3016.41	245.259
3015.79	205.021
3015.17	225.086
3014.55	237.108
3013.92	249.126
3013.3	233.018
3012.68	196.83
3012.06	253.028
3011.43	244.958
3010.81	236.89
3010.19	216.781
3009.57	228.79
3008.94	224.741
3008.32	216.682
3007.7	276.829
3007.07	260.74
3006.45	252.679
3005.83	272.691
3005.2	240.573
3004.58	252.563
3003.96	304.632
3003.33	276.531
3002.71	264.468
3002.08	264.427
3001.46	220.322
3000.84	220.288
3000.21	240.277
2999.59	292.293
2998.96	320.272
2998.34	296.206
2997.71	268.145
2997.09	304.118
2996.46	308.072
2995.84	312.025
2995.21	247.982
2994.59	311.929
2993.96	295.887
2993.34	239.872
2992.71	295.797
2992.09	287.758
2991.46	271.73
2990.84	311.642
2990.21	307.599
2989.58	331.517
2988.96	283.543
2988.33	255.549
2987.71	287.448
2987.08	327.322
2986.45	291.351
2985.83	307.268
2985.2	311.211
2984.57	335.099
2983.95	307.127
2983.32	287.139
2982.69	311.02
2982.07	306.985
2981.44	322.883
2980.81	306.891
2980.18	286.919
2979.56	338.671
2978.93	358.538
2978.3	362.466
2977.67	330.55
2977.05	318.553
2976.42	358.317
2975.79	366.224
2975.16	350.247
2974.53	358.152
2973.91	445.632
2973.28	429.65
2972.65	425.607
2972.02	393.725
2971.39	381.735
2970.76	469.144
2970.13	449.196
2969.5	425.279
2968.88	441.11
2968.25	464.882
2967.62	421.11
2966.99	496.516
2966.36	440.838
2965.73	492.392
2965.1	528.049
2964.47	436.665
2963.84	488.195
2963.21	488.12
2962.58	547.563
2961.95	495.904
2961.32	507.728
2960.69	503.684
2960.06	495.675
2959.43	491.634
2958.8	511.379
2958.17	527.155
2957.53	542.926
2956.9	519.068
2956.27	507.103
2955.64	514.947
2955.01	495.065
2954.38	502.908
2953.75	459.279
2953.12	498.795
2952.48	498.718
2951.85	486.769
2951.22	474.823
2950.59	451.012
2949.96	458.854
2949.33	466.693
2948.69	423.123
2948.06	498.18
2947.43	419.039
2946.8	418.975
2946.16	422.862
2945.53	395.137
2944.9	383.224
2944.26	391.065
2943.63	402.853
2943	414.638
2942.37	386.936
2941.73	402.667
2941.1	359.187
2940.47	374.917
2939.83	382.751
2939.2	359.021
2938.56	307.684
2937.93	366.798
2937.3	295.759
2936.66	327.256
2936.03	335.09
2935.39	342.922
2934.76	279.813
2934.13	346.756
2933.49	350.643
2932.86	338.771
2932.22	330.841
2931.59	318.976
2930.95	322.865
2930.32	311.004
2929.68	338.51
2929.05	306.973
2928.41	275.446
2927.78	338.353
2927.14	283.228
2926.5	302.85
2925.87	302.803
2925.23	298.825
2924.6	318.435
2923.96	294.802
2923.32	298.686
2922.69	278.993
2922.05	330.025
2921.42	333.902
2920.78	298.502
2920.14	310.237
2919.51	321.968
2918.87	278.734
2918.23	329.719
2917.6	282.573
2916.96	286.453
2916.32	325.643
2915.68	345.207
2915.05	305.931
2914.41	305.884
2913.77	325.442
2913.13	321.471
2912.5	341.02
2911.86	344.887
2911.22	313.485
2910.58	336.944
2909.94	317.305
2909.31	313.339
2908.67	297.626
2908.03	348.482
2907.39	328.854
2906.75	364.032
2906.11	332.666
2905.47	352.18
2904.83	383.425
2904.2	375.542
2903.56	348.105
2902.92	367.605
2902.28	347.997
2901.64	332.306
2901	343.981
2900.36	351.744
2899.72	359.505
2899.08	359.449
2898.44	328.142
2897.8	324.185
2897.16	343.661
2896.52	390.464
2895.88	343.555
2895.24	359.116
2894.6	366.866
2893.96	331.689
2893.32	378.457
2892.67	370.596
2892.03	347.136
2891.39	389.981
2890.75	405.517
2890.11	374.265
2889.47	382.003
2888.83	346.868
2888.19	409.163
2887.54	377.93
2886.9	354.498
2886.26	385.603
2885.62	354.388
2884.98	389.377
2884.33	397.103
2883.69	365.901
2883.05	393.088
2882.41	381.353
2881.77	400.748
2881.12	443.477
2880.48	443.408
2879.84	346.116
2879.19	330.509
2878.55	384.886
2877.91	357.617
2877.26	392.54
2876.62	341.962
2875.98	349.68
2875.33	365.164
2874.69	349.571
2874.05	388.352
2873.4	372.76
2872.76	364.938
2872.11	345.473
2871.47	360.943
2870.83	329.843
2870.18	310.393
2869.54	353.017
2868.89	341.326
2868.25	341.273
2867.6	348.975
2866.96	352.798
2866.31	344.991
2865.67	368.191
2865.02	325.508
2864.38	313.834
2863.73	368.02
2863.09	302.117
2862.44	352.415
2861.8	340.744
2861.15	367.791
2860.5	336.767
2859.86	363.807
2859.21	321.184
2858.57	367.563
2857.92	382.98
2857.27	382.92
2856.63	336.454
2855.98	340.268
2855.33	390.474
2854.69	409.741
2854.04	328.515
2853.39	355.514
2852.75	297.503
2852.1	309.046
2851.45	370.798
2850.81	363.017
2850.16	335.931
2849.51	320.436
2848.86	347.407
2848.21	335.775
2847.57	409.041
2846.92	358.82
2846.27	339.476
2845.62	424.279
2844.97	362.509
2844.33	377.876
2843.68	373.962
2843.03	412.451
2842.38	400.825
2841.73	362.228
2841.08	377.583
2840.43	362.115
2839.78	373.614
2839.14	335.045
2838.49	423.554
2837.84	342.64
2837.19	369.532
2836.54	400.264
2835.89	407.898
2835.24	380.902
2834.59	376.996
2833.94	423.093
2833.29	392.262
2832.64	403.736
2831.99	369.072
2831.34	395.922
2830.69	422.764
2830.04	391.956
2829.39	422.632
2828.74	364.944
2828.08	349.523
2827.43	395.553
2826.78	403.171
2826.13	391.591
2825.48	380.014
2824.83	399.145
2824.18	372.221
2823.53	376
2822.87	410.467
2822.22	410.403
2821.57	460.193
2820.92	406.44
2820.27	425.546
2819.61	436.979
2818.96	425.413
2818.31	390.859
2817.66	340.991
2817	413.722
2816.35	425.148
2815.7	402.105
2815.05	440.332
2814.39	421.121
2813.74	409.572
2813.09	420.99
2812.43	397.965
2811.78	466.771
2811.13	447.571
2810.47	386.305
2809.82	451.256
2809.16	428.244
2808.51	382.301
2807.86	420.465
2807.2	412.756
2806.55	454.725
2805.89	439.372
2805.24	458.404
2804.58	465.971
2803.93	484.993
2803.28	378.006
2802.62	446.665
2801.97	442.778
2801.31	515.222
2800.66	442.64
2800	408.233
2799.34	465.39
2798.69	480.574
2798.03	446.177
2797.38	442.295
2796.72	476.536
2796.07	476.462
2795.41	457.332
2794.75	415.345
2794.1	449.57
2793.44	457.118
2792.79	483.708
2792.13	479.824
2791.47	460.712
2790.82	472.061
2790.16	445.342
2789.5	441.467
2788.84	532.722
2788.19	464.157
2787.53	407.025
2786.87	448.798
2786.22	463.939
2785.56	456.262
2784.9	444.786
2784.24	501.732
2783.59	505.454
2782.93	501.575
2782.27	452.107
2781.61	448.238
2780.95	470.956
2780.29	489.87
2779.64	504.98
2778.98	394.81
2778.32	451.683
2777.66	481.973
2777	493.281
2776.34	478.029
2775.68	481.747
2775.02	420.989
2774.36	534.686
2773.71	481.522
2773.05	523.146
2772.39	492.742
2771.73	504.034
2771.07	519.112
2770.41	473.568
2769.75	496.222
2769.09	534.018
2768.43	461.986
2767.77	514.92
2767.11	495.912
2766.45	522.329
2765.79	480.619
2765.12	507.03
2764.46	525.867
2763.8	469.045
2763.14	491.664
2762.48	499.15
2761.82	514.196
2761.16	498.994
2760.5	476.238
2759.83	468.605
2759.17	491.203
2758.51	525.127
2757.85	491.049
2757.19	483.419
2756.53	472.015
2755.86	524.798
2755.2	520.941
2754.54	520.86
2753.88	554.742
2753.21	516.923
2752.55	479.117
2751.89	437.55
2751.23	505.366
2750.56	520.371
2749.9	505.208
2749.24	520.208
2748.57	527.664
2747.91	512.508
2747.25	478.517
2746.58	534.951
2745.92	516.034
2745.25	504.654
2744.59	489.513
2743.93	527.086
2743.26	500.653
2742.6	515.629
2741.93	523.075
2741.27	568.143
2740.61	515.387
2739.94	515.306
2739.28	522.747
2738.61	545.226
2737.95	526.343
2737.28	541.296
2736.62	552.487
2735.95	533.611
2735.29	604.915
2734.62	559.74
2733.95	518.336
2733.29	552.054
2732.62	548.212
2731.96	611.949
2731.29	555.548
2730.62	551.707
2729.96	622.919
2729.29	577.798
2728.63	615.221
2727.96	630.127
2727.29	603.777
2726.63	603.682
2725.96	551.102
2725.29	607.241
2724.62	588.407
2723.96	562.084
2723.29	595.716
2722.62	576.892
2721.96	573.056
2721.29	516.793
2720.62	580.365
2719.95	587.761
2719.28	568.953
2718.62	561.379
2717.95	591.226
2717.28	576.168
2716.61	591.04
2715.94	557.286
2715.27	575.896
2714.61	523.46
2713.94	601.884
2713.27	609.265
2712.6	549.374
2711.93	650.177
2711.26	597.77
2710.59	496.818
2709.92	519.15
2709.25	571.348
2708.58	552.59
2707.91	589.835
2707.24	522.556
2706.57	608.309
2705.9	555.974
2705.23	611.849
2704.56	540.879
2703.89	555.712
2703.22	518.334
2702.55	615.192
2701.88	589.001
2701.21	600.09
2700.54	614.902
2699.87	622.258
2699.2	644.513
2698.53	603.437
2697.86	592.17
2697.19	554.839
2696.51	618.045
2695.84	584.445
2695.17	539.689
2694.5	569.376
2693.83	610.215
2693.15	647.321
2692.48	636.061
2691.81	628.522
2691.14	628.424
2690.47	557.685
2689.79	706.289
2689.12	654.144
2688.45	672.622
2687.77	572.196
2687.1	664.98
2686.43	735.449
2685.76	646.202
2685.08	623.821
2684.41	594.022
2683.74	671.881
2683.06	627.238
2682.39	619.717
2681.71	653.012
2681.04	675.168
2680.37	708.444
2679.69	585.95
2679.02	648.893
2678.34	608.01
2677.67	652.395
2676.99	644.88
2676.32	652.19
2675.65	581.691
2674.97	644.576
2674.3	651.882
2673.62	636.966
2672.95	725.73
2672.27	703.403
2671.59	688.486
2670.92	684.677
2670.24	699.37
2669.57	640.064
2668.89	684.353
2668.22	662.054
2667.54	680.439
2666.86	613.778
2666.19	613.681
2665.51	628.37
2664.83	628.27
2664.16	613.391
2663.48	668.712
2662.8	727.71
2662.13	760.836
2661.45	686.86
2660.77	683.059
2660.1	668.185
2659.42	701.299
2658.74	763.927
2658.06	671.559
2657.39	634.56
2656.71	708.234
2656.03	730.251
2655.35	671.135
2654.68	648.907
2654	685.669
2653.32	707.676
2652.64	689.138
2651.96	703.768
2651.28	685.236
2650.6	699.862
2649.93	714.483
2649.25	721.735
2648.57	747.393
2647.89	695.739
2647.21	747.157
2646.53	728.639
2645.85	739.562
2645.17	702.657
2644.49	717.259
2643.81	794.377
2643.13	783.22
2642.45	680.154
2641.77	709.454
2641.09	709.342
2640.41	745.978
2639.73	679.725
2639.05	720.027
2638.37	749.297
2637.69	738.162
2637.01	749.061
2636.33	756.285
2635.65	770.848
2634.96	730.355
2634.28	686.205
2633.6	774.152
2632.92	744.682
2632.24	803.249
2631.56	770.117
2630.88	729.663
2630.19	758.876
2629.51	777.083
2628.83	780.625
2628.15	780.502
2627.46	784.042
2626.78	802.234
2626.1	758.156
2625.42	849.586
2624.73	794.53
2624.05	779.761
2623.37	812.58
2622.69	823.431
2622	826.96
2621.32	815.853
2620.64	801.093
2619.95	742.448
2619.27	808.153
2618.58	837.274
2617.9	778.652
2617.22	826.044
2616.53	829.568
2615.85	844.052
2615.16	836.612
2614.48	843.785
2613.79	839.999
2613.11	817.957
2612.43	898.15
2611.74	784.844
2611.06	784.72
2610.37	861.23
2609.69	820.958
2609	813.532
2608.31	849.879
2607.63	805.98
2606.94	849.609
2606.26	827.6
2605.57	874.857
2604.89	805.47
2604.2	838.139
2603.51	808.858
2602.83	863.374
2602.14	877.806
2601.45	819.399
2600.77	790.139
2600.08	797.295
2599.39	833.569
2598.71	833.437
2598.02	851.5
2597.33	862.28
2596.65	905.796
2595.96	858.369
2595.27	840.05
2594.58	829.009
2593.9	817.971
2593.21	817.841
2592.52	817.712
2591.83	857.553
2591.14	926.446
2590.46	835.486
2589.77	889.833
2589.08	893.323
2588.39	871.396
2587.7	820.435
2587.01	889.268
2586.32	903.643
2585.64	885.357
2584.95	914.24
2584.26	848.803
2583.57	855.922
2582.88	834.029
2582.19	884.655
2581.5	851.889
2580.81	891.623
2580.12	876.986
2579.43	829.744
2578.74	905.69
2578.05	829.48
2577.36	880.051
2576.67	869.048
2575.98	901.494
2575.29	915.831
2574.6	922.924
2573.91	817.834
2573.22	900.922
2572.52	864.603
2571.83	835.529
2571.14	853.479
2570.45	828.032
2569.76	900.206
2569.07	885.604
2568.38	932.448
2567.68	939.527
2566.99	910.473
2566.3	830.856
2565.61	931.855
2564.92	917.262
2564.22	826.849
2563.53	880.869
2562.84	931.263
2562.14	945.551
2561.45	916.533
2560.76	945.25
2560.07	930.671
2559.37	905.276
2558.68	923.163
2557.99	998.732
2557.29	868.795
2556.6	929.931
2555.91	886.537
2555.21	882.793
2554.52	893.461
2553.82	947.35
2553.13	864.364
2552.44	961.452
2551.74	943.298
2551.05	899.95
2550.35	907.005
2549.66	968.038
2548.96	985.874
2548.27	949.742
2547.57	906.428
2546.88	956.633
2546.18	978.055
2545.49	981.495
2544.79	995.717
2544.1	995.559
2543.4	898.376
2542.7	930.569
2542.01	1013.04
2541.31	998.517
2540.62	1001.95
2539.92	962.292
2539.22	990.859
2538.53	940.449
2537.83	1004.9
2537.13	947.326
2536.44	986.641
2535.74	968.547
2535.04	957.633
2534.35	989.755
2533.65	986.012
2532.95	971.515
2532.25	960.607
2531.56	1014.21
2530.86	1024.8
2530.16	931.487
2529.46	1028.05
2528.76	1009.98
2528.07	970.432
2527.37	1013.24
2526.67	1002.34
2525.97	1020.08
2525.27	1041.39
2524.57	958.924
2523.88	1012.43
2523.18	980.08
2522.48	1055.03
2521.78	1033.4
2521.08	997.487
2520.38	1015.2
2519.68	968.577
2518.98	964.849
2518.28	1082.6
2517.58	1032.42
2516.88	1035.82
2516.18	1010.66
2515.48	1035.49
2514.78	1013.91
2514.08	1038.73
2513.38	1045.7
2512.68	1013.42
2511.98	1052.51
2511.28	1091.58
2510.58	995.103
2509.88	987.812
2509.17	1012.61
2508.47	1005.32
2507.77	1001.6
2507.07	1058.46
2506.37	1086.79
2505.67	1093.75
2504.97	1029.45
2504.26	1100.52
2503.56	1082.54
2502.86	1036.08
2502.16	1064.39
2501.45	1046.43
2500.75	1056.94
2500.05	999.838
2499.35	1042.37
2498.64	1077.77
2497.94	1095.38
2497.24	1120.1
2496.53	1052.37
2495.83	1137.51
2495.13	1108.9
2494.42	1073.19
2493.72	1073.01
2493.02	1090.61
2492.31	1022.95
2491.61	1093.81
2490.9	1178.85
2490.2	1107.66
2489.5	1079.09
2488.79	1089.56
2488.09	1121.32
2487.38	1099.86
2486.68	1152.89
2485.97	1103.05
2485.27	1067.41
2484.56	1056.6
2483.86	1102.52
2483.15	1134.25
2482.45	1141.15
2481.74	1073.65
2481.04	1126.62
2480.33	1165.4
2479.62	1161.67
2478.92	1147.32
2478.21	1132.98
2477.51	1178.81
2476.8	1079.52
2476.09	1153.66
2475.39	1199.48
2474.68	1160.37
2473.97	1202.63
2473.27	1131.71
2472.56	1113.85
2471.85	1159.63
2471.14	1134.7
2470.44	1145.12
2469.73	1144.94
2469.02	1130.62
2468.31	1179.9
2467.61	1133.79
2466.9	1140.67
2466.19	1179.33
2465.48	1133.25
2464.77	1051.88
2464.07	1189.35
2463.36	1132.7
2462.65	1111.35
2461.94	1135.87
2461.23	1149.79
2460.52	1174.29
2459.81	1184.68
2459.1	1173.92
2458.4	1106.76
2457.69	1159.44
2456.98	1226.2
2456.27	1190.78
2455.56	1183.54
2454.85	1225.61
2454.14	1250.07
2453.43	1179.45
2452.72	1281.35
2452.01	1210.75
2451.3	1210.56
2450.59	1210.36
2449.88	1160.92
2449.16	1202.94
2448.45	1171.1
2447.74	1199.04
2447.03	1265.64
2446.32	1272.47
2445.61	1240.63
2444.9	1194.75
2444.19	1173.48
2443.47	1208.42
2442.76	1257.4
2442.05	1246.66
2441.34	1260.51
2440.63	1253.28
2439.91	1260.1
2439.2	1249.37
2438.49	1298.3
2437.78	1245.46
2437.06	1213.69
2436.35	1227.53
2435.64	1202.78
2434.93	1188.57
2434.21	1181.36
2433.5	1223.23
2432.79	1212.52
2432.07	1229.85
2431.36	1243.66
2430.64	1201.43
2429.93	1229.26
2429.22	1267.58
2428.5	1239.36
2427.79	1207.66
2427.07	1273.96
2426.36	1256.26
2425.65	1319.04
2424.93	1294.34
2424.22	1360.59
2423.5	1213.49
2422.79	1276.23
2422.07	1244.56
2421.36	1237.37
2420.64	1272.12
2419.92	1243.96
2419.21	1292.68
2418.49	1383.29
2417.78	1292.26
2417.06	1292.05
2416.35	1309.3
2415.63	1295.13
2414.91	1298.41
2414.2	1326.12
2413.48	1325.91
2412.76	1259.41
2412.05	1266.18
2411.33	1300.85
2410.61	1265.77
2409.9	1338.79
2409.18	1338.57
2408.46	1387.15
2407.74	1289.35
2407.03	1233.4
2406.31	1295.91
2405.59	1320.08
2404.87	1333.8
2404.16	1298.76
2403.44	1329.89
2402.72	1423.65
2402	1385.14
2401.28	1398.84
2400.56	1409.05
2399.85	1467.96
2399.13	1332.08
2398.41	1338.82
2397.69	1310.79
2396.97	1317.53
2396.25	1372.93
2395.53	1362.28
2394.81	1414.18
2394.09	1334.05
2393.37	1427.62
2392.65	1396.14
2391.93	1395.91
2391.21	1347.08
2390.49	1412.82
2389.77	1429.94
2389.05	1388.07
2388.33	1394.79
2387.61	1380.69
2386.89	1331.9
2386.17	1338.63
2385.45	1359.21
2384.73	1424.86
2384	1431.57
2383.28	1372.42
2382.56	1427.64
2381.84	1413.55
2381.12	1402.93
2380.4	1465.05
2379.67	1402.48
2378.95	1443.8
2378.23	1408.95
2377.51	1415.65
2376.79	1425.8
2376.06	1397.89
2375.34	1425.34
2374.62	1483.91
2373.9	1438.71
2373.17	1500.72
2372.45	1379.47
2371.73	1458.76
2371	1465.43
2370.28	1406.45
2369.56	1458.05
2368.83	1419.82
2368.11	1450.67
2367.38	1478.07
2366.66	1495.09
2365.94	1467.23
2365.21	1453.19
2364.49	1432.25
2363.76	1511.38
2363.04	1459.38
2362.31	1448.8
2361.59	1472.71
2360.86	1413.85
2360.14	1482.58
2359.41	1440.97
2358.69	1537.24
2357.96	1471.52
2357.24	1540.19
2356.51	1533.05
2355.79	1543.14
2355.06	1474.01
2354.33	1518.54
2353.61	1466.65
2352.88	1507.72
2352.15	1562.54
2351.43	1582.94
2350.7	1606.77
2349.98	1534.27
2349.25	1558.09
2348.52	1513.14
2347.79	1526.65
2347.07	1485.14
2346.34	1491.78
2345.61	1501.85
2344.88	1525.66
2344.16	1515.1
2343.43	1518.29
2342.7	1511.18
2341.97	1689.5
2341.25	1596.53
2340.52	1568.8
2339.79	1486.18
2339.06	1527.12
2338.33	1609.22
2337.6	1608.96
2336.87	1540.1
2336.14	1577.57
2335.42	1601.32
2334.69	1611.34
2333.96	1580.23
2333.23	1658.8
2332.5	1593.43
2331.77	1600.02
2331.04	1634.02
2330.31	1592.65
2329.58	1619.79
2328.85	1588.71
2328.12	1646.66
2327.39	1680.62
2326.66	1570.83
2325.93	1608.22
2325.2	1703.75
2324.47	1635.06
2323.73	1720.3
2323	1576.4
2322.27	1658.2
2321.54	1637.42
2320.81	1623.48
2320.08	1571.96
2319.35	1619.54
2318.61	1622.69
2317.88	1673.66
2317.15	1632.41
2316.42	1724.34
2315.69	1614.81
2314.95	1669.17
2314.22	1627.94
2313.49	1658.39
2312.76	1651.3
2312.02	1651.03
2311.29	1654.17
2310.56	1742.57
2309.82	1691.14
2309.09	1615.87
2308.36	1700.82
2307.62	1738.03
2306.89	1625.3
2306.16	1679.55
2305.42	1808.71
2304.69	1665.38
2303.95	1692.35
2303.22	1678.46
2302.48	1688.4
2301.75	1688.12
2301.02	1725.28
2300.28	1765.83
2299.55	1643.08
2298.81	1666.62
2298.08	1741.17
2297.34	1727.28
2296.6	1774.6
2295.87	1679.14
2295.13	1763.83
2294.4	1695.58
2293.66	1719.09
2292.93	1773.16
2292.19	1786.45
2291.45	1745.41
2290.72	1724.76
2289.98	1697.32
2289.24	1758.14
2288.51	1805.36
2287.77	1822.04
2287.03	1665.69
2286.3	1692.55
2285.56	1838.11
2284.82	1736.08
2284.08	1732.41
2283.35	1755.86
2282.61	1803.02
2281.87	1765.45
2281.13	1744.84
2280.4	1815.69
2279.66	1791.69
2278.92	1774.46
2278.18	1780.95
2277.44	1794.2
2276.7	1780.37
2275.97	1800.38
2275.23	1786.56
2274.49	1752.43
2273.75	1826.56
2273.01	1697.75
2272.27	1876.69
2271.53	1771.58
2270.79	1794.95
2270.05	1872.4
2269.31	1909.26
2268.57	1814.35
2267.83	1800.54
2267.09	1810.38
2266.35	1850.61
2265.61	1873.95
2264.87	1758.86
2264.13	1880.09
2263.39	1873.03
2262.65	1865.98
2261.91	1865.67
2261.17	1939.58
2260.42	1868.44
2259.68	1868.13
2258.94	1891.43
2258.2	1894.49
2257.46	1857.11
2256.72	1968.01
2255.97	1873.35
2255.23	1953.9
2254.49	1889.58
2253.75	1828.66
2253	1818.26
2252.26	1892.03
2251.52	1888.35
2250.78	1881.31
2250.03	1951.67
2249.29	1904.25
2248.55	1937.58
2247.8	1836.37
2247.06	1836.07
2246.32	1956.81
2245.57	1865.72
2244.83	2026.75
2244.09	1902.08
2243.34	2029.45
2242.6	1884.66
2241.85	2035.51
2241.11	1840.39
2240.36	1890.46
2239.62	1890.15
2238.88	2000.61
2238.13	2047.27
2237.39	2003.32
2236.64	2023.12
2235.89	1955.7
2235.15	2002.34
2234.4	2018.78
2233.66	1904.45
2232.91	2108.63
2232.17	1974.21
2231.42	1994
2230.67	2003.73
2229.93	1993.35
2229.18	2063.37
2228.44	1942.46
2227.69	1985.68
2226.94	2045.62
2226.2	2038.59
2225.45	2004.78
2224.7	1947.57
2223.95	2057.66
2223.21	2077.4
2222.46	2100.47
2221.71	1949.64
2220.96	2026.23
2220.22	1972.41
2219.47	2052.3
2218.72	2005.18
2217.97	2108.44
2217.22	2011.21
2216.48	2081.03
2215.73	2043.95
2214.98	2073.67
2214.23	2120.07
2213.48	2036.27
2212.73	2062.64
2211.98	2042.28
2211.23	1958.53
2210.48	1981.56
2209.73	2074.63
2208.98	2157.67
2208.23	2110.63
2207.48	2120.29
2206.73	2086.61
2205.98	2096.27
2205.23	2115.92
2204.48	2095.58
2203.73	2128.55
2202.98	2068.25
2202.23	2051.26
2201.48	2104.2
2200.73	2093.87
2199.98	2263.27
2199.23	2116.48
2198.48	2119.46
2197.72	2142.4
2196.97	2208.57
2196.22	2228.16
2195.47	2074.85
2194.72	2144.32
2193.97	2280.25
2193.21	2143.62
2192.46	2262.89
2191.71	2149.56
2190.96	2192.39
2190.2	2198.68
2189.45	2135.22
2188.7	2201.28
2187.94	2240.75
2187.19	2253.66
2186.44	2163.69
2185.68	2193.2
2184.93	2408.48
2184.18	2222.33
2183.42	2122.48
2182.67	2181.82
2181.91	2287.55
2181.16	2177.79
2180.41	2237.08
2179.65	2346.07
2178.9	2183.34
2178.14	2239.3
2177.39	2278.68
2176.63	2288.24
2175.88	2221.64
2175.12	2300.73
2174.37	2277.18
2173.61	2313.21
2172.86	2309.52
2172.1	2305.84
2171.34	2288.92
2170.59	2285.24
2169.83	2304.7
2169.08	2327.47
2168.32	2227.92
2167.56	2296.96
2166.81	2154.49
2166.05	2256.56
2165.29	2355.29
2164.54	2216.18
2163.78	2318.19
2163.02	2162.63
2162.27	2347.14
2161.51	2340.15
2160.75	2376.07
2159.99	2270.1
2159.23	2210.34
2158.48	2338.62
2157.72	2354.72
2156.96	2268.61
2156.2	2288.01
2155.44	2406.31
2154.69	2346.59
2153.93	2385.74
2153.17	2391.94
2152.41	2381.67
2151.65	2371.39
2150.89	2344.66
2150.13	2390.37
2149.37	2380.1
2148.61	2297.43
2147.85	2425.39
2147.09	2421.7
2146.33	2457.49
2145.57	2404.46
2144.81	2328.43
2144.05	2469.44
2143.29	2393.41
2142.53	2425.89
2141.77	2422.21
2141.01	2375.8
2140.25	2483.84
2139.49	2463.72
2138.73	2351.64
2137.97	2400.51
2137.2	2318.04
2136.44	2442.4
2135.68	2340.25
2134.92	2392.37
2134.16	2382.13
2133.4	2434.23
2132.63	2463.35
2131.87	2443.27
2131.11	2351.06
2130.35	2475.25
2129.58	2602.68
2128.82	2458.05
2128.06	2552.68
2127.29	2414.65
2126.53	2489.6
2125.77	2443.33
2125	2531.35
2124.24	2494.92
2123.48	2458.49
2122.71	2451.54
2121.95	2477.32
2121.19	2555.44
2120.42	2541.93
2119.66	2551.33
2118.89	2521.48
2118.13	2596.27
2117.36	2471.61
2116.6	2588.87
2115.83	2539.42
2115.07	2594.56
2114.3	2636.6
2113.54	2652.5
2112.77	2629.2
2112.01	2507.94
2111.24	2478.15
2110.48	2595.26
2109.71	2526.29
2108.94	2535.66
2108.18	2473.25
2107.41	2528.3
2106.64	2629
2105.88	2524.21
2105.11	2611.83
2104.34	2582.06
2103.58	2627.27
2102.81	2568.17
2102.04	2655.73
2101.28	2684.61
2100.51	2706.97
2099.74	2634.87
2098.97	2634.44
2098.21	2699.12
2097.44	2767.04
2096.67	2515.96
2095.9	2567.62
2095.13	2791.7
2094.36	2722.92
2093.6	2556.59
2092.83	2640.72
2092.06	2776.85
2091.29	2669.11
2090.52	2675.17
2089.75	2694.23
2088.98	2836.76
2088.21	2670.6
2087.44	2696.14
2086.67	2656.72
2085.9	2717.98
2085.13	2733.77
2084.36	2658.65
2083.59	2762.08
2082.82	2735.66
2082.05	2800.1
2081.28	2721.78
2080.51	2688.9
2079.74	2795.47
2078.97	2817.71
2078.2	2752.4
2077.43	2683.88
2076.65	2819.55
2075.88	2751.04
2075.11	2799.18
2074.34	2808.44
2073.57	2795.02
2072.8	2729.79
2072.02	2790.86
2071.25	2793.63
2070.48	2809.35
2069.71	2653.56
2068.93	2711.36
2068.16	2807.96
2067.39	2726.64
2066.61	2845.84
2065.84	2806.57
2065.07	2802.87
2064.29	2744.23
2063.52	2860.12
2062.75	2814.41
2061.97	2830.09
2061.2	2819.94
2060.43	2822.7
2059.65	2851.29
2058.88	2812.08
2058.1	2840.67
2057.33	2830.51
2056.55	2881.68
2055.78	2948.96
2055	2967.82
2054.23	2877.02
2053.45	2992.64
2052.68	2885.74
2051.9	2894.94
2051.13	2897.68
2050.35	2922.98
2049.57	2916.05
2048.8	2915.57
2048.02	2969.85
2047.25	2950.03
2046.47	2988.18
2045.69	2945.83
2044.92	2858.44
2044.14	2903.02
2043.36	2937.94
2042.59	2927.8
2041.81	2914.44
2041.03	2971.86
2040.25	2923.13
2039.48	3167
2038.7	2960.73
2037.92	2937.74
2037.14	3004.74
2036.37	3013.89
2035.59	2923.43
2034.81	3077.13
2034.03	2993.12
2033.25	3011.89
2032.47	2998.55
2031.69	2998.05
2030.92	3007.18
2030.14	3029.14
2029.36	3054.31
2028.58	3047.39
2027.8	3043.67
2027.02	3072.03
2026.24	3010.6
2025.46	3080.63
2024.68	3041.66
2023.9	3073.2
2023.12	3088.71
2022.34	3107.42
2021.56	3033.23
2020.78	3144.81
2020	3073.85
2019.21	3018.92
2018.43	3200.86
2017.65	3043.52
2016.87	3171
2016.09	3080.9
2015.31	3093.18
2014.53	3233.39
2013.74	3120.93
2012.96	3197.15
2012.18	3075.15
2011.4	3029.89
2010.62	3185.97
2009.83	3086.39
2009.05	3216.86
2008.27	3197.16
2007.49	3174.27
2006.7	3090.73
2005.92	3163.64
2005.14	3070.55
2004.35	3146.63
2003.57	3082.29
2002.79	3158.35
2002	3298.17
2001.22	3272.11
2000.43	3166.34
1999.65	3213.64
1998.87	3117.47
1998.08	3193.45
1997.3	3256.65
1996.51	3262.48
1995.73	3274.68
1994.94	3143.55
1994.16	3213.08
1993.37	3333.54
1992.59	3256.58
1991.8	3341.98
1991.02	3223.68
1990.23	3197.69
1989.44	3270.32
1988.66	3292.04
1987.87	3313.76
1987.09	3255.97
1986.3	3366.7
1985.51	3229.46
1984.73	3391
1983.94	3295.11
1983.15	3269.15
1982.37	3240.02
1981.58	3299.82
1980.79	3350.08
1980	3292.37
1979.22	3390.23
1978.43	3313.49
1977.64	3408.14
1976.85	3398.06
1976.06	3410.18
1975.28	3362.03
1974.49	3345.62
1973.7	3398.96
1972.91	3477.65
1972.12	3321.76
1971.33	3409.94
1970.54	3333.33
1969.76	3516.52
1968.97	3408.24
1968.18	3334.83
1967.39	3372.27
1966.6	3378.04
1965.81	3459.78
1965.02	3411.73
1964.23	3262.44
1963.44	3454.89
1962.65	3447.98
1961.86	3399.97
1961.07	3548.02
1960.28	3427.29
1959.48	3486.78
1958.69	3502
1957.9	3400.29
1957.11	3507.15
1956.32	3535
1955.53	3521.78
1954.74	3470.66
1953.94	3479.55
1953.15	3441.09
1952.36	3336.35
1951.57	3616.67
1950.78	3650.78
1949.98	3546.06
1949.19	3633.79
1948.4	3595.34
1947.61	3616.81
1946.81	3647.73
1946.02	3457.99
1945.23	3529.9
1944.43	3500.95
1943.64	3519.27
1942.85	3654.14
1942.05	3571.64
1941.26	3684.41
1940.46	3686.95
1939.67	3506.89
1938.88	3562.96
1938.08	3537.19
1937.29	3476.82
1936.49	3677.58
1935.7	3683.25
1934.9	3654.33
1934.11	3660.01
1933.31	3605.96
1932.52	3639.93
1931.72	3667.61
1930.93	3648.14
1930.13	3678.95
1929.33	3687.76
1928.54	3775.08
1927.74	3787.01
1926.95	3660.79
1926.15	3751.21
1925.35	3621.9
1924.56	3621.3
1923.76	3724.23
1922.96	3751.84
1922.17	3744.94
1921.37	3794.49
1920.57	3624.54
1919.77	3746.2
1918.98	3591.99
1918.18	3738.68
1917.38	3860.25
1916.58	3640.31
1915.78	3724.27
1914.99	3820.73
1914.19	3816.96
1913.39	3697.36
1912.59	3778.12
1911.79	3780.62
1910.99	3839.44
1910.19	3860.7
1909.39	3750.57
1908.59	3709.28
1907.8	3693.03
1907	3861.24
1906.2	3738.68
1905.4	3756.81
1904.6	3824.93
1903.8	3711.81
1903	3842.39
1902.2	3788.65
1901.39	3759.91
1900.59	3871.68
1899.79	3896.01
1898.99	3892.24
1898.19	3947.76
1897.39	4000.14
1896.59	3877.8
1895.79	3864.67
1894.99	4097.93
1894.18	3975.63
1893.38	4003.02
1892.58	3908.84
1891.78	4020.38
1890.98	3891.95
1890.17	3959.84
1889.37	3937.37
1888.57	4005.23
1887.76	3951.62
1886.96	4069.27
1886.16	4043.68
1885.36	3980.76
1884.55	3768.48
1883.75	3886.08
1882.94	3916.54
1882.14	4090.06
1881.34	4080.04
1880.53	3970.53
1879.73	3935.67
1878.92	4096.64
1878.12	3974.75
1877.32	4039.34
1876.51	4079.04
1875.71	4097
1874.9	4027.99
1874.1	3847.21
1873.29	4001.8
1872.49	4078.73
1871.68	4059.42
1870.87	4089.77
1870.07	4163.54
1869.26	4029.46
1868.46	4242.78
1867.65	4059.11
1866.84	4083.24
1866.04	4178.65
1865.23	4103.56
1864.42	4071.88
1863.62	4148.66
1862.81	4151.06
1862	4088.41
1861.2	4109.41
1860.39	4235.66
1859.58	4293.77
1858.77	4163.05
1857.96	4171.63
1857.16	4164.74
1856.35	4216.63
1855.54	4188.09
1854.73	4011.11
1853.92	4214.51
1853.12	4223.08
1852.31	4228.55
1851.5	4326.73
1850.69	4384.72
1849.88	4226.41
1849.07	4380.15
1848.26	4243.52
1847.45	4323.1
1846.64	4205.05
1845.83	4303.12
1845.02	4077.09
1844.21	4178.24
1843.4	4387.34
1842.59	4269.38
1841.78	4308.76
1840.97	4329.62
1840.16	4276.47
1839.35	4392.9
1838.54	4364.42
1837.72	4277.4
1836.91	4292.08
1836.1	4356.05
1835.29	4312.2
1834.48	4256.04
1833.67	4415.44
1832.85	4390.06
1832.04	4426.26
1831.23	4357.81
1830.42	4400.15
1829.6	4359.42
1828.79	4500.18
1827.98	4496.35
1827.17	4314.17
1826.35	4267.32
1825.54	4408
1824.73	4477.95
1823.91	4437.25
1823.1	4442.64
1822.29	4405.03
1821.47	4484.15
1820.66	4461.89
1819.84	4445.79
1819.03	4506.44
1818.21	4444.29
1817.4	4452.75
1816.58	4445.86
1815.77	4595.43
1814.95	4459.7
1814.14	4520.28
1813.32	4608.44
1812.51	4537.15
1811.69	4472.02
1810.88	4431.42
1810.06	4495.02
1809.25	4451.37
1808.43	4505.76
1807.61	4587.69
1806.8	4556.29
1805.98	4561.65
1805.16	4689.44
1804.35	4532.56
1803.53	4700.1
1802.71	4665.65
1801.89	4417.09
1801.08	4661.01
1800.26	4586.84
1799.44	4625.81
1798.62	4548.61
1797.81	4541.73
1796.99	4513.46
1796.17	4604.35
1795.35	4664.67
1794.53	4819.65
1793.71	4663.1
1792.9	4686.74
1792.08	4765.32
1791.26	4685.15
1790.44	4635.53
1789.62	4622.55
1788.8	4756
1787.98	4828.4
1787.16	4614.1
1786.34	4902.99
1785.52	4795.46
1784.7	4663.58
1783.88	4854.79
1783.06	4914.91
1782.24	4749.57
1781.42	4782.27
1780.6	4845.42
1779.78	4713.67
1778.95	4837.69
1778.13	4782.08
1777.31	4823.88
1776.49	4746.99
1775.67	4791.83
1774.85	4845.77
1774.02	4851.03
1773.2	4895.83
1772.38	4885.88
1771.56	4839.45
1770.74	4975.4
1769.91	5011.03
1769.09	4879.53
1768.27	4890.86
1767.44	4959.89
1766.62	4934.75
1765.8	4851.94
1764.97	4996.83
1764.15	4926.18
1763.33	4961.76
1762.5	5203.66
1761.68	5175.47
1760.85	5168.53
1760.03	5182.82
1759.21	5215.29
1758.38	5035.54
1757.56	5274.15
1756.73	5130.82
1755.91	5320.85
1755.08	5295.71
1754.26	5291.78
1753.43	5312.08
1752.6	5541.32
1751.78	5661.48
1750.95	5566.68
1750.13	5599.03
1749.3	5806.87
1748.47	5675.79
1747.65	5922.88
1746.82	5840.21
1745.99	6180.93
1745.17	6436.87
1744.34	6441.83
1743.51	6682.53
1742.69	6980.56
1741.86	7163.68
1741.03	7458.51
1740.2	7747.2
1739.38	7939.16
1738.55	8375.61
1737.72	8449.66
1736.89	8716.86
1736.06	9219.35
1735.23	9507.44
1734.4	9587.28
1733.58	9998.88
1732.75	10271.6
1731.92	10366.4
1731.09	10521.4
1730.26	10682.4
1729.43	10900.5
1728.6	11136.7
1727.77	11412
1726.94	11313.7
1726.11	11682.2
1725.28	11647.1
1724.45	12111.8
1723.62	11905
1722.79	11845.8
1721.96	11825.7
1721.13	11850.8
1720.3	11551
1719.46	11515.9
1718.63	11162.2
1717.8	10985.9
1716.97	10695.4
1716.14	10369
1715.31	10009.7
1714.47	9734.57
1713.64	9014.96
1712.81	8707.07
1711.98	8378.27
1711.14	7848.41
1710.31	7787.04
1709.48	7374.52
1708.65	7196.21
1707.81	6798.93
1706.98	6545.79
1706.15	6484.69
1705.31	6264.66
1704.48	6182.64
1703.64	5965.75
1702.81	5904.78
1701.98	5858.83
1701.14	5824.87
1700.31	5731.01
1699.47	5858.83
1698.64	5744.03
1697.8	5758.03
1696.97	5721.12
1696.13	5657.29
1695.3	5566.54
1694.46	5673.32
1693.63	5642.43
1692.79	5575.67
1691.95	5449.11
1691.12	5457.15
1690.28	5501.07
1689.45	5637.63
1688.61	5412.52
1687.77	5468.38
1686.94	5616.83
1686.1	5568.08
1685.26	5719.45
1684.42	5557.22
1683.59	5672.71
1682.75	5507.57
1681.91	5596.17
1681.07	5684.74
1680.24	5540.55
1679.4	5482.93
1678.56	5502.88
1677.72	5433.35
1676.88	5474.17
1676.04	5497.08
1675.21	5612.39
1674.37	5578.65
1673.53	5458.52
1672.69	5728.68
1671.85	5543.03
1671.01	5428.92
1670.17	5639.4
1669.33	5537.22
1668.49	5625.57
1667.65	5422.24
1666.81	5507.61
1665.97	5548.32
1665.13	5547.37
1664.29	5745.68
1663.45	5530.61
1662.61	5523.72
1661.77	5463.33
1660.92	5548.59
1660.08	5633.81
1659.24	5442.71
1658.4	5548.72
1657.56	5660.62
1656.72	5689.35
1655.87	5703.23
1655.03	5657.73
1654.19	5739.86
1653.35	5543.03
1652.5	5871.41
1651.66	5680.56
1650.82	5516.47
1649.98	5625.24
1649.13	5582.78
1648.29	5584.79
1647.45	5711.28
1646.6	5656.96
1645.76	5774.51
1644.91	5791.29
1644.07	5603.71
1643.23	5810.04
1642.38	5625.48
1641.54	5586.04
1640.69	5780.43
1639.85	5832.71
1639	5846.5
1638.16	5857.34
1637.31	5720.28
1636.47	5893.78
1635.62	5919.38
1634.78	5826.73
1633.93	5988.29
1633.08	6005
1632.24	5986.25
1631.39	6153.61
1630.55	6140.75
1629.7	6136.74
1628.85	6247.89
1628.01	6226.16
1627.16	6281.18
1626.31	6274.2
1625.46	6394.1
1624.62	6623.12
1623.77	6678.03
1622.92	7157.6
1622.07	7353.94
1621.23	7671.08
1620.38	8212.13
1619.53	8891.51
1618.68	9797.55
1617.83	11342.6
1616.98	13022.6
1616.13	14970
1615.29	17028.7
1614.44	18650.9
1613.59	20010.6
1612.74	20372.2
1611.89	19812.5
1611.04	18961.8
1610.19	17658.4
1609.34	16267.1
1608.49	14564.7
1607.64	13274.5
1606.79	12055.2
1605.94	11121.4
1605.09	10408.4
1604.24	9613.34
1603.38	8971.31
1602.53	8778.86
1601.68	8416.16
1600.83	8077.07
1599.98	7444.54
1599.13	7457.94
1598.27	7283.53
1597.42	7164.92
1596.57	6934.87
1595.72	6857.42
1594.87	6694.96
1594.01	6597.05
1593.16	6516.77
1592.31	6448.24
1591.45	6458.86
1590.6	6369.85
1589.75	6418.56
1588.89	6452.6
1588.04	6372.43
1587.19	6134.16
1586.33	6147.75
1585.48	6298.9
1584.62	6338.79
1583.77	6381.59
1582.92	6286.88
1582.06	6221.45
1581.21	6179.44
1580.35	6277.79
1579.5	6297.18
1578.64	6225.94
1577.78	6309.63
1576.93	6320.23
1576.07	6319.15
1575.22	6268.4
1574.36	6363.7
1573.51	6426.85
1572.65	6177.59
1571.79	6138.58
1570.94	6140.45
1570.08	6145.23
1569.22	6129.58
1568.37	6195.62
1567.51	5972.9
1566.65	6030.2
1565.79	6189.51
1564.94	6039.78
1564.08	6097.03
1563.22	6212.54
1562.36	6202.73
1561.5	6006.5
1560.65	6218.08
1559.79	6301.45
1558.93	6114.04
1558.07	6034.39
1557.21	6199.25
1556.35	6163.26
1555.49	6162.2
1554.63	6108.78
1553.77	6194.98
1552.91	6141.57
1552.05	6166.68
1551.19	6151.09
1550.33	6144.22
1549.47	6244.87
1548.61	5967.77
1547.75	6141.04
1546.89	6018
1546.03	6080.85
1545.17	6204.65
1544.31	6023.6
1543.45	6251.86
1542.58	6314.62
1541.72	6087.22
1540.86	6086.17
1540	6177.94
1539.14	6217.48
1538.28	6071.43
1537.41	6006.61
1536.55	6185.28
1535.69	6276.95
1534.82	6215.02
1533.96	6150.21
1533.1	6149.15
1532.24	6174.16
1531.37	6184.68
1530.51	6174.93
1529.64	6127.55
1528.78	6331.96
1527.92	6261.43
1527.05	6321.1
1526.19	6299.76
1525.32	6116.48
1524.46	6164.58
1523.59	6232.9
1522.73	6142.23
1521.86	6337.68
1521	6128.55
1520.13	6104.38
1519.27	6276.63
1518.4	6261.11
1517.54	6297.57
1516.67	6082.85
1515.8	6226.12
1514.94	6161.55
1514.07	6200.89
1513.21	6205.59
1512.34	6570.85
1511.47	6301.5
1510.6	6234.09
1509.74	6244.55
1508.87	6240.59
1508	6181.87
1507.14	6278.77
1506.27	6286.33
1505.4	6374.54
1504.53	6281.28
1503.66	6378.1
1502.8	6402.91
1501.93	6361.5
1501.06	6383.43
1500.19	6520.45
1499.32	6315.05
1498.45	6313.96
1497.58	6275.48
1496.71	6317.53
1495.84	6422.81
1494.97	6358.46
1494.1	6337.25
1493.23	6339.02
1492.36	6360.91
1491.49	6178.84
1490.62	6361.59
1489.75	6400.69
1488.88	6250.29
1488.01	6366.9
1487.14	6371.54
1486.27	6310.17
1485.4	6386.55
1484.52	6546.08
1483.65	6510.53
1482.78	6411.91
1481.91	6459.54
1481.04	6389.62
1480.17	6483.1
1479.29	6387.41
1478.42	6374.85
1477.55	6370.88
1476.67	6429.92
1475.8	6468.9
1474.93	6444.88
1474.06	6575.44
1473.18	6642.99
1472.31	6598.92
1471.43	6552
1470.56	6599.49
1469.69	6695.6
1468.81	6648.68
1467.94	6601.78
1467.06	6849.34
1466.19	6708.11
1465.31	6741.24
1464.44	6768.64
1463.56	6884.59
1462.69	6874.83
1461.81	6919.33
1460.94	6898.14
1460.06	7088.21
1459.19	7158.34
1458.31	7111.44
1457.43	7050.29
1456.56	7123.24
1455.68	7164.79
1454.8	7192.06
1453.93	7216.48
1453.05	7152.51
1452.17	7373.59
1451.3	7061.69
1450.42	7239.96
1449.54	7218.77
1448.66	7442.53
1447.78	7264.68
1446.91	7180.84
1446.03	7108.43
1445.15	7132.81
1444.27	7071.81
1443.39	7281.14
1442.51	7040.91
1441.64	7167.68
1440.76	7112.41
1439.88	7148.13
1439	7155.42
1438.12	7202.5
1437.24	7118.84
1436.36	7177.27
1435.48	6971.48
1434.6	7132.17
1433.72	6926.46
1432.84	6990.56
1431.96	6960.96
1431.08	6908.66
1430.2	6879.08
1429.31	6872.21
1428.43	6703.64
1427.55	6849.97
1426.67	6797.73
1425.79	6660.45
1424.91	6815.21
1424.02	6706.32
1423.14	6784.51
1422.26	6655.82
1421.38	6742.49
1420.49	6645.01
1419.61	6785.45
1418.73	6832.41
1417.85	7046.38
1416.96	6923.44
1416.08	7026.95
1415.2	6935.18
1414.31	7148.98
1413.43	7371.19
1412.54	7398.19
1411.66	7464.77
1410.78	7517.18
1409.89	7617.63
1409.01	7585.22
1408.12	7569.77
1407.24	7608
1406.35	7242.31
1405.47	7246.69
1404.58	7253.9
1403.7	7159.48
1402.81	7132.83
1401.92	7117.47
1401.04	7059.8
1400.15	6914.69
1399.27	7094.01
1398.38	6988.43
1397.49	6894.16
1396.61	7070.57
1395.72	6880.49
1394.83	6887.74
1393.94	7013.34
1393.06	6967.04
1392.17	6901.05
1391.28	6885.76
1390.39	7101.38
1389.51	6897.44
1388.62	6789.27
1387.73	6903.48
1386.84	7000.76
1385.95	6780.1
1385.06	7015.19
1384.17	6909.92
1383.29	6759.68
1382.4	6921.56
1381.51	6920.36
1380.62	7034.38
1379.73	7016.29
1378.84	6981.35
1377.95	6974.52
1377.06	7105.3
1376.17	7118.1
1375.28	7344.26
1374.39	7351.4
1373.5	7075.08
1372.6	7177.67
1371.71	7252.16
1370.82	7284.56
1369.93	7252.44
1369.04	7310.06
1368.15	7283.55
1367.26	7049.63
1366.36	7224.96
1365.47	7058.37
1364.58	7146.79
1363.69	7041.9
1362.79	7065.88
1361.9	6938.64
1361.01	7041.01
1360.11	6997.8
1359.22	6985.38
1358.33	6768.7
1357.43	6873.83
1356.54	7032.07
1355.65	6941.35
1354.75	6828.29
1353.86	6852.26
1352.96	6974.05
1352.07	6950.47
1351.17	6924.11
1350.28	7012.3
1349.39	6913.31
1348.49	6803.18
1347.59	7053.3
1346.7	6870.6
1345.8	6939.18
1344.91	6890.52
1344.01	6917.22
1343.12	6787.68
1342.22	6920.38
1341.32	7013.99
1340.43	6962.58
1339.53	6992.02
1338.63	7010.31
1337.74	7114.99
1336.84	7060.8
1335.94	6981.56
1335.04	6966.41
1334.15	7059.88
1333.25	7103.2
1332.35	7243.94
1331.45	7122.98
1330.55	6926.92
1329.66	7234.57
1328.76	7124.8
1327.86	7173.62
1326.96	7241.9
1326.06	7173.89
1325.16	7169.86
1324.26	7377.07
1323.36	7398.01
1322.46	7402.27
1321.56	7420.42
1320.66	7624.67
1319.76	7703.87
1318.86	7635.88
1317.96	7529.05
1317.06	7622.11
1316.16	7787.28
1315.26	7677.7
1314.36	7853.91
1313.46	7885.82
1312.55	8389.17
1311.65	8301.75
1310.75	8430.59
1309.85	8470.69
1308.95	8735.25
1308.04	8875.03
1307.14	8845.77
1306.24	8880.23
1305.34	8903.6
1304.43	8982.34
1303.53	9019.52
1302.63	8954.27
1301.72	8767.28
1300.82	8978.8
1299.92	8955.1
1299.01	9268.85
1298.11	9474.63
1297.21	9605.69
1296.3	9750.53
1295.4	10083.3
1294.49	10241.8
1293.59	10292.5
1292.68	10608.4
1291.78	10835.8
1290.87	10933.3
1289.97	11036.3
1289.06	11280.1
1288.16	11308.4
1287.25	11135.3
1286.34	11249.3
1285.44	11219.7
1284.53	11237
1283.62	11091.7
1282.72	10855.4
1281.81	10836.9
1280.9	10724.8
1280	10458.3
1279.09	10384.8
1278.18	9911.93
1277.27	10064.4
1276.37	9894.68
1275.46	9647.89
1274.55	9888.45
1273.64	9594.95
1272.73	9463.92
1271.82	9272.41
1270.92	9091.97
1270.01	9013.35
1269.1	8918.27
1268.19	8999.18
1267.28	8805.17
1266.37	8690.93
1265.46	8672.91
1264.55	8534.01
1263.64	8400.64
1262.73	8445.86
1261.82	8246.65
1260.91	8286.39
1260	8106.49
1259.09	8050.17
1258.18	8076.2
1257.27	7915.64
1256.35	7820.97
1255.44	7548.07
1254.53	7604.32
1253.62	7553.63
1252.71	7596.16
1251.79	7589.34
1250.88	7415.37
1249.97	7403.1
1249.06	7546.98
1248.14	7507.31
1247.23	7325.25
1246.32	7480.02
1245.41	7582.73
1244.49	7367.91
1243.58	7558.17
1242.66	7348.9
1241.75	7484.38
1240.84	7313.49
1239.92	7364.16
1239.01	7127.73
1238.09	7331.49
1237.18	7231.81
1236.26	7293.38
1235.35	7207.4
1234.43	7296.27
1233.52	7325.03
1232.6	7296.43
1231.69	7087.65
1230.77	7042.72
1229.86	7259.82
1228.94	7083.9
1228.02	7145.4
1227.11	7007.75
1226.19	7003.78
1225.27	6964.37
1224.36	7014.94
1223.44	7100.93
1222.52	7140.56
1221.6	7033.03
1220.69	7064.48
1219.77	7036
1218.85	7004.79
1217.93	7098.86
1217.01	6996.88
1216.1	7003.81
1215.18	7100.55
1214.26	6987.73
1213.34	7147.01
1212.42	7077.74
1211.5	6945.95
1210.58	7067.09
1209.66	6995.15
1208.74	7173.32
1207.82	6916.59
1206.9	7113.72
1205.98	6982.06
1205.06	7146.52
1204.14	7031.19
1203.22	7029.95
1202.3	7123.73
1201.38	6984.04
1200.46	7148.35
1199.54	7057.54
1198.61	7059.01
1197.69	7030.63
1196.77	7202.96
1195.85	7071.53
1194.93	7102.81
1194	7193.71
1193.08	7151.79
1192.16	7321.23
1191.24	7238.66
1190.31	7213
1189.39	7070.9
1188.47	7372.91
1187.54	7358.07
1186.62	7486.69
1185.7	7341.93
1184.77	7419.1
1183.85	7526
1182.92	7754.57
1182	7742.38
1181.07	7924.87
1180.15	7882.92
1179.23	8222.08
1178.3	8144.96
1177.37	8351.56
1176.45	8390.6
1175.52	8453.94
1174.6	8330.92
1173.67	8399.65
1172.75	8246.99
1171.82	8016.11
1170.89	8206.28
1169.97	7864.87
1169.04	7785.25
1168.11	7576.19
1167.19	7577.55
1166.26	7341.64
1165.33	7353.81
1164.4	7260.87
1163.48	7440.13
1162.55	7506.17
1161.62	7324.36
1160.69	7231.49
1159.76	7200.58
1158.83	7350.08
1157.91	7273.4
1156.98	7148.31
1156.05	7330.02
1155.12	7299.13
1154.19	7324.73
1153.26	7234.68
1152.33	7386.67
1151.4	7320.83
1150.47	7303.41
1149.54	7251.05
1148.61	7330.37
1147.68	7390.86
1146.75	7161.23
1145.82	7125.04
1144.89	7343.96
1143.96	7280.91
1143.02	7306.46
1142.09	7401.78
1141.16	7556.1
1140.23	7463.54
1139.3	7687.53
1138.36	7592.3
1137.43	7682.12
1136.5	7766.54
1135.57	7885.78
1134.63	8093.41
1133.7	8030.35
1132.77	8082.5
1131.83	8244.45
1130.9	8082.31
1129.97	8169.23
1129.03	8304.31
1128.1	8351.01
1127.17	8654.61
1126.23	8653.07
1125.3	8903
1124.36	9027.12
1123.43	8950.64
1122.49	9200.38
1121.56	9121.22
1120.62	9258.58
1119.69	9216.85
1118.75	9522.47
1117.81	9424.61
1116.88	9356.16
1115.94	9365.18
1115.01	9315.45
1114.07	9220.37
1113.13	9325.48
1112.2	9147.7
1111.26	9183.43
1110.32	9248.48
1109.38	9188.16
1108.45	9034.53
1107.51	9150.23
1106.57	8863.37
1105.63	9080.34
1104.69	9086.72
1103.76	8954.55
1102.82	8928.98
1101.88	8927.39
1100.94	8776.68
1100	8711.22
1099.06	8784.2
1098.12	8588.36
1097.18	8509.66
1096.24	8540.07
1095.3	8477.37
1094.36	8380.11
1093.42	8373.3
1092.48	8430.3
1091.54	8391.58
1090.6	8305.04
1089.66	8226.51
1088.72	8203.79
1087.78	7981.86
1086.84	7876.86
1085.9	8013.53
1084.95	7783.79
1084.01	7904.5
1083.07	7603.21
1082.13	7872.5
1081.19	7650.9
1080.24	7628.32
1079.3	7658.78
1078.36	7787.34
1077.41	7648.09
1076.47	7773.95
1075.53	7640.07
1074.58	7691.69
1073.64	7555.22
1072.7	7540.63
1071.75	7568.41
1070.81	7397.61
1069.86	7544.53
1068.92	7466.43
1067.98	7525.96
1067.03	7556.36
1066.09	7515.33
1065.14	7447.87
1064.19	7523.23
1063.25	7603.84
1062.3	7435.95
1061.36	7429.34
1060.41	7549.56
1059.46	7640.68
1058.52	7290.64
1057.57	7540.23
1056.63	7464.95
1055.68	7521.7
1054.73	7594.26
1053.78	7471.5
1052.84	7567.8
1051.89	7648.23
1050.94	7459.59
1049.99	7619.13
1049.05	7667.86
1048.1	7624.31
1047.15	7588.68
1046.2	7827.15
1045.25	7928.51
1044.3	7661.01
1043.35	7880.89
1042.4	7940.05
1041.45	7741.16
1040.5	7908.25
1039.55	7991.07
1038.6	7771.21
1037.65	7738.25
1036.7	7944.69
1035.75	7919.59
1034.8	7899.77
1033.85	7682.75
1032.9	7970.55
1031.95	7953.35
1031	7867.83
1030.05	7637.84
1029.1	7854.51
1028.14	7984.42
1027.19	7959.36
1026.24	7986.81
1025.29	7893.51
1024.33	7978.7
1023.38	7930.04
1022.43	7721.35
1021.48	7885.23
1020.52	7889.06
1019.57	7858.8
1018.62	7862.64
1017.66	7866.47
1016.71	7925.34
1015.75	7929.16
1014.8	7733.87
1013.85	7928.94
1012.89	7940.61
1011.94	7682.58
1010.98	7641.93
1010.03	7784.52
1009.07	7754.34
1008.12	7771.26
1007.16	7801.26
1006.2	7721.39
1005.25	7782.77
1004.29	7836.29
1003.34	7973.43
1002.38	8118.37
1001.42	8132.6
1000.47	7914.27
999.508	7881.5
998.551	7987.18
997.594	7951.79
996.636	8036.53
995.679	7682.67
994.721	7618.65
993.763	7713.84
992.805	7743.76
991.846	7846.71
990.888	7879.21
989.929	7677
988.97	7633.91
988.011	7637.75
987.052	7722.39
986.093	7697.55
985.133	7758.69
984.173	7587.98
983.213	7680.38
982.253	7647.75
981.293	7813
980.333	7465.39
979.372	7729.51
978.411	7746.33
977.45	7781.36
976.489	7709.73
975.528	7684.94
974.566	7727.76
973.605	7744.57
972.643	7686
971.681	7708
970.719	7745.59
969.756	7497.4
968.794	7662.29
967.831	7723.23
966.868	7586.83
965.905	7699.69
964.942	7776.17
963.979	7634.63
963.015	7757.8
962.052	7491.8
961.088	7729.07
960.124	7683.6
959.159	7819.63
958.195	7610.84
957.23	7726.1
956.266	7727.3
955.301	7588.59
954.336	7576.86
953.37	7922.55
952.405	7711.38
951.439	7544.29
950.473	7843.2
949.507	7582.98
948.541	7703.23
947.575	7701.85
946.608	7599.58
945.642	7577.52
944.675	7731.3
943.708	7947.06
942.741	7555.33
941.773	7817.57
940.806	7751.56
939.838	7724.33
938.87	7648.03
937.902	7786.11
936.934	7813.11
935.965	7883.98
934.997	7825.77
934.028	7731.46
933.059	7750.71
932.09	7821.54
931.121	7923.3
930.151	7738.78
929.182	7755.43
928.212	7705.05
927.242	7677.89
926.272	7689.39
925.301	7744.68
924.331	7789.65
923.36	7850.05
922.389	7982.54
921.418	7824.05
920.447	7755.71
919.475	8003.95
918.504	7925.31
917.532	7869.85
916.56	7966.18
915.588	7849.01
914.616	7886.16
913.643	8157.24
912.671	8160.91
911.698	7984.68
910.725	7944.7
909.752	8015.19
908.779	8229.5
907.805	8274.24
906.831	8257.34
905.858	8499.72
904.883	8236.39
903.909	8558.24
902.935	8584.91
901.96	8557.71
900.986	8681.84
900.011	8639.24
899.036	8701.77
898.06	8797.61
897.085	8644.8
896.109	8835.42
895.133	8977.3
894.157	9178.04
893.181	8966.37
892.205	9100.46
891.229	9103.93
890.252	9214.91
889.275	9190.21
888.298	9229.49
887.321	9396.67
886.343	9525.42
885.366	9487.89
884.388	9642.14
883.41	9714.53
882.432	9567.08
881.454	9514.24
880.475	9361.77
879.497	9400.95
878.518	9611.24
877.539	9407.76
876.56	9217.11
875.58	9371.16
874.601	9423.06
873.621	9298.87
872.641	9378.83
871.661	9494.47
870.681	9564.16
869.701	9572.63
868.72	9624.43
867.739	9372.88
866.758	9516.45
865.777	9917.33
864.796	10119.3
863.815	10239.8
862.833	10614.8
861.851	11066.2
860.869	11552.9
859.887	11932.7
858.905	12317.3
857.922	12551.7
856.939	12966.6
855.956	12654
854.973	12722.9
853.99	12133.2
853.007	12108.2
852.023	11945.8
851.039	11666.7
850.055	11408
849.071	10935.9
848.087	10875.5
847.102	10718.7
846.118	10625.3
845.133	10270.5
844.148	10151.9
843.163	9898.86
842.177	9775.29
841.192	9705.02
840.206	9736.23
839.22	9567.11
838.234	9517.2
837.248	9332.97
836.261	9313.53
835.274	9484.14
834.288	9315.22
833.301	9386.98
832.313	9370.08
831.326	9125.3
830.339	9455.28
829.351	9532.02
828.363	9575.84
827.375	9452.65
826.387	9536.94
825.398	9517.5
824.409	9376.69
823.421	9514.04
822.432	9423.84
821.443	9503
820.453	9417.88
819.464	9325.22
818.474	9310.89
817.484	9453.15
816.494	9393.35
815.504	9409.32
814.513	9349.55
813.523	9554.79
812.532	9452.12
811.541	9417.61
810.55	9385.62
809.559	9262.86
808.567	9369.6
807.575	9314.95
806.583	9300.65
805.591	9351.88
804.599	9261.99
803.607	9396.34
802.614	9243.51
801.621	9267.01
800.628	9204.89
799.635	9205.73
798.642	9440.64
797.649	9270.32
796.655	9691.3
795.661	9734.82
794.667	9977
793.673	9748.87
792.678	9847.66
791.684	9516.58
790.689	9469.61
789.694	9088.46
788.699	9039.07
787.704	8836.48
786.708	8862.49
785.713	8690.14
784.717	8758.84
783.721	8749.72
782.724	8552.38
781.728	8530.75
780.731	8484.04
779.735	8688.15
778.738	8616.35
777.741	8366.57
776.743	8264.77
775.746	8609.13
774.748	8457.21
773.75	8643.57
772.752	8476.67
771.754	8662.95
770.756	8528.66
769.757	8394.42
768.758	8342.82
767.759	8681.66
766.76	8384.81
765.761	8608.44
764.761	8516.82
763.762	8435.24
762.762	8483.7
761.762	8562.15
760.762	8480.6
759.761	8369.1
758.761	8377.56
757.76	8555.89
756.759	8481.9
755.758	8527.8
754.756	8376.43
753.755	8649.49
752.753	8518.13
751.751	8541.52
750.749	8579.88
749.747	8640.67
748.745	8536.84
747.742	8727.28
746.739	8693.27
745.736	8709.13
744.733	8553.02
743.73	8586.34
742.726	8647.05
741.723	8615.58
740.719	8631.44
739.715	8724.47
738.71	8618.32
737.706	8713.81
736.701	8717.2
735.697	8603.64
734.692	8666.74
733.686	8709.92
732.681	8884.88
731.675	8753.97
730.67	8963.66
729.664	8862.6
728.658	8776.5
727.651	8600.98
726.645	8641.63
725.638	8714.55
724.631	8690.61
723.624	8564.89
722.617	8672.53
721.61	8757.8
720.602	8738.83
719.595	8742.19
718.587	8715.78
717.578	8716.67
716.57	8861.35
715.562	8894.43
714.553	8999.38
713.544	8886.22
712.535	9154.64
711.526	9207.46
710.516	9190.91
709.507	9513.61
708.497	9648.03
707.487	9661.11
706.477	9785.56
705.467	10070.8
704.456	10125.8
703.445	10346.6
702.434	10584.6
701.423	10473.9
700.412	10365.6
699.401	10116.6
698.389	9415.35
697.377	9455.62
696.365	9268.61
695.353	9059.44
694.34	9033.09
693.328	8930.2
692.315	8955.71
691.302	8793.65
690.289	9001.78
689.276	8827.42
688.262	8761.67
687.249	8895.7
686.235	8829.96
685.221	8904.76
684.206	8940.1
683.192	8911.34
682.177	8924.49
681.162	8873.58
680.147	8832.54
679.132	9084.57
678.117	9031.19
677.101	9066.46
676.086	8919.57
675.07	8831.81
674.054	8896.61
673.037	8887.6
672.021	8974.5
671.004	9022.03
669.987	8855.65
668.97	9114.58
667.953	8906.46
666.936	8762.3
665.918	9035.85
664.9	8997.34
663.882	8804.13
662.864	8910.55
661.846	8950.64
660.827	9091.35
659.808	8984.15
658.789	9078.19
657.77	9056.89
656.751	9202.39
655.731	8999.61
654.712	9051.89
653.692	9167.89
652.672	9139.24
651.652	9120.4
650.631	9077.07
649.611	9264.01
648.59	9232.92
647.569	9030.43
646.548	9063.04
645.526	9271.87
644.505	8998.52
643.483	9160.8
642.461	9110.18
641.439	9245.47
640.417	9248.66
639.394	9215.17
638.371	9399.26
637.348	9715.26
636.325	10109.3
635.302	10574.1
634.279	11798.4
633.255	13488.8
632.231	14519.2
631.207	14262.6
630.183	12761.2
629.159	10843.1
628.134	10218.9
627.109	9946.19
626.084	9585.8
625.059	9418.2
624.034	9379.89
623.008	9239.2
621.983	9040.07
620.957	9204.11
619.931	9331.54
618.904	9183.66
617.878	9311.05
616.851	9511.44
615.824	9202.92
614.797	9420.3
613.77	9260.37
612.743	9275.69
611.715	9239.92
610.687	9140.91
609.659	9134.36
608.631	9127.81
607.603	9072.64
606.574	9151.17
605.546	9134.9
604.517	9130.78
603.487	9182.54
602.458	9248.85
601.429	9174.29
600.399	9160.45
599.369	9277.7
598.339	9479.86
597.309	9461.12
596.278	9296.82
595.248	9113.17
594.217	9337.03
593.186	9415.32
592.155	9369.94
591.123	9230.05
590.091	9235.61
589.06	9088.53
588.028	9239.46
586.996	9104.54
585.963	9233.62
584.931	9069.69
583.898	9297.98
582.865	9397.91
581.832	9091.28
580.798	9377.5
579.765	9424.14
578.731	9635.22
577.697	9483.52
576.663	9290.77
575.629	9542.85
574.594	9268
573.56	9626.3
572.525	9223.5
571.49	9260.43
570.455	9500.21
569.419	9261.83
568.384	9264.94
567.348	9287.36
566.312	9507.65
565.276	9170.52
564.239	9306.32
563.203	9343.18
562.166	9334.22
561.129	9433.74
560.092	9552.51
559.054	9357.95
558.017	9732.1
556.979	9667.66
555.941	9603.24
554.903	9623.13
553.865	9553.93
552.826	9513.64
551.787	9360.24
550.749	9493.26
549.709	9419.32
548.67	9343
547.631	9492.79
546.591	9236.14
545.551	9409.93
544.511	9182.23
543.471	9288.67
542.43	9354.23
541.39	9513.45
540.349	9559.72
539.308	9526.73
538.267	9546.57
537.225	9592.81
536.184	9583.83
535.142	9517.25
534.1	9520.28
533.058	9405.77
532.015	9679.83
530.973	9423.86
529.93	9323.81
528.887	9305.3
527.844	8980.03
526.801	9093.37
525.757	9146.78
524.713	9097.18
523.669	9148.17
522.625	9287.74
521.581	9314.74
520.537	9406.35
519.492	9548.18
518.447	9481.81
517.402	9377.18
516.357	9550.03
515.311	9655.86
514.265	9544.09
513.22	9415.62
512.174	9299.15
511.127	9381.06
510.081	9271.8
509.034	8961.95
507.987	8895.8
506.94	8915.64
505.893	8878.17
504.846	8950.51
503.798	8951.23
502.75	9028.29
501.702	8885.87
500.654	9077.4
499.606	9073.33
