3200.54	42.0979
3199.95	75.7762
3199.35	63.1373
3198.76	63.1278
3198.16	63.1182
3197.57	79.9377
3196.98	84.1322
3196.38	67.2956
3195.79	63.0801
3195.19	58.8658
3194.6	100.898
3194	71.4583
3193.41	88.2587
3192.81	96.6497
3192.22	71.4259
3191.62	100.821
3191.03	79.8048
3190.43	83.9924
3189.84	79.7807
3189.24	88.1653
3188.65	92.3497
3188.05	71.3503
3187.45	92.3218
3186.86	71.3288
3186.26	88.0987
3185.67	79.6963
3185.07	96.4598
3184.47	58.7058
3183.88	67.0822
3183.28	58.688
3182.69	79.636
3182.09	79.6239
3181.49	83.802
3180.9	87.9788
3180.3	104.721
3179.7	50.2584
3179.1	50.2507
3178.51	92.1124
3177.91	87.9122
3177.31	113.013
3176.72	46.0353
3176.12	112.979
3175.52	92.0427
3174.92	54.3806
3174.33	96.1973
3173.73	96.1828
3173.13	104.531
3172.53	87.7925
3171.93	75.2393
3171.34	75.2279
3170.74	79.3952
3170.14	91.9173
3169.54	96.0808
3168.94	71.0055
3168.34	100.228
3167.74	70.984
3167.15	75.1481
3166.55	66.7882
3165.95	70.9517
3165.35	87.633
3164.75	116.826
3164.15	83.4347
3163.55	87.5931
3162.95	95.9208
3162.35	95.9063
3161.75	83.3841
3161.15	70.8658
3160.55	62.5191
3159.95	66.677
3159.35	79.1669
3158.75	79.1549
3158.15	91.6391
3157.55	104.12
3156.95	104.104
3156.35	104.088
3155.75	45.7918
3155.15	74.9206
3154.55	91.5558
3153.95	108.186
3153.35	112.33
3152.75	112.313
3152.15	87.3411
3151.54	79.0109
3150.94	91.4725
3150.34	116.402
3149.74	91.4447
3149.14	108.055
3148.54	103.883
3147.94	70.6297
3147.33	91.3892
3146.73	91.3754
3146.13	99.6671
3145.53	62.2825
3144.93	58.1215
3144.32	99.6217
3143.72	103.757
3143.12	95.4418
3142.52	78.8313
3141.91	95.4128
3141.31	87.1028
3140.71	128.561
3140.1	95.3694
3139.5	140.959
3138.9	91.1952
3138.29	120.194
3137.69	145.039
3137.09	107.727
3136.48	115.996
3135.88	66.2734
3135.28	95.2536
3134.67	103.521
3134.07	144.907
3133.47	120.048
3132.86	103.474
3132.26	82.7663
3131.65	99.3045
3131.05	70.33
3130.45	91.0014
3129.84	86.8518
3129.24	82.7034
3128.63	99.229
3128.03	86.8122
3127.42	70.2659
3126.82	82.6532
3126.21	82.6406
3125.61	132.205
3125	103.269
3124.4	132.165
3123.79	99.1084
3123.19	90.8356
3122.58	111.463
3121.97	103.191
3121.37	86.6671
3120.76	111.412
3120.16	103.144
3119.55	103.128
3118.94	94.8634
3118.34	127.84
3117.73	111.328
3117.13	123.678
3116.52	82.4398
3115.91	98.9127
3115.31	135.984
3114.7	135.964
3114.09	135.943
3113.48	82.3771
3112.88	111.192
3112.27	123.528
3111.66	144.094
3111.06	123.49
3110.45	123.472
3109.84	115.223
3109.23	98.7472
3108.63	102.846
3108.02	115.17
3107.41	98.7021
3106.8	127.471
3106.19	123.34
3105.59	106.878
3104.98	147.963
3104.37	119.174
3103.76	147.918
3103.15	110.922
3102.54	102.69
3101.93	156.064
3101.33	110.871
3100.72	131.383
3100.11	123.152
3099.5	139.551
3098.89	119.011
3098.28	114.89
3097.67	160.001
3097.06	151.772
3096.45	127.141
3095.84	139.424
3095.23	159.903
3094.62	127.083
3094.01	155.756
3093.4	147.535
3092.79	139.318
3092.18	102.424
3091.57	155.661
3090.96	155.637
3090.35	135.138
3089.74	176.062
3089.13	176.035
3088.52	151.449
3087.91	167.796
3087.3	155.495
3086.69	196.384
3086.08	171.81
3085.46	204.505
3084.85	167.668
3084.24	200.353
3083.63	200.323
3083.02	188.029
3082.41	188.001
3081.79	228.836
3081.18	175.686
3080.57	187.915
3079.96	191.971
3079.35	224.612
3078.73	187.829
3078.12	171.47
3077.51	159.197
3076.9	187.743
3076.28	208.118
3075.67	208.086
3075.06	212.134
3074.45	195.786
3073.83	175.365
3073.22	134.562
3072.61	150.849
3071.99	183.437
3071.38	171.182
3070.77	207.832
3070.15	146.683
3069.54	154.808
3068.93	183.297
3068.31	171.051
3067.7	126.233
3067.08	179.142
3066.47	142.477
3065.86	175.017
3065.24	170.921
3064.63	158.688
3064.01	109.844
3063.4	174.91
3062.78	170.816
3062.17	154.524
3061.55	150.435
3060.94	170.738
3060.32	158.518
3059.71	178.814
3059.09	174.723
3058.48	162.508
3057.86	146.235
3057.25	154.336
3056.63	170.555
3056.02	158.349
3055.4	158.325
3054.78	158.3
3054.17	125.809
3053.55	121.732
3052.94	129.828
3052.32	125.752
3051.7	146.012
3051.09	150.045
3050.47	150.022
3049.85	158.107
3049.24	149.976
3048.62	133.742
3048	170.191
3047.39	141.804
3046.77	149.884
3046.15	117.459
3045.53	182.236
3044.92	178.159
3044.3	161.938
3043.68	141.674
3043.06	157.841
3042.45	137.584
3041.83	137.563
3041.21	169.905
3040.59	133.476
3039.97	161.764
3039.35	161.74
3038.74	153.629
3038.12	153.606
3037.5	161.665
3036.88	153.559
3036.26	157.575
3035.64	193.909
3035.02	181.762
3034.41	185.773
3033.79	141.327
3033.17	185.716
3032.55	181.651
3031.93	149.334
3031.31	149.312
3030.69	157.358
3030.07	177.505
3029.45	141.176
3028.83	137.121
3028.21	181.456
3027.59	185.46
3026.97	157.214
3026.35	161.22
3025.73	149.106
3025.11	149.083
3024.49	173.232
3023.87	177.234
3023.25	169.152
3022.63	169.126
3022	161.047
3021.38	165.048
3020.76	169.048
3020.14	152.925
3019.52	229.352
3018.9	209.201
3018.28	160.899
3017.66	185.006
3017.03	144.765
3016.41	197.011
3015.79	188.941
3015.17	225.086
3014.55	160.751
3013.92	204.927
3013.3	180.79
3012.68	172.728
3012.06	200.816
3011.43	224.879
3010.81	200.754
3010.19	172.622
3009.57	228.79
3008.94	220.728
3008.32	260.821
3007.7	200.6
3007.07	224.638
3006.45	164.442
3005.83	224.569
3005.2	180.43
3004.58	196.438
3003.96	188.391
3003.33	184.354
3002.71	180.319
3002.08	192.311
3001.46	224.328
3000.84	204.267
3000.21	212.245
2999.59	168.168
2998.96	212.18
2998.34	204.142
2997.71	212.115
2997.09	164.064
2996.46	228.053
2995.84	220.018
2995.21	203.985
2994.59	187.957
2993.96	211.919
2993.34	223.88
2992.71	183.874
2992.09	203.828
2991.46	195.805
2990.84	171.803
2990.21	219.714
2989.58	223.674
2988.96	203.672
2988.33	211.627
2987.71	231.556
2987.08	187.611
2986.45	227.493
2985.83	223.468
2985.2	211.464
2984.57	199.464
2983.95	223.365
2983.32	235.295
2982.69	239.246
2982.07	267.117
2981.44	215.255
2980.81	263.049
2980.18	223.159
2979.56	223.125
2978.93	246.993
2978.3	238.989
2977.67	246.917
2977.05	246.879
2976.42	214.99
2975.79	266.706
2975.16	246.765
2974.53	230.809
2973.91	254.647
2973.28	258.586
2972.65	294.345
2972.02	270.437
2971.39	270.396
2970.76	278.306
2970.13	254.412
2969.5	282.195
2968.88	266.255
2968.25	290.054
2967.62	282.064
2966.99	321.742
2966.36	254.177
2965.73	329.585
2965.1	297.772
2964.47	258.029
2963.84	250.051
2963.21	313.508
2962.58	293.621
2961.95	293.575
2961.32	265.764
2960.69	289.519
2960.06	305.336
2959.43	309.254
2958.8	261.636
2958.17	317.086
2957.53	233.815
2956.9	249.628
2956.27	269.398
2955.64	281.24
2955.01	312.881
2954.38	261.354
2953.75	289.029
2953.12	281.067
2952.48	257.275
2951.85	269.108
2951.22	265.109
2950.59	269.025
2949.96	296.673
2949.33	316.402
2948.69	276.809
2948.06	217.459
2947.43	280.677
2946.8	284.586
2946.16	248.975
2945.53	308.207
2944.9	280.504
2944.26	260.71
2943.63	284.367
2943	244.834
2942.37	244.796
2941.73	264.497
2941.1	272.35
2940.47	264.415
2939.83	228.862
2939.2	264.334
2938.56	244.57
2937.93	272.14
2937.3	268.155
2936.66	264.171
2936.03	260.188
2935.39	260.148
2934.76	283.754
2934.13	271.889
2933.49	240.328
2932.86	279.683
2932.22	248.131
2931.59	271.721
2930.95	275.616
2930.32	236.206
2929.68	267.659
2929.05	228.262
2928.41	271.511
2927.78	236.06
2927.14	251.759
2926.5	267.452
2925.87	302.803
2925.23	239.846
2924.6	216.221
2923.96	247.633
2923.32	286.896
2922.69	235.769
2922.05	216.088
2921.42	263.194
2920.78	290.646
2920.14	270.966
2919.51	251.292
2918.87	266.957
2918.23	270.841
2917.6	286.497
2916.96	309.997
2916.32	309.949
2915.68	282.442
2915.05	294.165
2914.41	301.962
2913.77	270.548
2913.13	270.506
2912.5	305.742
2911.86	286.099
2911.22	293.892
2910.58	301.682
2909.94	293.801
2909.31	301.589
2908.67	281.962
2908.03	313.242
2907.39	305.364
2906.75	340.546
2906.11	297.442
2905.47	270.004
2904.83	305.175
2904.2	297.304
2903.56	301.17
2902.92	308.944
2902.28	293.256
2901.64	285.392
2901	254.077
2900.36	336.111
2899.72	332.151
2899.08	308.658
2898.44	316.423
2897.8	308.562
2897.16	273.367
2896.52	288.943
2895.88	292.803
2895.24	308.371
2894.6	292.712
2893.96	273.156
2893.32	300.425
2892.67	308.18
2892.03	300.332
2891.39	315.884
2890.75	315.835
2890.11	276.8
2889.47	284.554
2888.83	288.407
2888.19	346.814
2887.54	335.072
2886.9	350.602
2886.26	331.073
2885.62	334.916
2884.98	288.139
2884.33	323.133
2883.69	268.587
2883.05	295.789
2882.41	338.548
2881.77	319.042
2881.12	295.651
2880.48	334.501
2879.84	346.116
2879.19	334.397
2878.55	322.682
2877.91	342.068
2877.26	318.696
2876.62	303.103
2875.98	303.056
2875.33	322.432
2874.69	330.151
2874.05	295.148
2873.4	326.165
2872.76	283.409
2872.11	337.709
2871.47	329.895
2870.83	318.202
2870.18	364.711
2869.54	294.827
2868.89	321.933
2868.25	318.004
2867.6	321.833
2866.96	325.66
2866.31	313.98
2865.67	310.056
2865.02	329.383
2864.38	364.202
2863.73	352.524
2863.09	336.976
2862.44	367.906
2861.8	352.36
2861.15	329.076
2860.5	329.025
2859.86	305.753
2859.21	336.663
2858.57	305.658
2857.92	371.374
2857.27	351.977
2856.63	309.383
2855.98	359.601
2855.33	347.947
2854.69	340.162
2854.04	336.245
2853.39	328.464
2852.75	363.186
2852.1	309.046
2851.45	332.173
2850.81	332.122
2850.16	339.793
2849.51	343.6
2848.86	382.148
2848.21	366.651
2847.57	328.005
2846.92	358.82
2846.27	385.768
2845.62	358.709
2844.97	343.227
2844.33	339.318
2843.68	343.12
2843.03	358.486
2842.38	346.868
2841.73	319.839
2841.08	389.142
2840.43	342.854
2839.78	331.245
2839.14	354.3
2838.49	369.647
2837.84	419.638
2837.19	334.888
2836.54	415.659
2835.89	338.632
2835.24	361.665
2834.59	373.149
2833.94	365.398
2833.29	353.805
2832.64	365.285
2831.99	338.316
2831.34	403.61
2830.69	353.584
2830.04	388.114
2829.39	334.264
2828.74	361.102
2828.08	387.933
2827.43	368.671
2826.78	391.652
2826.13	372.395
2825.48	376.176
2824.83	364.603
2824.18	399.082
2823.53	383.673
2822.87	441.156
2822.22	314.514
2821.57	410.339
2820.92	379.6
2820.27	433.213
2819.61	383.315
2818.96	344.93
2818.31	314.22
2817.66	402.293
2817	386.907
2816.35	394.507
2815.7	386.786
2815.05	417.358
2814.39	394.323
2813.74	398.089
2813.09	336.792
2812.43	367.352
2811.78	417.033
2811.13	321.333
2810.47	405.429
2809.82	363.299
2809.16	355.595
2808.51	412.885
2807.86	366.952
2807.2	416.578
2806.55	416.513
2805.89	416.448
2805.24	374.363
2804.58	389.582
2803.93	366.609
2803.28	439.098
2802.62	439.029
2801.97	454.229
2801.31	419.81
2800.66	373.954
2800	415.864
2799.34	431.058
2798.69	415.734
2798.03	430.923
2797.38	404.166
2796.72	411.727
2796.07	411.663
2795.41	419.221
2794.75	434.398
2794.1	419.09
2793.44	422.834
2792.79	411.342
2792.13	437.935
2791.47	430.251
2790.82	430.184
2790.16	422.504
2789.5	445.273
2788.84	452.814
2788.19	376.652
2787.53	437.456
2786.87	433.585
2786.22	387.884
2785.56	467.669
2784.9	437.183
2784.24	402.906
2783.59	448.448
2782.93	421.779
2782.27	482.501
2781.61	459.634
2780.95	497.542
2780.29	425.313
2779.64	463.215
2778.98	459.346
2778.32	459.275
2777.66	470.588
2777	436.364
2776.34	440.09
2775.68	481.747
2775.02	474.087
2774.36	458.844
2773.71	496.688
2773.05	485.237
2772.39	397.984
2771.73	485.085
2771.07	447.118
2770.41	439.471
2769.75	416.675
2769.09	522.656
2768.43	439.265
2767.77	503.561
2767.11	423.985
2766.45	480.694
2765.79	488.188
2765.12	518.382
2764.46	435.07
2763.8	431.219
2763.14	506.792
2762.48	457.554
2761.82	468.825
2761.16	404.488
2760.5	498.916
2759.83	491.28
2759.17	487.424
2758.51	513.793
2757.85	449.499
2757.19	426.768
2756.53	449.358
2755.86	441.737
2755.2	464.317
2754.54	475.568
2753.88	505.683
2753.21	460.326
2752.55	471.572
2751.89	471.498
2751.23	475.195
2750.56	501.517
2749.9	463.736
2749.24	508.899
2748.57	554.047
2747.91	448.444
2747.25	504.892
2746.58	474.675
2745.92	482.134
2745.25	455.695
2744.59	451.859
2743.93	489.437
2743.26	493.124
2742.6	477.992
2741.93	515.549
2741.27	507.943
2740.61	515.387
2739.94	462.647
2739.28	488.9
2738.61	462.502
2737.95	522.583
2737.28	507.465
2736.62	484.835
2735.95	529.853
2735.29	454.625
2734.62	525.93
2733.95	533.36
2733.29	469.433
2732.62	495.644
2731.96	544.372
2731.29	518.011
2730.62	502.917
2729.96	480.323
2729.29	544.03
2728.63	502.68
2727.96	498.851
2727.29	532.524
2726.63	506.193
2725.96	566.098
2725.29	528.525
2724.62	535.938
2723.96	449.667
2723.29	505.796
2722.62	528.193
2721.96	501.892
2721.29	509.303
2720.62	550.41
2719.95	509.143
2719.28	490.348
2718.62	538.923
2717.95	512.645
2717.28	505.082
2716.61	497.521
2715.94	549.806
2715.27	542.24
2714.61	590.762
2713.94	560.762
2713.27	579.363
2712.6	571.797
2711.93	526.868
2711.26	537.993
2710.59	534.173
2709.92	563.968
2709.25	541.474
2708.58	563.791
2707.91	515.172
2707.24	552.416
2706.57	548.598
2705.9	537.317
2705.23	567.079
2704.56	641.594
2703.89	518.416
2703.22	581.728
2702.55	600.279
2701.88	525.627
2701.21	573.999
2700.54	562.729
2699.87	510.475
2699.2	584.905
2698.53	603.437
2697.86	532.58
2697.19	510.154
2696.51	584.537
2695.84	591.89
2695.17	539.689
2694.5	606.59
2693.83	573.007
2693.15	558.036
2692.48	539.35
2691.81	606.208
2691.14	535.462
2690.47	550.249
2689.79	635.66
2689.12	550.076
2688.45	620.596
2687.77	557.334
2687.1	624.115
2686.43	646.304
2685.76	590.495
2685.08	601.541
2684.41	575.458
2683.74	560.52
2683.06	597.546
2682.39	638.272
2681.71	589.937
2681.04	560.167
2680.37	623.134
2679.69	619.327
2679.02	582.15
2678.34	648.791
2677.67	622.741
2676.99	611.524
2676.32	648.484
2675.65	629.857
2674.97	574.191
2674.3	644.474
2673.62	640.669
2672.95	655.379
2672.27	596.042
2671.59	618.157
2670.92	625.462
2670.24	595.76
2669.57	603.066
2668.89	662.158
2668.22	610.273
2667.54	621.271
2666.86	573.106
2666.19	639.559
2665.51	595.103
2664.83	639.358
2664.16	613.391
2663.48	602.211
2662.8	642.749
2662.13	609.407
2661.45	631.468
2660.77	620.292
2660.1	671.877
2659.42	616.405
2658.74	612.617
2658.06	605.141
2657.39	597.667
2656.71	671.347
2656.03	671.241
2655.35	645.322
2654.68	704.212
2654	674.61
2653.32	611.845
2652.64	652.285
2651.96	655.867
2651.28	618.923
2650.6	718.279
2649.93	626.093
2649.25	681.229
2648.57	651.668
2647.89	651.565
2647.21	658.823
2646.53	647.679
2645.85	592.386
2645.17	658.511
2644.49	643.694
2643.81	673.014
2643.13	702.324
2642.45	613.977
2641.77	646.964
2641.09	709.342
2640.41	683.507
2639.73	716.467
2639.05	675.944
2638.37	668.491
2637.69	716.127
2637.01	671.952
2636.33	708.558
2635.65	675.41
2634.96	671.633
2634.28	671.527
2633.6	737.462
2632.92	696.993
2632.24	711.554
2631.56	715.109
2630.88	659.996
2630.19	652.56
2629.51	736.763
2628.83	692.667
2628.15	615.607
2627.46	699.776
2626.78	728.971
2626.1	776.469
2625.42	717.754
2624.73	754.255
2624.05	702.884
2623.37	691.792
2622.69	768.536
2622	720.846
2621.32	764.634
2620.64	720.617
2619.95	757.077
2619.27	756.957
2618.58	705.651
2617.9	687.261
2617.22	694.462
2616.53	698.007
2615.85	745.397
2615.16	727.012
2614.48	719.592
2613.79	777.912
2613.11	814.305
2612.43	715.599
2611.74	668.03
2611.06	744.571
2610.37	737.155
2609.69	733.389
2609	747.866
2608.31	703.977
2607.63	787.745
2606.94	747.51
2606.26	769.267
2605.57	750.919
2604.89	783.602
2604.2	714.24
2603.51	790.64
2602.83	826.944
2602.14	750.324
2601.45	746.563
2600.77	797.422
2600.08	728.124
2599.39	768.049
2598.71	760.648
2598.02	745.972
2597.33	749.492
2596.65	829.403
2595.96	731.069
2595.27	800.048
2594.58	716.293
2593.9	788.888
2593.21	770.588
2592.52	770.466
2591.83	730.373
2591.14	748.423
2590.46	726.509
2589.77	820.825
2589.08	795.275
2588.39	835.088
2587.7	809.544
2587.01	820.304
2586.32	740.334
2585.64	845.444
2584.95	816.286
2584.26	808.902
2583.57	801.52
2582.88	732.495
2582.19	808.517
2581.5	801.138
2580.81	808.26
2580.12	869.738
2579.43	800.757
2578.74	840.48
2578.05	796.88
2577.36	749.673
2576.67	793.006
2575.98	810.983
2575.29	778.275
2574.6	803.487
2573.91	875.734
2573.22	817.704
2572.52	897.161
2571.83	784.891
2571.14	744.986
2570.45	856.959
2569.76	770.056
2569.07	827.769
2568.38	798.724
2567.68	780.53
2566.99	798.471
2566.3	812.793
2565.61	874.066
2564.92	801.701
2564.22	855.734
2563.53	826.717
2562.84	804.929
2562.14	808.41
2561.45	819.106
2560.76	862.27
2560.07	818.846
2559.37	815.109
2558.68	847.434
2557.99	850.905
2557.29	793.091
2556.6	850.635
2555.91	868.518
2555.21	810.728
2554.52	788.983
2553.82	918.533
2553.13	839.154
2552.44	828.217
2551.74	864.089
2551.05	874.751
2550.35	824.223
2549.66	842.085
2548.96	823.961
2548.27	884.987
2547.57	895.637
2546.88	859.531
2546.18	877.373
2545.49	888.019
2544.79	898.662
2544.1	869.766
2543.4	876.815
2542.7	887.454
2542.01	880.128
2541.31	840.478
2540.62	897.804
2539.92	818.666
2539.22	879.567
2538.53	915.322
2537.83	879.287
2537.13	836.087
2536.44	900.534
2535.74	817.884
2535.04	814.167
2534.35	774.591
2533.65	907.131
2532.95	896.232
2532.25	867.414
2531.56	921.033
2530.86	906.553
2530.16	956.565
2529.46	906.264
2528.76	898.957
2528.07	891.651
2527.37	902.25
2526.67	880.628
2525.97	952.072
2525.27	851.718
2524.57	941.034
2523.88	876.489
2523.18	940.734
2522.48	897.668
2521.78	918.979
2521.08	922.408
2520.38	915.111
2519.68	922.114
2518.98	889.805
2518.28	889.663
2517.58	871.659
2516.88	925.097
2516.18	924.95
2515.48	1003.36
2514.78	956.785
2514.08	917.368
2513.38	913.652
2512.68	970.601
2511.98	924.064
2511.28	1048.77
2510.58	984.403
2509.88	927.188
2509.17	1016.18
2508.47	948.282
2507.77	955.259
2507.07	944.415
2506.37	944.264
2505.67	883.548
2504.97	965.336
2504.26	904.635
2503.56	1043.37
2502.86	925.709
2502.16	964.719
2501.45	957.446
2500.75	882.561
2500.05	935.792
2499.35	1006.79
2498.64	974.62
2497.94	949.569
2497.24	960.085
2496.53	1013.26
2495.83	963.333
2495.13	1002.27
2494.42	1005.67
2493.72	884.704
2493.02	969.822
2492.31	1005.19
2491.61	891.383
2490.9	972.908
2490.2	944.351
2489.5	933.551
2488.79	958.245
2488.09	986.48
2487.38	1043.09
2486.68	986.164
2485.97	993.1
2485.27	1039.04
2484.56	985.691
2483.86	1052.89
2483.15	1013.73
2482.45	981.674
2481.74	1052.38
2481.04	988.446
2480.33	991.83
2479.62	970.421
2478.92	1030.46
2478.21	1030.3
2477.51	1040.75
2476.8	1033.51
2476.09	1012.11
2475.39	1033.18
2474.68	1004.71
2473.97	997.476
2473.27	1029.15
2472.56	993.621
2471.85	996.997
2471.14	1003.91
2470.44	1007.28
2469.73	1038.92
2469.02	1010.49
2468.31	1020.93
2467.61	1020.76
2466.9	1062.98
2466.19	1073.4
2465.48	1066.17
2464.77	1030.7
2464.07	1023.48
2463.36	1083.3
2462.65	1054.9
2461.94	1082.95
2461.23	1054.56
2460.52	1082.61
2459.81	1064.8
2459.1	1071.68
2458.4	1085.61
2457.69	1088.96
2456.98	1081.74
2456.27	1025.2
2455.56	1060.26
2454.85	1053.04
2454.14	1017.66
2453.43	1056.23
2452.72	1080.7
2452.01	1041.81
2451.3	1017.01
2450.59	1048.51
2449.88	1069.45
2449.16	1069.28
2448.45	1019.87
2447.74	1125.2
2447.03	1121.5
2446.32	1089.68
2445.61	1173.86
2444.9	1054.19
2444.19	1113.75
2443.47	1064.39
2442.76	1050.17
2442.05	1095.66
2441.34	1095.48
2440.63	1193.6
2439.91	1088.11
2439.2	1098.47
2438.49	1007.06
2437.78	1154.25
2437.06	1108.46
2436.35	1188.95
2435.64	1167.72
2434.93	1058.84
2434.21	1093.73
2433.5	1146.12
2432.79	1149.44
2432.07	1156.27
2431.36	1212.13
2430.64	1103.36
2429.93	1099.68
2429.22	1159.03
2428.5	1179.85
2427.79	1106.15
2427.07	1193.47
2426.36	1095.29
2425.65	1182.59
2424.93	1112.43
2424.22	1105.26
2423.5	1164.53
2422.79	1115.39
2422.07	1115.21
2421.36	1146.49
2420.64	1135.82
2419.92	1163.6
2419.21	1170.4
2418.49	1215.62
2417.78	1204.95
2417.06	1176.82
2416.35	1201.07
2415.63	1110.11
2414.91	1277.47
2414.2	1162.1
2413.48	1137.49
2412.76	1084.98
2412.05	1126.66
2411.33	1164.84
2410.61	1216.96
2409.9	1202.82
2409.18	1178.22
2408.46	1202.43
2407.74	1230.11
2407.03	1188.1
2406.31	1212.3
2405.59	1152.89
2404.87	1204.94
2404.16	1256.98
2403.44	1204.56
2402.72	1173.03
2402	1169.37
2401.28	1127.42
2400.56	1214.22
2399.85	1220.98
2399.13	1231.22
2398.41	1151.04
2397.69	1237.77
2396.97	1220.19
2396.25	1223.47
2395.53	1317.11
2394.81	1247.4
2394.09	1281.94
2393.37	1167.11
2392.65	1219.01
2391.93	1211.87
2391.21	1270.7
2390.49	1197.6
2389.77	1218.23
2389.05	1363.78
2388.33	1169.26
2387.61	1176.01
2386.89	1234.79
2386.17	1251.93
2385.45	1223.99
2384.73	1265.39
2384	1324.11
2383.28	1219.93
2382.56	1261.31
2381.84	1274.97
2381.12	1247.05
2380.4	1219.14
2379.67	1312.44
2378.95	1256.83
2378.23	1242.78
2377.51	1218.36
2376.79	1214.7
2376.06	1249.1
2375.34	1297.34
2374.62	1310.96
2373.9	1355.71
2373.17	1310.54
2372.45	1358.73
2371.73	1209.87
2371	1323.73
2370.28	1330.43
2369.56	1306.03
2368.83	1295.45
2368.11	1336.69
2367.38	1409
2366.66	1256.84
2365.94	1298.07
2365.21	1277.15
2364.49	1304.55
2363.76	1287.09
2363.04	1304.13
2362.31	1321.17
2361.59	1362.34
2360.86	1379.36
2360.14	1358.45
2359.41	1316.87
2358.69	1278.74
2357.96	1344.01
2357.24	1374.8
2356.51	1419.37
2355.79	1370.92
2355.06	1312.15
2354.33	1291.27
2353.61	1315.17
2352.88	1469.86
2352.15	1321.62
2351.43	1369.59
2350.7	1372.81
2349.98	1403.54
2349.25	1327.65
2348.52	1358.38
2347.79	1371.92
2347.07	1309.82
2346.34	1374.91
2345.61	1402.18
2344.88	1367.59
2344.16	1329.58
2343.43	1370.59
2342.7	1353.19
2341.97	1401.05
2341.25	1428.29
2340.52	1404.03
2339.79	1355.75
2339.06	1434.46
2338.33	1403.35
2337.6	1334.51
2336.87	1310.28
2336.14	1423.24
2335.42	1371.58
2334.69	1439.92
2333.96	1312.86
2333.23	1398.33
2332.5	1380.97
2331.77	1473.25
2331.04	1383.95
2330.31	1459.08
2329.58	1393.77
2328.85	1390.13
2328.12	1420.71
2327.39	1447.86
2326.66	1413.41
2325.93	1426.86
2325.2	1406.11
2324.47	1419.56
2323.73	1368.03
2323	1371.23
2322.27	1418.87
2321.54	1404.97
2320.81	1397.9
2320.08	1476.28
2319.35	1394.03
2318.61	1472.38
2317.88	1502.88
2317.15	1502.64
2316.42	1471.66
2315.69	1427.04
2314.95	1498.5
2314.22	1409.52
2313.49	1412.7
2312.76	1467.06
2312.02	1500.93
2311.29	1459.76
2310.56	1408.38
2309.82	1486.57
2309.09	1496.55
2308.36	1523.58
2307.62	1475.62
2306.89	1461.75
2306.16	1570.53
2305.42	1430.62
2304.69	1454.23
2303.95	1498.26
2303.22	1511.63
2302.48	1453.52
2301.75	1453.28
2301.02	1463.26
2300.28	1486.84
2299.55	1527.42
2298.81	1557.78
2298.08	1567.73
2297.34	1526.67
2296.6	1563.82
2295.87	1526.18
2295.13	1542.92
2294.4	1593.64
2293.66	1477.87
2292.93	1464.04
2292.19	1555.51
2291.45	1463.57
2290.72	1541.42
2289.98	1497.04
2289.24	1476.43
2288.51	1574.6
2287.77	1537.03
2287.03	1438.39
2286.3	1529.74
2285.56	1563.41
2284.82	1552.98
2284.08	1590.02
2283.35	1555.87
2282.61	1633.56
2281.87	1592.63
2281.13	1538.17
2280.4	1524.37
2279.66	1551.21
2278.92	1540.8
2278.18	1533.78
2277.44	1536.92
2276.7	1563.74
2275.97	1583.8
2275.23	1634.29
2274.49	1678.01
2273.75	1667.59
2273.01	1714.66
2272.27	1504.74
2271.53	1626.2
2270.79	1612.42
2270.05	1551.32
2269.31	1567.96
2268.57	1635.28
2267.83	1591.1
2267.09	1594.22
2266.35	1546.68
2265.61	1630.84
2264.87	1617.07
2264.13	1643.81
2263.39	1643.54
2262.65	1643.27
2261.91	1562.04
2261.17	1683.22
2260.42	1598.63
2259.68	1588.25
2258.94	1685.77
2258.2	1638.3
2257.46	1627.92
2256.72	1644.51
2255.97	1684.67
2255.23	1630.49
2254.49	1643.7
2253.75	1704.05
2253	1703.78
2252.26	1649.63
2251.52	1676.29
2250.78	1622.17
2250.03	1632
2249.29	1614.91
2248.55	1634.83
2247.8	1735.47
2247.06	1701.56
2246.32	1684.47
2245.57	1721.17
2244.83	1630.14
2244.09	1616.43
2243.34	1811.05
2242.6	1696.53
2241.85	1790.31
2241.11	1699.34
2240.36	1709.13
2239.62	1715.57
2238.88	1664.94
2238.13	1778.78
2237.39	1778.49
2236.64	1778.2
2235.89	1757.78
2235.15	1643.46
2234.4	1750.5
2233.66	1646.27
2232.91	1753.28
2232.17	1756.35
2231.42	1702.44
2230.67	1722.27
2229.93	1788.99
2229.18	1768.6
2228.44	1758.26
2227.69	1714.45
2226.94	1757.69
2226.2	1693.8
2225.45	1800.62
2224.7	1756.83
2223.95	1850.22
2223.21	1779.67
2222.46	1819.52
2221.71	1782.43
2220.96	1785.49
2220.22	1801.91
2219.47	1761.51
2218.72	1874.85
2217.97	1767.61
2217.22	1770.67
2216.48	1773.72
2215.73	1776.77
2214.98	1843.26
2214.23	1849.64
2213.48	1839.32
2212.73	1855.71
2211.98	1758.63
2211.23	1788.37
2210.48	1824.77
2209.73	1804.46
2208.98	1760.82
2208.23	1850.55
2207.48	1740.24
2206.73	1826.62
2205.98	1916.3
2205.23	1802.69
2204.48	1785.74
2203.73	1782.12
2202.98	1888.4
2202.23	1824.82
2201.48	1897.77
2200.73	1867.5
2199.98	1823.93
2199.23	1873.55
2198.48	1839.97
2197.72	1862.95
2196.97	1909.22
2196.22	1829.09
2195.47	1862.04
2194.72	1974.77
2193.97	1868.08
2193.21	1897.68
2192.46	1820.95
2191.71	1926.96
2190.96	1900.07
2190.2	1839.98
2189.45	1926.02
2188.7	1812.82
2187.94	1882.23
2187.19	1832.14
2186.44	1904.85
2185.68	1907.85
2184.93	1864.41
2184.18	1893.96
2183.42	1930.13
2182.67	1780.6
2181.91	1962.65
2181.16	1866.2
2180.41	1971.95
2179.65	1898.73
2178.9	1948.11
2178.14	1848.41
2177.39	1944.16
2176.63	1976.96
2175.88	1986.57
2175.12	1986.24
2174.37	1939.58
2173.61	1985.59
2172.86	2018.35
2172.1	1994.86
2171.34	2064
2170.59	1924.76
2169.83	1864.92
2169.08	2049.76
2168.32	1970.09
2167.56	1926.8
2166.81	2019.01
2166.05	1965.82
2165.29	2034.86
2164.54	1889.21
2163.78	2040.8
2163.02	2063.58
2162.27	2050.03
2161.51	1854.96
2160.75	1996.56
2159.99	1936.84
2159.23	1926.63
2158.48	1939.5
2157.72	1955.67
2156.96	2024.6
2156.2	2001.19
2155.44	2079.97
2154.69	2026.9
2153.93	2036.45
2153.17	2088.83
2152.41	1940.25
2151.65	2081.56
2150.89	2117.44
2150.13	1936
2149.37	2017.98
2148.61	2030.82
2147.85	1994.29
2147.09	1974.22
2146.33	2079.17
2145.57	1993.3
2144.81	2035.73
2144.05	2088.01
2143.29	2140.26
2142.53	2018.29
2141.77	2070.54
2141.01	2037.34
2140.25	2000.87
2139.49	1993.97
2138.73	1937.81
2137.97	2091.83
2137.2	2127.6
2136.44	2146.95
2135.68	2100.64
2134.92	2142.96
2134.16	2060.58
2133.4	2132.41
2132.63	2073.02
2131.87	2171.07
2131.11	2164.15
2130.35	1980.2
2129.58	2042.16
2128.82	2166.36
2128.06	2162.73
2127.29	2103.4
2126.53	2139.09
2125.77	2168.21
2125	2115.46
2124.24	2141.31
2123.48	2042.74
2122.71	2153.69
2121.95	2107.52
2121.19	2149.71
2120.42	2070.84
2119.66	2155.55
2118.89	2223.87
2118.13	2154.84
2117.36	2118.52
2116.6	2118.17
2115.83	2153.77
2115.07	2205.7
2114.3	2162.86
2113.54	2201.71
2112.77	2158.89
2112.01	2116.08
2111.24	2203.88
2110.48	2154.55
2109.71	2216.21
2108.94	2261.54
2108.18	2195.91
2107.41	2237.95
2106.64	2214.75
2105.88	2214.39
2105.11	2253.15
2104.34	2357.11
2103.58	2236.11
2102.81	2281.37
2102.04	2232.12
2101.28	2283.88
2100.51	2241.15
2099.74	2211.47
2098.97	2282.75
2098.21	2259.58
2097.44	2281.99
2096.67	2236.05
2095.9	2291
2095.13	2300.39
2094.36	2290.25
2093.6	2198.8
2092.83	2253.72
2092.06	2276.11
2091.29	2311.49
2090.52	2216.85
2089.75	2369.23
2088.98	2284.35
2088.21	2300.22
2087.44	2309.59
2086.67	2348.18
2085.9	2256.87
2085.13	2318.18
2084.36	2275.6
2083.59	2385.58
2082.82	2255.38
2082.05	2336.12
2081.28	2358.44
2080.51	2289.94
2079.74	2325.24
2078.97	2337.82
2078.2	2298.53
2077.43	2236.57
2076.65	2326.94
2075.88	2297.39
2075.11	2335.89
2074.34	2329.03
2073.57	2286.54
2072.8	2302.35
2072.02	2253.41
2071.25	2363.1
2070.48	2349.76
2069.71	2294.36
2068.93	2439.58
2068.16	2332.42
2067.39	2383.78
2066.61	2448.07
2065.84	2353.9
2065.07	2463.42
2064.29	2320.79
2063.52	2362.42
2062.75	2413.73
2061.97	2313.18
2061.2	2380.63
2060.43	2435.14
2059.65	2460.57
2058.88	2382.68
2058.1	2398.43
2057.33	2481.94
2056.55	2329.87
2055.78	2416.59
2055	2454.91
2054.23	2419.02
2053.45	2415.39
2052.68	2469.81
2051.9	2440.39
2051.13	2404.53
2050.35	2423.46
2049.57	2522.95
2048.8	2557.97
2048.02	2454.47
2047.25	2457.29
2046.47	2418.24
2045.69	2507.98
2044.92	2382.03
2044.14	2446
2043.36	2461.69
2042.59	2467.71
2041.81	2473.74
2041.03	2492.63
2040.25	2447.19
2039.48	2559.32
2038.7	2507.46
2037.92	2465.26
2037.14	2580.55
2036.37	2519.07
2035.59	2502.59
2034.81	2473.27
2034.03	2540.3
2033.25	2546.3
2032.47	2619.72
2031.69	2529.4
2030.92	2397.4
2030.14	2515.73
2029.36	2537.77
2028.58	2447.53
2027.8	2658.8
2027.02	2523.68
2026.24	2622.65
2025.46	2635.04
2024.68	2477.55
2023.9	2470.73
2023.12	2617.71
2022.34	2559.61
2021.56	2581.61
2020.78	2635.62
2020	2590.36
2019.21	2596.33
2018.43	2685.53
2017.65	2601.87
2016.87	2563.04
2016.09	2572.21
2015.31	2606.97
2014.53	2638.52
2013.74	2529.36
2012.96	2564.11
2012.18	2598.85
2011.4	2550.48
2010.62	2665.09
2009.83	2594.36
2009.05	2619.48
2008.27	2574.33
2007.49	2669.71
2006.7	2560.71
2005.92	2665.63
2005.14	2642.84
2004.35	2600.92
2003.57	2702.59
2002.79	2577.72
2002	2695.31
2001.22	2666.16
2000.43	2560.49
1999.65	2646.15
1998.87	2690.34
1998.08	2648.46
1997.3	2686.25
1996.51	2634.83
1995.73	2749.07
1994.94	2675.36
1994.16	2735.42
1993.37	2734.96
1992.59	2661.29
1991.8	2721.32
1991.02	2603.13
1990.23	2669.51
1989.44	2732.69
1988.66	2662.26
1987.87	2715.88
1987.09	2674.09
1986.3	2737.23
1985.51	2768.56
1984.73	2780.81
1983.94	2697.73
1983.15	2678.22
1982.37	2795.31
1981.58	2705.92
1980.79	2734.04
1980	2866.94
1979.22	2723.61
1978.43	2669.2
1977.64	2719.53
1976.85	2696.87
1976.06	2870.89
1975.28	2740.38
1974.49	2765.29
1973.7	2799.71
1972.91	2662.92
1972.12	2662.48
1971.33	2795.14
1970.54	2839.03
1969.76	2832.22
1968.97	2771.57
1968.18	2824.95
1967.39	2833.97
1966.6	2820.84
1965.81	2772.89
1965.02	2943.33
1964.23	2838.41
1963.44	2879.07
1962.65	2922.88
1961.86	2824.34
1961.07	2931.39
1960.28	2788.62
1959.48	2838.74
1958.69	2841.43
1957.9	2850.43
1957.11	2777.29
1956.32	2783.14
1955.53	2858.48
1954.74	2839.06
1953.94	2889.1
1953.15	2901.25
1952.36	2979.68
1951.57	2881.35
1950.78	2795.67
1949.98	2946.64
1949.19	2898.83
1948.4	2904.65
1947.61	2803.26
1946.81	2891.07
1946.02	2953.64
1945.23	2880.65
1944.43	2788.79
1943.64	2958.46
1942.85	2813.06
1942.05	2900.78
1941.26	2922.34
1940.46	2805.35
1939.67	2946.55
1938.88	2952.35
1938.08	2901.5
1937.29	2935.63
1936.49	2985.47
1935.7	2966.1
1934.9	3019.07
1934.11	2965.11
1933.31	2860.87
1932.52	3014.41
1931.72	3004.48
1930.93	3091.96
1930.13	3000.34
1929.33	3078.37
1928.54	2989.91
1927.74	2923.47
1926.95	2910.42
1926.15	2997.83
1925.35	2943.97
1924.56	2959.17
1923.76	3015.15
1922.96	3108.76
1922.17	3032.96
1921.37	2928.97
1920.57	3003.73
1919.77	2978.15
1918.98	3018.4
1918.18	3133.84
1917.38	3026.79
1916.58	3026.28
1915.78	2956.86
1914.99	2981.42
1914.19	3109.31
1913.39	3055.56
1912.59	3114.53
1911.79	3123.39
1910.99	3113.48
1910.19	3178.66
1909.39	2990.45
1908.59	3052.5
1907.8	2998.83
1907	3104.63
1906.2	3197.89
1905.4	3191.1
1904.6	3146.82
1903.8	3099.42
1903	3073.91
1902.2	3160.85
1901.39	3091.62
1900.59	3003.68
1899.79	3071.85
1898.99	3199.31
1898.19	3189.41
1897.39	3145.2
1896.59	3076.03
1895.79	3190.93
1894.99	3187.28
1894.18	3164.91
1893.38	3089.56
1892.58	3188.79
1891.78	3060.48
1890.98	3187.72
1890.17	3090.61
1889.37	3211.57
1888.57	3270.21
1887.76	3104.62
1886.96	3256.66
1886.16	3262.34
1885.36	3215.11
1884.55	3164.78
1883.75	3210.92
1882.94	3135.72
1882.14	3231.61
1881.34	3243.51
1880.53	3218.09
1879.73	3102.53
1878.92	3279.18
1878.12	3272.41
1877.32	3296.72
1876.51	3305.49
1875.71	3245.91
1874.9	3158.41
1874.1	3238.61
1873.29	3231.86
1872.49	3197.18
1871.68	3162.5
1870.87	3251.96
1870.07	3301.05
1869.26	3204.33
1868.46	3256.52
1867.65	3302.49
1866.84	3156.21
1866.04	3344.78
1865.23	3192.35
1864.42	3129.83
1863.62	3296.62
1862.81	3271.28
1862	3236.66
1861.2	3344.5
1860.39	3204.61
1859.58	3293.85
1858.77	3119.96
1857.96	3308.22
1857.16	3273.62
1856.35	3307.1
1855.54	3325.11
1854.73	3352.38
1853.92	3150.83
1853.12	3286.33
1852.31	3254.87
1851.5	3479.93
1850.69	3272.31
1849.88	3318.11
1849.07	3246.5
1848.26	3320.08
1847.45	3353.49
1846.64	3352.92
1845.83	3275.19
1845.02	3398.09
1844.21	3416.03
1843.4	3310.56
1842.59	3319.26
1841.78	3469.83
1840.97	3382.9
1840.16	3397.75
1839.35	3276.95
1838.54	3436.67
1837.72	3389.87
1836.91	3460.16
1836.1	3354.84
1835.29	3345.03
1834.48	3332.15
1833.67	3420.88
1832.85	3414.15
1832.04	3275.06
1831.23	3323.75
1830.42	3492.43
1829.6	3442.62
1828.79	3346.68
1827.98	3407.63
1827.17	3450.1
1826.35	3406.48
1825.54	3485.83
1824.73	3436.07
1823.91	3518.45
1823.1	3401.11
1822.29	3520.34
1821.47	3522.82
1820.66	3414.75
1819.84	3414.17
1819.03	3499.55
1818.21	3397.67
1817.4	3440.06
1816.58	3451.76
1815.77	3484.92
1814.95	3530.34
1814.14	3358.01
1813.32	3728.45
1812.51	3500.96
1811.69	3469.72
1810.88	3567.2
1810.06	3505.32
1809.25	3486.35
1808.43	3562.34
1807.61	3469.86
1806.8	3561.13
1805.98	3511.55
1805.16	3443.61
1804.35	3482.82
1803.53	3561.79
1802.71	3475.53
1801.89	3533.06
1801.08	3544.7
1800.26	3559.39
1799.44	3494.58
1798.62	3524.56
1797.81	3600.37
1796.99	3611.99
1796.17	3418.89
1795.35	3439.7
1794.53	3487.99
1793.71	3579.01
1792.9	3550.93
1792.08	3586.96
1791.26	3635.19
1790.44	3521.66
1789.62	3557.68
1788.8	3673.01
1787.98	3605.28
1787.16	3577.23
1786.34	3643.7
1785.52	3643.09
1784.7	3645.52
1783.88	3675.38
1783.06	3607.72
1782.24	3710.7
1781.42	3515.12
1780.6	3615.03
1779.78	3660.09
1778.95	3732.54
1778.13	3652.77
1777.31	3639.98
1776.49	3678.92
1775.67	3660.04
1774.85	3799.35
1774.02	3573.65
1773.2	3731.17
1772.38	3548.11
1771.56	3735.98
1770.74	3647.21
1769.91	3673.94
1769.09	3636.86
1768.27	3621.06
1767.44	3705.49
1766.62	3774.71
1765.8	3807.47
1764.97	3749.14
1764.15	3787.97
1763.33	3860.16
1762.5	3801.86
1761.68	3607.06
1760.85	3827.87
1760.03	3821.15
1759.21	3775.02
1758.38	3871.4
1757.56	3791.93
1756.73	3818.57
1755.91	3966.39
1755.08	3841.51
1754.26	3901.44
1753.43	3837.18
1752.6	3872.86
1751.78	3832.85
1750.95	3868.53
1750.13	4010.12
1749.3	3967.07
1748.47	3990.6
1747.65	3974.8
1746.82	3889.44
1745.99	4148.84
1745.17	4145.12
1744.34	4114.18
1743.51	4092.33
1742.69	4336.41
1741.86	4574.36
1741.03	4600.77
1740.2	4581.87
1739.38	4680.75
1738.55	4833.94
1737.72	4787.84
1736.89	4922.85
1736.06	5133.26
1735.23	5219.89
1734.4	5240.12
1733.58	5347.82
1732.75	5401.19
1731.92	5321.88
1731.09	5456.64
1730.26	5525.04
1729.43	5626.57
1728.6	5703.96
1727.77	5772.28
1726.94	5623.7
1726.11	5770.32
1725.28	5799.45
1724.45	5949
1723.62	5966.05
1722.79	5799.51
1721.96	5846.67
1721.13	5653.13
1720.3	5676.23
1719.46	5458.72
1718.63	5496.89
1717.8	5390.72
1716.97	5197.42
1716.14	5088.34
1715.31	4892.15
1714.47	4936.39
1713.64	4815.39
1712.81	4703.44
1711.98	4474.42
1711.14	4494.67
1710.31	4391.84
1709.48	4367.08
1708.65	4291.32
1707.81	4251.58
1706.98	4247.86
1706.15	4148.16
1705.31	4021.5
1704.48	4113.77
1703.64	4056.11
1702.81	4058.41
1701.98	3868.92
1701.14	3982.13
1700.31	4053.35
1699.47	4109.57
1698.64	3992.07
1697.8	3991.39
1696.97	3966.76
1696.13	3963.1
1695.3	4004.32
1694.46	3967.73
1693.63	4068.78
1692.79	3981.34
1691.95	3896.92
1691.12	4042.78
1690.28	4092.91
1689.45	3945.75
1688.61	3971.97
1687.77	4025.08
1686.94	4102.08
1686.1	3972.93
1685.26	3960.31
1684.42	4004.42
1683.59	3967.91
1682.75	4080.67
1681.91	4082.96
1681.07	4073.32
1680.24	4132.29
1679.4	4021.21
1678.56	3975.79
1677.72	3990.02
1676.88	4057.92
1676.04	3943.95
1675.21	3990.96
1674.37	4076.71
1673.53	3986.62
1672.69	4024.67
1671.85	4012.07
1671.01	4088.82
1670.17	4064.3
1669.33	4158.87
1668.49	4158.16
1667.65	4169.35
1666.81	4049.62
1665.97	4161.98
1665.13	4185.07
1664.29	4026.73
1663.45	4127.15
1662.61	4141.31
1661.77	4045.48
1660.92	4074.51
1660.08	4076.79
1659.24	4108.77
1658.4	4093.22
1657.56	4018.27
1656.72	4062.13
1655.87	4085.18
1655.03	4063.71
1654.19	3965.07
1653.35	4008.91
1652.5	4073.49
1651.66	3992.71
1650.82	4122.52
1649.98	4012.1
1649.13	4198.2
1648.29	4173.77
1647.45	4110.81
1646.6	4113.08
1645.76	4079.78
1644.91	4114.63
1644.07	4247.21
1643.23	4083.61
1642.38	4159.9
1641.54	4153.26
1640.69	4238.39
1639.85	4169.6
1639	4130.42
1638.16	4132.68
1637.31	4232.53
1636.47	4140.14
1635.62	4207.43
1634.78	4395.91
1633.93	4185.3
1633.08	4361.9
1632.24	4257.74
1631.39	4319.05
1630.55	4235.61
1629.7	4347.1
1628.85	4307.98
1628.01	4313.14
1627.16	4418.67
1626.31	4341.18
1625.46	4437.81
1624.62	4499
1623.77	4551.33
1622.92	4644.92
1622.07	4788.61
1621.23	4826.12
1620.38	5187.85
1619.53	5325.48
1618.68	5725.31
1617.83	6180.98
1616.98	6680.67
1616.13	7118.35
1615.29	7903.35
1614.44	8361.27
1613.59	8462.87
1612.74	8561.48
1611.89	8509.99
1611.04	8073.11
1610.19	7895.23
1609.34	7555.65
1608.49	7080.92
1607.64	6547.55
1606.79	6170.17
1605.94	5957.5
1605.09	5533.32
1604.24	5550
1603.38	5510.86
1602.53	5098.73
1601.68	5077.3
1600.83	4862.1
1599.98	4896.49
1599.13	4725.42
1598.27	4707
1597.42	4665.12
1596.57	4632.05
1595.72	4563.79
1594.87	4627.53
1594.01	4506.52
1593.16	4356.24
1592.31	4279.29
1591.45	4512.99
1590.6	4450.69
1589.75	4359.11
1588.89	4305.64
1588.04	4357.61
1587.19	4427.14
1586.33	4320.99
1585.48	4504.65
1584.62	4337.06
1583.77	4374.36
1582.92	4379.46
1582.06	4486.93
1581.21	4398.43
1580.35	4362.58
1579.5	4440.77
1578.64	4603.69
1577.78	4325.27
1576.93	4283.62
1576.07	4315.02
1575.22	4384.38
1574.36	4485.84
1573.51	4403.31
1572.65	4300.37
1571.79	4273.36
1570.94	4263.87
1570.08	4382.78
1569.22	4466.63
1568.37	4255.84
1567.51	4383.43
1566.65	4324.36
1565.79	4428.58
1564.94	4366.6
1564.08	4444.54
1563.22	4213.57
1562.36	4320.65
1561.5	4351.95
1560.65	4447.31
1559.79	4309.68
1558.93	4300.21
1558.07	4366.42
1557.21	4444.25
1556.35	4321.27
1555.49	4320.52
1554.63	4485.59
1553.77	4351.03
1552.91	4460.78
1552.05	4422.22
1551.19	4488.32
1550.33	4435.23
1549.47	4385.06
1548.61	4413.36
1547.75	4485.23
1546.89	4504.79
1546.03	4376.24
1545.17	4433.55
1544.31	4543.1
1543.45	4411.71
1542.58	4352.91
1541.72	4323.15
1540.86	4418.13
1540	4460.88
1539.14	4323.81
1538.28	4352.06
1537.41	4467.27
1536.55	4518.67
1535.69	4387.49
1534.82	4398.32
1533.96	4446.81
1533.1	4370.74
1532.24	4416.32
1531.37	4386.6
1530.51	4426.38
1529.64	4524.02
1528.78	4384.33
1527.92	4424.09
1527.05	4452.25
1526.19	4396.53
1525.32	4511.45
1524.46	4461.52
1523.59	4512.78
1522.73	4379.05
1521.86	4514.12
1521	4458.44
1520.13	4596.34
1519.27	4329.81
1518.4	4450.36
1517.54	4386.06
1516.67	4396.86
1515.8	4396.1
1514.94	4343.39
1514.07	4466.72
1513.21	4463.06
1512.34	4557.48
1511.47	4478.82
1510.6	4604.92
1509.74	4439.8
1508.87	4387.15
1508	4573.72
1507.14	4518.18
1506.27	4451.14
1505.4	4450.37
1504.53	4438.08
1503.66	4483.39
1502.8	4427.91
1501.93	4573.95
1501.06	4570.28
1500.19	4526.33
1499.32	4476.64
1498.45	4441.35
1497.58	4431.95
1496.71	4497.32
1495.84	4430.42
1494.97	4625.12
1494.1	4555.34
1493.23	4439.62
1492.36	4533.66
1491.49	4619.05
1490.62	4569.43
1489.75	4511.21
1488.88	4639.62
1488.01	4601.5
1487.14	4491.65
1486.27	4542.52
1485.4	4607.72
1484.52	4581.11
1483.65	4611.87
1482.78	4427.54
1481.91	4466.92
1481.04	4420.28
1480.17	4511.23
1479.29	4622.21
1478.42	4661.52
1477.55	4594.82
1476.67	4536.75
1475.8	4610.42
1474.93	4566.67
1474.06	4603.09
1473.18	4490.67
1472.31	4495.62
1471.43	4589.26
1470.56	4722.91
1469.69	4633.43
1468.81	4661.23
1467.94	4686.15
1467.06	4591
1466.19	4587.35
1465.31	4632.28
1464.44	4694.33
1463.56	4624.96
1462.69	4704.13
1461.81	4757.57
1460.94	4773.88
1460.06	4678.85
1459.19	4566.72
1458.31	4660.11
1457.43	4676.42
1456.56	4652.78
1455.68	4614.9
1454.8	4631.21
1453.93	4784.37
1453.05	4646.71
1452.17	4777.01
1451.3	4850.28
1450.42	4718.37
1449.54	4746.04
1448.66	4776.55
1447.78	4818.44
1446.91	4737.88
1446.03	4677.27
1445.15	4722
1444.27	4661.42
1443.39	4874.01
1442.51	4784.97
1441.64	4693.13
1440.76	4732.12
1439.88	4594.82
1439	4838.51
1438.12	4772.3
1437.24	4728.84
1436.36	4622.89
1435.48	4641.97
1434.6	4686.61
1433.72	4600.6
1432.84	4721.9
1431.96	4687.01
1431.08	4774.18
1430.2	4668.35
1429.31	4704.43
1428.43	4655.38
1427.55	4716.98
1426.67	4670.78
1425.79	4698.32
1424.91	4731.53
1424.02	4597.49
1423.14	4814.9
1422.26	4771.56
1421.38	4711.24
1420.49	4871.87
1419.61	4746.42
1418.73	4841.86
1417.85	4889.15
1416.96	4797.72
1416.08	4799.72
1415.2	4844.16
1414.31	4868.78
1413.43	4899.04
1412.54	4731.34
1411.66	4883.2
1410.78	4958.68
1409.89	4889.98
1409.01	4923.04
1408.12	4899.58
1407.24	4839.4
1406.35	4895.05
1405.47	4724.75
1404.58	4862.29
1403.7	4638.42
1402.81	4832.37
1401.92	4780.73
1401.04	4909.69
1400.15	4756.5
1399.27	4696.43
1398.38	4828.17
1397.49	4646.86
1396.61	4674.25
1395.72	4732.63
1394.83	4658.53
1393.94	4798.6
1393.06	4530.13
1392.17	4661.73
1391.28	4782.01
1390.39	4629.13
1389.51	4684.63
1388.62	4731.66
1387.73	4666.11
1386.84	4732.83
1385.95	4591.34
1385.06	4655.23
1384.17	4820.35
1383.29	4811.07
1382.4	4751.19
1381.51	4651.99
1380.62	4741.11
1379.73	4667.22
1378.84	4652.36
1377.95	4690.88
1377.06	4720.95
1376.17	4669.58
1375.28	4713.69
1374.39	4743.74
1373.5	4799.04
1372.6	4770.15
1371.71	4657.1
1370.82	4678.72
1369.93	4778.87
1369.04	4702.33
1368.15	4883.73
1367.26	4711.9
1366.36	4725.09
1365.47	4746.68
1364.58	4703.83
1363.69	4736.62
1362.79	4786.2
1361.9	4785.37
1361.01	4731.34
1360.11	4836.88
1359.22	4788.46
1358.33	4773.63
1357.43	4817.56
1356.54	4777.56
1355.65	4631.29
1354.75	4711.57
1353.86	4867.31
1352.96	4793.78
1352.07	4731.46
1351.17	4713.87
1350.28	4830.38
1349.39	4734.57
1348.49	4828.7
1347.59	4833.44
1346.7	4813.05
1345.8	4820.58
1344.91	4814.16
1344.01	4802.15
1343.12	4787.36
1342.22	4702.85
1341.32	4699.24
1340.43	4614.76
1339.53	4848.14
1338.63	4811.05
1337.74	4835.29
1336.84	4884.6
1335.94	4903.25
1335.04	4905.18
1334.15	4798.49
1333.25	4856.13
1332.35	4693.8
1331.45	4873.91
1330.55	4836.88
1329.66	4913.94
1328.76	4799.02
1327.86	4645.19
1326.96	4822.37
1326.06	4804.84
1325.16	4917.98
1324.26	4794.82
1323.36	4788.42
1322.46	4904.28
1321.56	4906.2
1320.66	4849.79
1319.76	4937.81
1318.86	5023.02
1317.96	5022.14
1317.06	4813.08
1316.16	5037.03
1315.26	4916.84
1314.36	4999.2
1313.46	5103.73
1312.55	5027.96
1311.65	5043.71
1310.75	5095.5
1309.85	5319.13
1308.95	5118.66
1308.04	5217.51
1307.14	5507.49
1306.24	5257.23
1305.34	5386.47
1304.43	5291.38
1303.53	5271.08
1302.63	5295.06
1301.72	5263.69
1300.82	5351.31
1299.92	5438.9
1299.01	5590.07
1298.11	5495.07
1297.21	5660
1296.3	5623.07
1295.4	5666.31
1294.49	5748.22
1293.59	5777.61
1292.68	5992.08
1291.78	5941.31
1290.87	6045.2
1289.97	5928.17
1289.06	5918.85
1288.16	6122.07
1287.25	6162.39
1286.34	5981.95
1285.44	6019.53
1284.53	5756.44
1283.62	6047.75
1282.72	5831.62
1281.81	5720.32
1280.9	5848.86
1280	5566.74
1279.09	5698.02
1278.18	5647.43
1277.27	5470.16
1276.37	5284.69
1275.46	5487.51
1274.55	5434.24
1273.64	5204.83
1272.73	5135.12
1271.82	5233.27
1270.92	5202.09
1270.01	5176.42
1269.1	5164.51
1268.19	5144.36
1267.28	5126.96
1266.37	5057.34
1265.46	5009.73
1264.55	5140.74
1263.64	5049.18
1262.73	5073.01
1261.82	5011.7
1260.91	4972.38
1260	5053.86
1259.09	4967.89
1258.18	4942.31
1257.27	4834.44
1256.35	5028.36
1255.44	4901.31
1254.53	4960.77
1253.62	4943.45
1252.71	4906.94
1251.79	4848.52
1250.88	4866.85
1249.97	4835.85
1249.06	4843.22
1248.14	4850.58
1247.23	4896.28
1246.32	4857.09
1245.41	4785.06
1244.49	4915.59
1243.58	4887.36
1242.66	4793.47
1241.75	4784.42
1240.84	4868.37
1239.92	4889.38
1239.01	4986.95
1238.09	4726.38
1237.18	4832.14
1236.26	4853.15
1235.35	4860.49
1234.43	4941.58
1233.52	4760.45
1232.6	4814.22
1231.69	4788.8
1230.77	4736.09
1229.86	4806.22
1228.94	4832.66
1228.02	4845.45
1227.11	4885.51
1226.19	4770.1
1225.27	4725.63
1224.36	4719.34
1223.44	4778.48
1222.52	4894.83
1221.6	4836.74
1220.69	4819.54
1219.77	4796.9
1218.85	4719.79
1217.93	4795.2
1217.01	4693.62
1216.1	4875.17
1215.18	4808.99
1214.26	4868.01
1213.34	4913.4
1212.42	4741.16
1211.5	4881.75
1210.58	4766.68
1209.66	4877.3
1208.74	4754.12
1207.82	4851.12
1206.9	4893.74
1205.98	4852.12
1205.06	4767.06
1204.14	4809.67
1203.22	4838.69
1202.3	4761.82
1201.38	5056.84
1200.46	4770.99
1199.54	4810.85
1198.61	4839.84
1197.69	4855.26
1196.77	4716.09
1195.85	4736.95
1194.93	4801.18
1194	4908.75
1193.08	4894.33
1192.16	4912.43
1191.24	4811.33
1190.31	4975.7
1189.39	4969.4
1188.47	4898.12
1187.54	4959.52
1186.62	4872.03
1185.7	4960.47
1184.77	5032.65
1183.85	5134.56
1182.92	5022.75
1182	5051.61
1181.07	4966.9
1180.15	5025.49
1179.23	5019.2
1178.3	5075.06
1177.37	5168.73
1176.45	4962.5
1175.52	5077.77
1174.6	4887.83
1173.67	5065.17
1172.75	5137.16
1171.82	5125.45
1170.89	4860.08
1169.97	4975.24
1169.04	4995.94
1168.11	4959.99
1167.19	4808.1
1166.26	5006.76
1165.33	4933.09
1164.4	4864.84
1163.48	4723.85
1162.55	4941.25
1161.62	4835.31
1160.69	4850.62
1159.76	5003.25
1158.83	5018.51
1157.91	4909.95
1156.98	4909.08
1156.05	4765.59
1155.12	4985.36
1154.19	4874.19
1153.26	4816.84
1152.33	4872.46
1151.4	4965.69
1150.47	4886.86
1149.54	4982.74
1148.61	5070.53
1147.68	4835.9
1146.75	4867.27
1145.82	4826.12
1144.89	4870.91
1143.96	4939.85
1143.02	4963.13
1142.09	4903.21
1141.16	4896.97
1140.23	4922.93
1139.3	5069.58
1138.36	4840.73
1137.43	4971.25
1136.5	4973.05
1135.57	4940
1134.63	4992.72
1133.7	4959.68
1132.77	5057.93
1131.83	5027.56
1130.9	5034.7
1129.97	5009.71
1129.03	5075.75
1128.1	5098.93
1127.17	5108.73
1126.23	5115.85
1125.3	5136.34
1124.36	5202.3
1123.43	5276.25
1122.49	5323.44
1121.56	5293.09
1120.62	5129.11
1119.69	5293.88
1118.75	5375.76
1117.81	5326.72
1116.88	5259
1115.94	5340.85
1115.01	5358.59
1114.07	5234.84
1113.13	5239.25
1112.2	5331.71
1111.26	5237.38
1110.32	5343.15
1109.38	5222.18
1108.45	5253.25
1107.51	5284.31
1106.57	5211.4
1105.63	5191.81
1104.69	5102.95
1103.76	5203.28
1102.82	5229
1101.88	5310.63
1100.94	5413.53
1100	5279.45
1099.06	5432.9
1098.12	5341.44
1097.18	5476.2
1096.24	5568.34
1095.3	5383.81
1094.36	5483.91
1093.42	5355.3
1092.48	5548.42
1091.54	5427.82
1090.6	5299.28
1089.66	5322.25
1088.72	5278.8
1087.78	5230.04
1086.84	5183.96
1085.9	5305.18
1084.95	5176.81
1084.01	5136.07
1083.07	5148.42
1082.13	5110.36
1081.19	5189.03
1080.24	5164.23
1079.3	5097.01
1078.36	5239.28
1077.41	5180.03
1076.47	5123.44
1075.53	5088.08
1074.58	4954.69
1073.64	4929.96
1072.7	5130.38
1071.75	5087.09
1070.81	5019.99
1069.86	5027.04
1068.92	4989.09
1067.98	4932.62
1067.03	5013.76
1066.09	5041.97
1065.14	5099.25
1064.19	5122.14
1063.25	5018.11
1062.3	5043.65
1061.36	5055.97
1060.41	4819.88
1059.46	5091.15
1058.52	4950.24
1057.57	4981.04
1056.63	5025.04
1055.68	4894.78
1054.73	5012.69
1053.78	5011.79
1052.84	5029.37
1051.89	5054.85
1050.94	4866.67
1049.99	5000.3
1049.05	5041.59
1048.1	5011.69
1047.15	5005.52
1046.2	4978.28
1045.25	5037.99
1044.3	4971.23
1043.35	5036.19
1042.4	4911.51
1041.45	5052.82
1040.5	5117.73
1039.55	4982.57
1038.6	5102.74
1037.65	4975.53
1036.7	4998.31
1035.75	4884.32
1034.8	5033.34
1033.85	5021.92
1032.9	5094.63
1031.95	4980.7
1031	5029.74
1030.05	5120.79
1029.1	5104.12
1028.14	4964
1027.19	5044.52
1026.24	5080.37
1025.29	4961.33
1024.33	4965.69
1023.38	5009.41
1022.43	5045.25
1021.48	4970.89
1020.52	5119.5
1019.57	5068.76
1018.62	5054.74
1017.66	5066.94
1016.71	5042.44
1015.75	5206.62
1014.8	5176.87
1013.85	5175.94
1012.89	5133.11
1011.94	5103.39
1010.98	5128.65
1010.03	5258.61
1009.07	5184.39
1008.12	5180.84
1007.16	5169.45
1006.2	5197.29
1005.25	5232.97
1004.29	5292.17
1003.34	5333.05
1002.38	5238
1001.42	5318.07
1000.47	5288.38
999.508	5310.94
998.551	5370.06
997.594	5282.92
996.636	5198.42
995.679	5333.23
994.721	5274.85
993.763	5234.76
992.805	5163.38
991.846	5102.45
990.888	5151.09
989.929	5100.62
988.97	5144.02
988.011	4960.63
987.052	5230.79
986.093	5167.31
985.133	5187.22
984.173	5199.32
983.213	5190.57
982.253	5150.58
981.293	5131.43
980.333	5169.55
979.372	5100.96
978.411	5136.47
977.45	5135.54
976.489	5038.38
975.528	5081.68
974.566	5231.58
973.605	5085.06
972.643	5029.56
971.681	5137.8
970.719	4931.61
969.756	5063.21
968.794	4927.24
967.831	5056.2
966.868	4987.78
965.905	5171.2
964.942	5074.23
963.979	5133.01
963.015	4942.68
962.052	5133.75
961.088	5023.9
960.124	5041.14
959.159	5200.99
958.195	5041.92
957.23	5066.93
956.266	5073.79
955.301	5287.92
954.336	4968.35
953.37	5021.84
952.405	5168.54
951.439	5038.16
950.473	5070.9
949.507	5163.16
948.541	5053.55
947.575	5000.9
946.608	5007.75
945.642	5216.33
944.675	5096.45
943.708	5219.62
942.741	5063.6
941.773	5073.02
940.806	5123.78
939.838	5071.19
938.87	5129.68
937.902	5025.46
936.934	5233.7
935.965	5142.4
934.997	5206
934.028	5174.09
933.059	5041.57
932.09	5223.82
931.121	4962.38
930.151	5131.68
929.182	5138.49
928.212	5127.25
927.242	5146.94
926.272	5148.59
925.301	5096.13
924.331	5105.52
923.36	5078.84
922.389	5147.45
921.418	5077.01
920.447	5158.46
919.475	5149.81
918.504	5161.74
917.532	5155.67
916.56	5234.48
915.588	5282.39
914.616	5268.58
913.643	5272.77
912.671	5240.98
911.698	5270.87
910.725	5169.71
909.752	5125.1
908.779	5316.81
907.805	5236.24
906.831	5260.97
905.858	5152.2
904.883	5133.3
903.909	5193.96
902.935	5175.07
901.96	5299.83
900.986	5357.86
900.011	5300.48
899.036	5040.57
898.06	5326.76
897.085	5389.87
896.109	5327.39
895.133	5316.18
894.157	5351.08
893.181	5314.26
892.205	5310.74
891.229	5268.81
890.252	5298.57
889.275	5438.37
888.298	5265.95
887.321	5410.82
886.343	5320.32
885.366	5263.09
884.388	5397.66
883.41	5389.01
882.432	5319.02
881.454	5410.06
880.475	5483.18
879.497	5638.01
878.518	5511.84
877.539	5436.78
876.56	5346.44
875.58	5434.82
874.601	5326.63
873.621	5481.33
872.641	5470.13
871.661	5497.2
870.681	5409.49
869.701	5523.26
868.72	5504.41
867.739	5551.85
866.758	5698.66
865.777	5825.03
864.796	5869.83
863.815	6100.56
862.833	6242.08
861.851	6294.42
860.869	6496.94
859.887	6546.67
858.905	6420.78
857.922	6406.9
856.939	6413.36
855.956	6358.79
854.973	6110.96
853.99	5980.18
853.007	6042.64
852.023	5939.88
851.039	6050.62
850.055	5922.48
849.071	5692.78
848.087	5727.3
847.102	5698.33
846.118	5692.22
845.133	5498.26
844.148	5550.56
843.163	5544.48
842.177	5523.18
841.192	5418.17
840.206	5523.71
839.22	5560.74
838.234	5577.48
837.248	5487.75
836.261	5552.64
835.274	5490.82
834.288	5472.09
833.301	5448.3
832.313	5320.68
831.326	5400.74
830.339	5587.09
829.351	5434.21
828.363	5524.33
827.375	5472.72
826.387	5572.91
825.398	5440.38
824.409	5393.87
823.421	5625.5
822.432	5485.44
821.443	5459.17
820.453	5480.92
819.464	5538.03
818.474	5443.56
817.484	5402.16
816.494	5509.76
815.504	5528.95
814.513	5575.91
813.523	5471.42
812.532	5392.2
811.541	5595.57
810.55	5609.68
809.559	5555.7
808.567	5443.75
807.575	5412.5
806.583	5514.86
805.591	5546.62
804.599	5535.53
803.607	5511.85
802.614	5402.54
801.621	5537.54
800.628	5526.46
799.635	5527.97
798.642	5466.56
797.649	5541.05
796.655	5595.4
795.661	5632.11
794.667	5563.18
793.673	5755.78
792.678	5578.75
791.684	5645.6
790.689	5586.77
789.694	5593.29
788.699	5516.9
787.704	5470.68
786.708	5570.14
785.713	5498.82
784.717	5653.46
783.721	5534.46
782.724	5518.39
781.728	5514.88
780.731	5536.45
779.735	5482.77
778.738	5529.41
777.741	5513.36
776.743	5489.79
775.746	5456.21
774.748	5462.73
773.75	5474.26
772.752	5388.09
771.754	5439.7
770.756	5536.37
769.757	5530.35
768.758	5354.12
767.759	5578.38
766.76	5302.12
765.761	5556.33
764.761	5440.26
763.762	5489.28
762.762	5410.77
761.762	5519.77
760.762	5416.29
759.761	5527.75
758.761	5614.19
757.76	5450.79
756.759	5614.64
755.758	5498.74
754.756	5597.61
753.755	5506.72
752.753	5613.03
751.751	5592.04
750.749	5573.55
749.747	5520.15
748.745	5671.27
747.742	5585.46
746.739	5552.03
745.736	5548.52
744.733	5557.47
743.73	5461.77
742.726	5580.35
741.723	5504.61
740.719	5448.81
739.715	5664.43
738.71	5623.57
737.706	5468.22
736.701	5454.78
735.697	5515.98
734.692	5696.57
733.686	5675.63
732.681	5639.77
731.675	5606.42
730.67	5592.96
729.664	5547.2
728.658	5603.34
727.651	5733.99
726.645	5606.26
725.638	5759.2
724.631	5601.72
723.624	5558.49
722.617	5614.56
721.61	5643.31
720.602	5592.65
719.595	5618.92
718.587	5719.58
717.578	5492.86
716.57	5581.11
715.562	5594.97
714.553	5653.42
713.544	5848.15
712.535	5557.2
711.526	5647.84
710.516	5674.04
709.507	5643.29
708.497	5721.48
707.487	5670.92
706.477	5711.96
705.467	5814.83
704.456	5873.14
703.445	6087.26
702.434	6021.84
701.423	5909.47
700.412	5923.22
699.401	5909.77
698.389	5849.38
697.377	5766.77
696.365	5770.65
695.353	5794.29
694.34	5850.02
693.328	5639.09
692.315	5719.51
691.302	5723.4
690.289	5665.59
689.276	5671.95
688.262	5720.24
687.249	5857.3
686.235	5705.81
685.221	5786.12
684.206	5627.31
683.192	5579.45
682.177	5718.87
681.162	5727.67
680.147	5689.67
679.132	5772.36
678.117	5808.23
677.101	5760.39
676.086	5651.03
675.07	5787.8
674.054	5845.78
673.037	5692.19
672.021	5787.07
671.004	5712.23
669.987	5819.36
668.97	5712.59
667.953	5714
666.936	5651.51
665.918	5736.46
664.9	5669.09
663.882	5839.95
662.864	5622.8
661.846	5820.62
660.827	5660
659.808	5764.48
658.789	5680
657.77	5833.5
656.751	5776.02
655.731	5767.6
654.712	5749.37
653.692	5765.47
652.672	5803.63
651.652	5800.11
650.631	5828.44
649.611	5920.44
648.59	5919.35
647.569	5707.68
646.548	5665.01
645.526	5791.25
644.505	5834.23
643.483	5879.65
642.461	5854.1
641.439	5831.01
640.417	5856.83
639.394	5750.62
638.371	5837.56
637.348	5997.8
636.325	5950.26
635.302	6176.38
634.279	6570.96
633.255	6696.75
632.231	6851.79
631.207	6686.96
630.183	6441.63
629.159	6179.31
628.134	5975.65
627.109	5808.65
626.084	6014.91
625.059	5943.07
624.034	5895.65
623.008	5826.3
621.983	5783.79
620.957	5914.32
619.931	5888.86
618.904	5836.62
617.878	5911.04
616.851	5880.73
615.824	5940.51
614.797	5825.01
613.77	5887.21
612.743	5832.59
611.715	5863.14
610.687	6005.57
609.659	5887.72
608.631	5971.74
607.603	5922.01
606.574	5794.53
605.546	5868.79
604.517	5986.76
603.487	5963.79
602.458	5836.39
601.429	5767.32
600.399	5890.08
599.369	6066.19
598.339	5982.55
597.309	6112.48
596.278	6009.45
595.248	5976.81
594.217	5999.95
593.186	5753.94
592.155	5895.91
591.123	5955.42
590.091	5859.8
589.06	5815.11
588.028	5770.42
586.996	5762.09
585.963	5853.05
584.931	5818.07
583.898	5729.84
582.865	5752.99
581.832	6008.42
580.798	5939.57
579.765	5977.17
578.731	5937.37
577.697	6023.32
576.663	5906.16
575.629	6093.6
574.594	6010.3
573.56	5866.63
572.525	5928.36
571.49	5801.66
570.455	5853.71
569.419	5915.4
568.384	5914.31
567.348	5828.74
566.312	5757.68
565.276	5792.8
564.239	5885.8
563.203	6017.36
562.166	5900.5
561.129	5966.91
560.092	6009.19
559.054	5938.19
558.017	6019.01
556.979	6008.26
555.941	6024
554.903	5967.5
553.865	5990.47
552.826	6013.43
551.787	5956.96
550.749	5818.68
549.709	5954.74
548.67	5799.69
547.631	5714.43
546.591	5874.48
545.551	5907.05
544.511	5737.69
543.471	5787.1
542.43	5838.88
541.39	5792.15
540.349	6002.45
539.308	5998.93
538.267	5916.18
537.225	6023.11
536.184	5861.18
535.142	5922.49
534.1	6034.15
533.058	6054.62
532.015	5830.45
530.973	5563.19
529.93	5756.35
528.887	5652.21
527.844	5641.58
526.801	5726.79
525.757	5665.83
524.713	5576.15
523.669	5730.78
522.625	5746.47
521.581	5867.49
520.537	5866.4
519.492	5989.75
518.447	6079.55
517.402	5906.19
516.357	5929.01
515.311	5872.91
514.265	5979.4
513.22	5868.33
512.174	5709.5
511.127	5612.86
510.081	5583.15
509.034	5460.29
507.987	5590.62
506.94	5372.3
505.893	5397.56
504.846	5432.36
503.798	5586.46
502.75	5552.02
501.702	5615.39
500.654	5695.44
499.606	5780.22
