3200.54	96.8252
3199.95	29.4685
3199.35	46.3007
3198.76	37.8767
3198.16	42.0788
3197.57	63.1087
3196.98	42.0661
3196.38	75.7075
3195.79	29.4374
3195.19	67.2753
3194.6	50.4488
3194	33.6275
3193.41	37.8252
3192.81	37.8194
3192.22	50.4183
3191.62	71.4151
3191.03	46.2028
3190.43	41.9962
3189.84	46.1888
3189.24	29.3884
3188.65	58.768
3188.05	46.1679
3187.45	54.5538
3186.86	54.5455
3186.26	54.5373
3185.67	46.1399
3185.07	37.7451
3184.47	62.8991
3183.88	67.0822
3183.28	37.728
3182.69	37.7223
3182.09	37.7166
3181.49	46.0911
3180.9	50.2736
3180.3	54.4548
3179.7	54.4466
3179.1	67.001
3178.51	33.4954
3177.91	50.2355
3177.31	25.114
3176.72	66.9604
3176.12	75.3191
3175.52	29.2863
3174.92	54.3806
3174.33	37.6424
3173.73	46.0005
3173.13	58.5372
3172.53	83.6119
3171.93	45.9796
3171.34	62.6899
3170.74	71.0378
3170.14	37.6025
3169.54	58.484
3168.94	54.2983
3168.34	45.9378
3167.74	62.6329
3167.15	50.0988
3166.55	58.4397
3165.95	62.6045
3165.35	66.768
3164.75	70.9302
3164.15	50.0608
3163.55	29.1977
3162.95	66.7275
3162.35	45.8682
3161.75	66.7073
3161.15	62.5286
3160.55	75.023
3159.95	58.3423
3159.35	33.3334
3158.75	62.4907
3158.15	54.1504
3157.55	58.307
3156.95	37.4774
3156.35	49.9622
3155.75	79.0949
3155.15	79.0829
3154.55	74.9093
3153.95	70.7369
3153.35	54.0847
3152.75	41.5973
3152.15	66.5456
3151.54	66.5355
3150.94	70.6833
3150.34	78.987
3149.74	87.2881
3149.14	78.963
3148.54	74.7957
3147.94	91.4031
3147.33	91.3892
3146.73	83.0685
3146.13	37.3752
3145.53	74.739
3144.93	70.5761
3144.32	62.2636
3143.72	53.9536
3143.12	45.6461
3142.52	66.3842
3141.91	78.8193
3141.31	49.7731
3140.71	74.6482
3140.1	49.7579
3139.5	91.209
3138.9	49.7428
3138.29	74.6029
3137.69	37.2958
3137.09	62.1502
3136.48	74.5689
3135.88	82.8418
3135.28	66.2634
3134.67	86.9574
3134.07	62.103
3133.47	37.2562
3132.86	66.2231
3132.26	95.1812
3131.65	37.2392
3131.05	62.0559
3130.45	78.5921
3129.84	49.6296
3129.24	70.2979
3128.63	66.1527
3128.03	62.0087
3127.42	78.5324
3126.82	33.0613
3126.21	53.7164
3125.61	53.7082
3125	53.7001
3124.4	70.2125
3123.79	74.3313
3123.19	66.0622
3122.58	103.207
3121.97	90.808
3121.37	70.1591
3120.76	70.1484
3120.16	82.515
3119.55	82.5025
3118.94	78.3654
3118.34	70.1058
3117.73	53.6022
3117.13	65.9618
3116.52	82.4398
3115.91	61.8204
3115.31	61.811
3114.7	78.282
3114.09	86.5091
3113.48	98.8525
3112.88	78.2463
3112.27	61.764
3111.66	90.5734
3111.06	69.9779
3110.45	82.3144
3109.84	90.5321
3109.23	69.9459
3108.63	69.9353
3108.02	90.4907
3107.41	82.2518
3106.8	74.0153
3106.19	74.0041
3105.59	61.6607
3104.98	86.3118
3104.37	106.846
3103.76	90.3943
3103.15	86.2724
3102.54	86.2592
3101.93	86.2461
3101.33	94.4456
3100.72	53.3742
3100.11	110.837
3099.5	73.8802
3098.89	86.1804
3098.28	57.4449
3097.67	69.7438
3097.06	77.9371
3096.45	86.1279
3095.84	98.4169
3095.23	110.702
3094.62	94.2875
3094.01	94.2731
3093.4	81.9641
3092.79	94.2444
3092.18	90.133
3091.57	118.794
3090.96	102.393
3090.35	90.0918
3089.74	81.8892
3089.13	126.909
3088.52	102.33
3087.91	130.963
3087.3	102.299
3086.69	110.466
3086.08	110.449
3085.46	130.883
3084.85	175.847
3084.24	130.843
3083.63	138.999
3083.02	138.978
3082.41	143.044
3081.79	192.058
3081.18	187.943
3080.57	192
3079.96	138.872
3079.35	175.606
3078.73	179.662
3078.12	171.47
3077.51	179.607
3076.9	171.417
3076.28	191.795
3075.67	175.445
3075.06	146.862
3074.45	150.918
3073.83	175.365
3073.22	142.717
3072.61	154.926
3071.99	134.521
3071.38	114.121
3070.77	171.156
3070.15	89.6394
3069.54	114.069
3068.93	118.125
3068.31	105.889
3067.7	118.089
3067.08	105.857
3066.47	138.407
3065.86	150.596
3065.24	97.669
3064.63	117.999
3064.01	117.981
3063.4	117.963
3062.78	97.6093
3062.17	150.458
3061.55	97.5795
3060.94	126.021
3060.32	109.743
3059.71	93.4708
3059.09	130.026
3058.48	130.007
3057.86	121.863
3057.25	117.782
3056.63	101.521
3056.02	93.3851
3055.4	121.788
3054.78	101.475
3054.17	125.809
3053.55	97.3858
3052.94	113.599
3052.32	129.808
3051.7	97.3411
3051.09	85.1605
3050.47	117.585
3049.85	101.351
3049.24	93.2282
3048.62	101.32
3048	89.1475
3047.39	81.0308
3046.77	105.324
3046.15	125.559
3045.53	113.391
3044.92	113.374
3044.3	93.1142
3043.68	93.0999
3043.06	125.463
3042.45	101.165
3041.83	76.8733
3041.21	101.134
3040.59	129.431
3039.97	72.7939
3039.35	84.9133
3038.74	97.0289
3038.12	105.099
3037.5	113.166
3036.88	133.353
3036.26	109.091
3035.64	96.9546
3035.02	96.9398
3034.41	100.963
3033.79	104.986
3033.17	137.268
3032.55	96.8804
3031.93	92.8295
3031.31	125.099
3030.69	108.94
3030.07	108.924
3029.45	100.84
3028.83	116.956
3028.21	116.938
3027.59	108.857
3026.97	92.7158
3026.35	92.7016
3025.73	80.5978
3025.11	88.644
3024.49	124.888
3023.87	132.925
3023.25	132.905
3022.63	136.911
3022	120.786
3021.38	112.716
3020.76	124.773
3020.14	112.681
3019.52	124.735
3018.9	140.808
3018.28	140.787
3017.66	112.612
3017.03	140.744
3016.41	152.784
3015.79	116.58
3015.17	128.621
3014.55	160.751
3013.92	108.491
3013.3	124.544
3012.68	112.474
3012.06	124.506
3011.43	144.565
3010.81	140.528
3010.19	120.434
3009.57	120.416
3008.94	124.41
3008.32	96.303
3007.7	152.456
3007.07	200.57
3006.45	164.442
3005.83	140.356
3005.2	100.239
3004.58	140.313
3003.96	132.274
3003.33	116.223
3002.71	104.184
3002.08	108.175
3001.46	148.217
3000.84	144.189
3000.21	112.129
2999.59	144.144
2998.96	148.126
2998.34	176.122
2997.71	148.08
2997.09	176.068
2996.46	140.033
2995.84	132.011
2995.21	167.988
2994.59	131.97
2993.96	159.939
2993.34	155.917
2992.71	159.89
2992.09	171.855
2991.46	139.861
2990.84	159.816
2990.21	179.766
2989.58	139.796
2988.96	127.794
2988.33	163.711
2987.71	127.755
2987.08	163.661
2986.45	147.671
2985.83	159.62
2985.2	151.616
2984.57	159.571
2983.95	135.614
2983.32	151.546
2982.69	115.636
2982.07	163.46
2981.44	191.338
2980.81	123.553
2980.18	163.384
2979.56	155.39
2978.93	151.383
2978.3	147.376
2977.67	183.196
2977.05	179.186
2976.42	171.196
2975.79	147.286
2975.16	175.124
2974.53	175.097
2973.91	171.091
2973.28	155.151
2972.65	147.172
2972.02	167.035
2971.39	139.174
2970.76	174.935
2970.13	178.883
2969.5	166.932
2968.88	190.75
2968.25	158.934
2967.62	202.61
2966.99	214.495
2966.36	182.69
2965.73	182.662
2965.1	150.871
2964.47	166.727
2963.84	182.577
2963.21	202.391
2962.58	170.617
2961.95	178.526
2961.32	210.231
2960.69	154.675
2960.06	222.063
2959.43	206.169
2958.8	182.352
2958.17	198.179
2957.53	174.37
2956.9	213.967
2956.27	202.049
2955.64	229.745
2955.01	178.223
2954.38	190.076
2953.75	197.965
2953.12	201.893
2952.48	174.155
2951.85	174.129
2951.22	170.145
2950.59	205.725
2949.96	181.959
2949.33	162.156
2948.69	217.493
2948.06	201.644
2947.43	181.847
2946.8	185.772
2946.16	177.839
2945.53	146.201
2944.9	185.686
2944.26	161.956
2943.63	181.679
2943	165.855
2942.37	185.571
2941.73	185.543
2941.1	173.673
2940.47	161.806
2939.83	169.673
2939.2	153.866
2938.56	149.898
2937.93	169.595
2937.3	165.625
2936.66	145.885
2936.03	181.343
2935.39	137.957
2934.76	193.11
2934.13	157.617
2933.49	220.629
2932.86	161.507
2932.22	177.237
2931.59	165.395
2930.95	157.495
2930.32	141.724
2929.68	149.574
2929.05	161.358
2928.41	173.137
2927.78	192.782
2927.14	188.819
2926.5	180.923
2925.87	169.098
2925.23	184.8
2924.6	141.527
2923.96	184.742
2923.32	204.364
2922.69	145.391
2922.05	157.155
2921.42	192.485
2920.78	204.238
2920.14	168.863
2919.51	149.205
2918.87	164.885
2918.23	192.336
2917.6	145.211
2916.96	172.657
2916.32	168.707
2915.68	215.754
2915.05	184.343
2914.41	176.472
2913.77	184.286
2913.13	152.895
2912.5	215.587
2911.86	215.554
2911.22	199.847
2910.58	211.569
2909.94	215.454
2909.31	180.17
2908.67	140.981
2908.03	148.79
2907.39	176.172
2906.75	195.716
2906.11	172.203
2905.47	183.916
2904.83	203.45
2904.2	183.859
2903.56	234.678
2902.92	199.445
2902.28	199.414
2901.64	179.836
2901	187.626
2900.36	238.404
2899.72	218.829
2899.08	183.632
2898.44	203.136
2897.8	187.481
2897.16	183.546
2896.52	195.232
2895.88	191.298
2895.24	175.654
2894.6	195.141
2893.96	214.622
2893.32	245.802
2892.67	187.249
2892.03	163.817
2891.39	222.289
2890.75	148.17
2890.11	198.828
2889.47	183.206
2888.83	183.177
2888.19	194.839
2887.54	194.809
2886.9	190.883
2886.26	210.329
2885.62	206.402
2884.98	194.688
2884.33	186.872
2883.69	198.521
2883.05	190.706
2882.41	214.025
2881.77	256.79
2881.12	202.288
2880.48	237.262
2879.84	217.781
2879.19	213.859
2878.55	190.499
2877.91	202.131
2877.26	225.419
2876.62	221.498
2875.98	221.464
2875.33	194.236
2874.69	198.09
2874.05	186.409
2873.4	213.561
2872.76	201.88
2872.11	190.204
2871.47	217.342
2870.83	244.472
2870.18	205.635
2869.54	205.603
2868.89	201.693
2868.25	224.93
2867.6	189.998
2866.96	201.599
2866.31	213.196
2865.67	197.661
2865.02	189.88
2864.38	216.972
2863.73	193.695
2863.09	228.524
2862.44	201.38
2861.8	181.988
2861.15	185.831
2860.5	178.061
2859.86	201.255
2859.21	212.833
2858.57	193.454
2857.92	197.293
2857.27	235.941
2856.63	255.241
2855.98	212.668
2855.33	235.831
2854.69	158.485
2854.04	204.839
2853.39	227.993
2852.75	216.366
2852.1	231.785
2851.45	254.924
2850.81	223.989
2850.16	189.203
2849.51	196.895
2848.86	216.164
2848.21	223.85
2847.57	219.956
2846.92	169.764
2846.27	204.457
2845.62	254.567
2844.97	208.25
2844.33	262.2
2843.68	215.896
2843.03	262.118
2842.38	231.245
2841.73	219.649
2841.08	219.615
2840.43	246.546
2839.78	196.436
2839.14	200.257
2838.49	200.225
2837.84	223.294
2837.19	246.355
2836.54	200.132
2835.89	234.734
2835.24	192.375
2834.59	207.733
2833.94	253.856
2833.29	253.816
2832.64	238.396
2831.99	215.292
2831.34	246.01
2830.69	196.009
2830.04	238.248
2829.39	222.843
2828.74	218.966
2828.08	199.728
2827.43	230.419
2826.78	230.383
2826.13	199.634
2825.48	218.796
2824.83	245.627
2824.18	253.264
2823.53	226.367
2822.87	210.987
2822.22	226.297
2821.57	237.766
2820.92	226.226
2820.27	241.526
2819.61	233.822
2818.96	249.116
2818.31	252.909
2817.66	260.532
2817	237.507
2816.35	229.81
2815.7	237.433
2815.05	248.883
2814.39	206.732
2813.74	237.322
2813.09	248.767
2812.43	264.034
2811.78	267.819
2811.13	271.603
2810.47	233.313
2809.82	252.397
2809.16	248.534
2808.51	256.142
2807.86	263.747
2807.2	233.131
2806.55	244.558
2805.89	294.188
2805.24	255.942
2804.58	263.541
2803.93	290.232
2803.28	274.914
2802.62	282.506
2801.97	229.023
2801.31	251.886
2800.66	290.005
2800	259.438
2799.34	236.51
2798.69	308.94
2798.03	251.69
2797.38	274.528
2796.72	255.424
2796.07	263.007
2795.41	255.344
2794.75	281.978
2794.1	262.884
2793.44	247.606
2792.79	255.184
2792.13	247.528
2791.47	255.105
2790.82	232.223
2790.16	296.895
2789.5	224.539
2788.84	251.14
2788.19	304.365
2787.53	270.082
2786.87	277.646
2786.22	292.814
2785.56	269.955
2784.9	277.516
2784.24	262.269
2783.59	292.631
2782.93	254.587
2782.27	254.548
2781.61	273.501
2780.95	300.045
2780.29	273.416
2779.64	239.201
2778.98	250.553
2778.32	242.922
2777.66	250.474
2777	239.052
2776.34	314.892
2775.68	257.943
2775.02	250.318
2774.36	280.615
2773.71	272.989
2773.05	272.946
2772.39	269.113
2771.73	276.65
2771.07	299.342
2770.41	299.295
2769.75	284.096
2769.09	257.541
2768.43	242.353
2767.77	268.819
2767.11	280.133
2766.45	302.799
2765.79	253.555
2765.12	295.137
2764.46	283.741
2763.8	276.132
2763.14	283.652
2762.48	279.827
2761.82	283.564
2761.16	302.421
2760.5	291.034
2759.83	268.314
2759.17	264.494
2758.51	294.676
2757.85	294.629
2757.19	294.583
2756.53	305.866
2755.86	328.471
2755.2	332.194
2754.54	309.496
2753.88	320.769
2753.21	267.895
2752.55	290.488
2751.89	301.759
2751.23	297.94
2750.56	320.518
2749.9	320.468
2749.24	297.8
2748.57	331.675
2747.91	309.012
2747.25	282.589
2746.58	323.984
2745.92	346.533
2745.25	297.52
2744.59	274.881
2743.93	320.016
2743.26	293.616
2742.6	308.625
2741.93	312.34
2741.27	289.715
2740.61	316.004
2739.94	312.193
2739.28	289.579
2738.61	342.176
2737.95	319.565
2737.28	338.31
2736.62	334.499
2735.95	338.204
2735.29	308.093
2734.62	311.802
2733.95	323.021
2733.29	311.704
2732.62	292.88
2731.96	326.623
2731.29	300.296
2730.62	311.508
2729.96	330.222
2729.29	296.403
2728.63	281.351
2727.96	333.817
2727.29	345.016
2726.63	292.467
2725.96	359.903
2725.29	363.595
2724.62	262.347
2723.96	277.295
2723.29	348.437
2722.62	288.446
2721.96	314.619
2721.29	322.059
2720.62	303.287
2719.95	344.42
2719.28	329.394
2718.62	310.63
2717.95	336.774
2717.28	340.463
2716.61	276.816
2715.94	332.876
2715.27	325.344
2714.61	347.727
2713.94	314.027
2713.27	321.453
2712.6	343.826
2711.93	310.142
2711.26	310.093
2710.59	324.987
2709.92	362.284
2709.25	324.884
2708.58	377.105
2707.91	369.58
2707.24	306.069
2706.57	332.144
2705.9	350.749
2705.23	346.963
2704.56	350.639
2703.89	309.558
2703.22	331.883
2702.55	346.745
2701.88	328.051
2701.21	331.727
2700.54	335.401
2699.87	298.088
2699.2	342.747
2698.53	346.418
2697.86	379.882
2697.19	320.243
2696.51	301.576
2695.84	353.645
2695.17	379.643
2694.5	364.698
2693.83	323.712
2693.15	305.06
2692.48	398.003
2691.81	327.278
2691.14	345.819
2690.47	323.457
2689.79	353.145
2689.12	379.106
2688.45	341.885
2687.77	319.538
2687.1	401.217
2686.43	367.724
2685.76	360.239
2685.08	375.035
2684.41	378.689
2683.74	341.509
2683.06	341.455
2682.39	382.221
2681.71	363.609
2681.04	367.262
2680.37	344.949
2679.69	352.312
2679.02	370.796
2678.34	378.152
2677.67	370.679
2676.99	344.677
2676.32	381.679
2675.65	414.965
2674.97	400.081
2674.3	403.722
2673.62	414.768
2672.95	399.892
2672.27	348
2671.59	444.185
2670.92	392.301
2670.24	377.438
2669.57	351.48
2668.89	384.717
2668.22	366.164
2667.54	436.369
2666.86	380.838
2666.19	399.262
2665.51	354.844
2664.83	376.962
2664.16	347.342
2663.48	380.538
2662.8	373.09
2662.13	387.805
2661.45	358.201
2660.77	409.836
2660.1	417.154
2659.42	417.088
2658.74	380.118
2658.06	376.368
2657.39	405.823
2656.71	413.137
2656.03	424.136
2655.35	394.568
2654.68	424.002
2654	409.19
2653.32	390.696
2652.64	379.579
2651.96	420.05
2651.28	412.615
2650.6	357.298
2649.93	386.705
2649.25	394.008
2648.57	353.447
2647.89	375.478
2647.21	449.03
2646.53	419.52
2645.85	393.697
2645.17	430.424
2644.49	437.712
2643.81	408.222
2643.13	404.48
2642.45	444.858
2641.77	389.649
2641.09	422.665
2640.41	407.899
2639.73	433.554
2639.05	437.159
2638.37	448.109
2637.69	426.004
2637.01	381.874
2636.33	389.156
2635.65	392.766
2634.96	462.436
2634.28	385.302
2633.6	425.6
2632.92	436.538
2632.24	425.465
2631.56	399.728
2630.88	406.998
2630.19	428.93
2629.51	421.531
2628.83	432.459
2628.15	461.705
2627.46	446.977
2626.78	465.222
2626.1	450.498
2625.42	424.793
2624.73	450.356
2624.05	516.18
2623.37	420.931
2622.69	420.865
2622	420.798
2621.32	464.634
2620.64	449.929
2619.95	460.83
2619.27	486.354
2618.58	478.965
2617.9	471.578
2617.22	464.193
2616.53	453.156
2615.85	493.277
2615.16	460.319
2614.48	452.941
2613.79	401.739
2613.11	478.359
2612.43	478.283
2611.74	423.451
2611.06	496.381
2610.37	456.16
2609.69	456.088
2609	452.368
2608.31	452.296
2607.63	430.342
2606.94	466.738
2606.26	455.727
2605.57	433.783
2604.89	462.872
2604.2	440.934
2603.51	466.369
2602.83	495.438
2602.14	466.221
2601.45	440.654
2600.77	440.585
2600.08	458.718
2599.39	444.085
2598.71	462.212
2598.02	469.416
2597.33	425.682
2596.65	432.89
2595.96	480.105
2595.27	472.755
2594.58	483.589
2593.9	439.887
2593.21	461.626
2592.52	490.627
2591.83	494.183
2591.14	497.738
2590.46	530.352
2589.77	519.372
2589.08	501.132
2588.39	432.067
2587.7	417.478
2587.01	475.486
2586.32	515.331
2585.64	504.363
2584.95	471.632
2584.26	446.166
2583.57	536.764
2582.88	496.791
2582.19	456.83
2581.5	503.883
2580.81	496.554
2580.12	445.741
2579.43	445.67
2578.74	492.695
2578.05	467.262
2577.36	535.998
2576.67	514.187
2575.98	499.623
2575.29	506.784
2574.6	488.607
2573.91	459.579
2573.22	470.361
2572.52	495.609
2571.83	495.53
2571.14	470.137
2570.45	513.452
2569.76	480.833
2569.07	513.289
2568.38	477.066
2567.68	513.126
2566.99	502.206
2566.3	531.025
2565.61	516.493
2564.92	523.634
2564.22	491.054
2563.53	541.518
2562.84	498.117
2562.14	534.128
2561.45	494.351
2560.76	483.448
2560.07	541.088
2559.37	494.115
2558.68	497.642
2557.99	551.646
2557.29	504.694
2556.6	475.779
2555.91	504.533
2555.21	486.437
2554.52	544.002
2553.82	536.712
2553.13	504.213
2552.44	547.344
2551.74	525.654
2551.05	554.369
2550.35	489.495
2549.66	561.39
2548.96	514.526
2548.27	525.236
2547.57	521.556
2546.88	507.087
2546.18	481.836
2545.49	542.878
2544.79	571.549
2544.1	535.517
2543.4	564.18
2542.7	556.904
2542.01	517.3
2541.31	535.176
2540.62	506.361
2539.92	499.099
2539.22	560.051
2538.53	542.014
2537.83	581.406
2537.13	531.077
2536.44	584.809
2535.74	534.495
2535.04	555.929
2534.35	563.013
2533.65	537.825
2532.95	602.268
2532.25	541.238
2531.56	580.573
2530.86	548.232
2530.16	587.553
2529.46	512.236
2528.76	590.948
2528.07	590.853
2527.37	544.214
2526.67	526.229
2525.97	561.937
2525.27	565.426
2524.57	558.18
2523.88	565.246
2523.18	518.656
2522.48	565.066
2521.78	590.006
2521.08	543.434
2520.38	593.393
2519.68	561.131
2518.98	596.777
2518.28	525.223
2517.58	603.731
2516.88	600.063
2516.18	571.397
2515.48	539.17
2514.78	556.935
2514.08	585.402
2513.38	581.74
2512.68	567.373
2511.98	531.605
2511.28	542.221
2510.58	559.968
2509.88	595.54
2509.17	606.142
2508.47	577.525
2507.77	523.967
2507.07	580.904
2506.37	598.628
2505.67	566.468
2504.97	552.129
2504.26	541.356
2503.56	523.465
2502.86	537.623
2502.16	580.255
2501.45	533.892
2500.75	565.835
2500.05	583.535
2499.35	636.806
2498.64	562.007
2497.94	572.587
2497.24	572.495
2496.53	561.738
2495.83	632.743
2495.13	572.221
2494.42	572.129
2493.72	582.697
2493.02	550.632
2492.31	543.44
2491.61	603.725
2490.9	578.774
2490.2	599.982
2489.5	564.39
2488.79	599.79
2488.09	606.791
2487.38	642.174
2486.68	549.84
2485.97	627.781
2485.27	645.412
2484.56	634.672
2483.86	623.935
2483.15	606.112
2482.45	591.84
2481.74	623.635
2481.04	591.65
2480.33	655.316
2479.62	566.669
2478.92	623.236
2478.21	626.677
2477.51	566.397
2476.8	615.858
2476.09	668.843
2475.39	668.735
2474.68	640.327
2473.97	615.464
2473.27	572.927
2472.56	650.627
2471.85	622.24
2471.14	604.465
2470.44	632.643
2469.73	621.941
2469.02	685.438
2468.31	632.339
2467.61	646.366
2466.9	646.263
2466.19	660.283
2465.48	617.813
2464.77	610.654
2464.07	652.907
2463.36	628.102
2462.65	592.72
2461.94	642.011
2461.23	599.584
2460.52	659.437
2459.81	634.651
2459.1	627.498
2458.4	602.725
2457.69	673.111
2456.98	680.05
2456.27	620.05
2455.56	637.563
2454.85	700.855
2454.14	616.231
2453.43	573.883
2452.72	689.957
2452.01	672.248
2451.3	700.293
2450.59	643.885
2449.88	608.602
2449.16	668.3
2448.45	608.407
2447.74	682.15
2447.03	724.229
2446.32	674.901
2445.61	692.366
2444.9	681.713
2444.19	632.415
2443.47	621.775
2442.76	667.335
2442.05	674.252
2441.34	635.521
2440.63	702.12
2439.91	638.827
2439.2	708.914
2438.49	789.505
2437.78	652.552
2437.06	631.401
2436.35	690.922
2435.64	676.785
2434.93	690.7
2434.21	704.612
2433.5	669.449
2432.79	728.916
2432.07	732.303
2431.36	648.107
2430.64	676.024
2429.93	644.396
2429.22	731.833
2428.5	700.206
2427.79	721.096
2427.07	699.981
2426.36	647.378
2425.65	696.257
2424.93	643.672
2424.22	699.531
2423.5	699.418
2422.79	674.83
2422.07	632.77
2421.36	695.586
2420.64	684.989
2419.92	761.754
2419.21	667.301
2418.49	712.604
2417.78	715.982
2417.06	708.883
2416.35	764.633
2415.63	698.182
2414.91	736.464
2414.2	711.917
2413.48	785.076
2412.76	666.335
2412.05	708.085
2411.33	739.359
2410.61	763.649
2409.9	711.23
2409.18	641.398
2408.46	735.398
2407.74	703.917
2407.03	693.352
2406.31	735.043
2405.59	696.611
2404.87	640.779
2404.16	685.941
2403.44	769.384
2402.72	772.741
2402	699.531
2401.28	751.614
2400.56	727.139
2399.85	730.501
2399.13	737.339
2398.41	730.265
2397.69	751.009
2396.97	723.077
2396.25	757.719
2395.53	729.795
2394.81	722.728
2394.09	753.878
2393.37	719.022
2392.65	718.906
2391.93	732.68
2391.21	763.808
2390.49	718.558
2389.77	742.738
2389.05	728.737
2388.33	742.498
2387.61	742.379
2386.89	738.79
2386.17	749.075
2385.45	703.878
2384.73	762.701
2384	800.707
2383.28	779.784
2382.56	748.472
2381.84	755.28
2381.12	744.766
2380.4	782.744
2379.67	848.413
2378.95	782.492
2378.23	810.06
2377.51	771.856
2376.79	754.428
2376.06	778.527
2375.34	761.103
2374.62	785.194
2373.9	819.651
2373.17	795.314
2372.45	791.728
2371.73	774.317
2371	867.509
2370.28	729.143
2369.56	742.846
2368.83	756.544
2368.11	746.06
2367.38	773.567
2366.66	773.442
2365.94	797.483
2365.21	835.324
2364.49	824.835
2363.76	762.591
2363.04	807.319
2362.31	793.39
2361.59	817.405
2360.86	796.582
2360.14	782.662
2359.41	758.405
2358.69	803.09
2357.96	785.729
2357.24	820.058
2356.51	885.382
2355.79	819.793
2355.06	788.665
2354.33	785.095
2353.61	809.068
2352.88	812.379
2352.15	856.99
2351.43	798.352
2350.7	853.273
2349.98	835.934
2349.25	842.678
2348.52	787.519
2347.79	849.283
2347.07	852.583
2346.34	842.133
2345.61	852.307
2344.88	810.935
2344.16	800.497
2343.43	834.719
2342.7	910.143
2341.97	831.015
2341.25	902.981
2340.52	834.179
2339.79	837.476
2339.06	912.838
2338.33	850.93
2337.6	864.514
2336.87	864.374
2336.14	874.523
2335.42	864.095
2334.69	846.813
2333.96	891.238
2333.23	843.111
2332.5	860.109
2331.77	890.805
2331.04	842.702
2330.31	948.742
2329.58	910.919
2328.85	927.892
2328.12	883.237
2327.39	859.134
2326.66	903.485
2325.93	869.121
2325.2	834.768
2324.47	803.848
2323.73	964.461
2323	923.27
2322.27	878.674
2321.54	909.298
2320.81	833.957
2320.08	878.247
2319.35	826.854
2318.61	877.962
2317.88	956.38
2317.15	925.489
2316.42	843.39
2315.69	826.184
2314.95	849.944
2314.22	938.541
2313.49	873.554
2312.76	931.413
2312.02	845.981
2311.29	869.719
2310.56	869.578
2309.82	876.256
2309.09	940.885
2308.36	920.282
2307.62	869.014
2306.89	974.501
2306.16	882.359
2305.42	960.559
2304.69	871.856
2303.95	888.74
2303.22	874.977
2302.48	868.027
2301.75	888.307
2301.02	908.581
2300.28	945.859
2299.55	918.491
2298.81	962.559
2298.08	894.388
2297.34	938.445
2296.6	921.295
2295.87	948.338
2295.13	937.988
2294.4	965.019
2293.66	930.889
2292.93	832.229
2292.19	910.209
2291.45	954.205
2290.72	899.727
2289.98	923.344
2289.24	946.952
2288.51	929.831
2287.77	980.575
2287.03	936.314
2286.3	922.594
2285.56	959.749
2284.82	946.03
2284.08	1017.07
2283.35	976.229
2282.61	999.795
2281.87	975.912
2281.13	962.201
2280.4	965.432
2279.66	1022.85
2278.92	958.346
2278.18	985.277
2277.44	961.419
2276.7	981.571
2275.97	957.723
2275.23	933.881
2274.49	994.625
2273.75	936.96
2273.01	997.683
2272.27	940.037
2271.53	953.407
2270.79	943.111
2270.05	1000.41
2269.31	936.046
2268.57	996.71
2267.83	962.766
2267.09	1040.29
2266.35	992.846
2265.61	1043.33
2264.87	1043.16
2264.13	1005.86
2263.39	1022.57
2262.65	1022.41
2261.91	1005.37
2261.17	1005.21
2260.42	951.083
2259.68	1004.88
2258.94	1008.09
2258.2	967.473
2257.46	977.427
2256.72	1037.93
2255.97	973.739
2255.23	1017.37
2254.49	990.263
2253.75	993.47
2253	1006.78
2252.26	1067.21
2251.52	1043.47
2250.78	1029.84
2250.03	1046.5
2249.29	999.228
2248.55	955.335
2247.8	1032.53
2247.06	1052.54
2246.32	1022.11
2245.57	1011.86
2244.83	1072.2
2244.09	1065.3
2243.34	1055.05
2242.6	960.808
2241.85	1071.5
2241.11	990.721
2240.36	1071.15
2239.62	1067.61
2238.88	1084.22
2238.13	1033.7
2237.39	1080.52
2236.64	1093.76
2235.89	1150.61
2235.15	1043.09
2234.4	1012.74
2233.66	1036.05
2232.91	1102.92
2232.17	1139.61
2231.42	1025.49
2230.67	1028.67
2229.93	1021.8
2229.18	1058.48
2228.44	1061.66
2227.69	1031.35
2226.94	1141.66
2226.2	1067.83
2225.45	1050.92
2224.7	1007.25
2223.95	1080.69
2223.21	1090.55
2222.46	1050.24
2221.71	1093.54
2220.96	1046.55
2220.22	1170.07
2219.47	1026.15
2218.72	1022.64
2217.97	1085.96
2217.22	1115.85
2216.48	1092.29
2215.73	1152.23
2214.98	1115.31
2214.23	1085.08
2213.48	1108.27
2212.73	1037.99
2211.98	1124.59
2211.23	1101.05
2210.48	1104.21
2209.73	1124.04
2208.98	1160.54
2208.23	1107
2207.48	1070.15
2206.73	1123.3
2205.98	1156.45
2205.23	1122.94
2204.48	1109.43
2203.73	1115.91
2202.98	1155.69
2202.23	1142.18
2201.48	1118.69
2200.73	1128.49
2199.98	1201.53
2199.23	1134.78
2198.48	1211.12
2197.72	1101.14
2196.97	1177.46
2196.22	1147.34
2195.47	1157.13
2194.72	1120.37
2193.97	1150.1
2193.21	1060.18
2192.46	1093.23
2191.71	1146.21
2190.96	1139.38
2190.2	1165.76
2189.45	1172.21
2188.7	1108.94
2187.94	1211.67
2187.19	1075.38
2186.44	1158.17
2185.68	1088.3
2184.93	1224.14
2184.18	1157.6
2183.42	1220.42
2182.67	1157.22
2181.91	1170.3
2181.16	1219.83
2180.41	1236.2
2179.65	1186.29
2178.9	1149.65
2178.14	1169.34
2177.39	1179.08
2176.63	1258.36
2175.88	1231.67
2175.12	1264.57
2174.37	1181.62
2173.61	1154.95
2172.86	1187.85
2172.1	1177.73
2171.34	1190.77
2170.59	1246.79
2169.83	1233.36
2169.08	1243.08
2168.32	1170.15
2167.56	1255.89
2166.81	1186.29
2166.05	1219.14
2165.29	1238.76
2164.54	1179.1
2163.78	1192.12
2163.02	1215.03
2162.27	1198.33
2161.51	1293.85
2160.75	1197.94
2159.99	1210.94
2159.23	1243.73
2158.48	1194.05
2157.72	1259.81
2156.96	1229.93
2156.2	1285.77
2155.44	1236.12
2154.69	1235.91
2153.93	1229.12
2153.17	1271.75
2152.41	1245.19
2151.65	1254.86
2150.89	1290.88
2150.13	1241.28
2149.37	1194.99
2148.61	1283.66
2147.85	1237.38
2147.09	1266.79
2146.33	1246.84
2145.57	1210.45
2144.81	1203.68
2144.05	1328.43
2143.29	1347.94
2142.53	1311.56
2141.77	1252.19
2141.01	1284.84
2140.25	1301.06
2139.49	1290.99
2138.73	1264.5
2137.97	1333.25
2137.2	1306.77
2136.44	1359.08
2135.68	1247.26
2134.92	1299.56
2134.16	1259.97
2133.4	1325.38
2132.63	1328.44
2131.87	1249.51
2131.11	1301.77
2130.35	1337.62
2129.58	1334.12
2128.82	1324.07
2128.06	1330.41
2127.29	1271.21
2126.53	1297.21
2125.77	1251.14
2125	1309.88
2124.24	1329.31
2123.48	1371.65
2122.71	1400.88
2121.95	1325.38
2121.19	1331.71
2120.42	1351.12
2119.66	1328
2118.89	1311.43
2118.13	1340.64
2117.36	1327.34
2116.6	1356.54
2115.83	1411.88
2115.07	1375.7
2114.3	1270.93
2113.54	1296.85
2112.77	1414.22
2112.01	1325.81
2111.24	1371.31
2110.48	1413.52
2109.71	1344.74
2108.94	1419.58
2108.18	1422.61
2107.41	1366.91
2106.64	1392.78
2105.88	1376.25
2105.11	1441.23
2104.34	1372.53
2103.58	1444.02
2102.81	1385.12
2102.04	1485.9
2101.28	1371.63
2100.51	1283.45
2099.74	1374.43
2098.97	1429.57
2098.21	1387
2097.44	1429.09
2096.67	1386.55
2095.9	1431.88
2095.13	1298.24
2094.36	1431.4
2093.6	1369.37
2092.83	1369.14
2092.06	1381.92
2091.29	1495.48
2090.52	1420.47
2089.75	1420.24
2088.98	1462.25
2088.21	1416.52
2087.44	1390.3
2086.67	1432.29
2085.9	1484.01
2085.13	1474.03
2084.36	1347.18
2083.59	1402.14
2082.82	1460.32
2082.05	1473.05
2081.28	1437.13
2080.51	1492.03
2079.74	1407.46
2078.97	1433.17
2078.2	1377.82
2077.43	1435.94
2076.65	1416.26
2075.88	1474.35
2075.11	1367.19
2074.34	1418.79
2073.57	1324.64
2072.8	1382.71
2072.02	1408.38
2071.25	1437.28
2070.48	1514.72
2069.71	1452.99
2068.93	1488.34
2068.16	1468.68
2067.39	1397.28
2066.61	1490.83
2065.84	1529.39
2065.07	1435.38
2064.29	1461
2063.52	1470.46
2062.75	1450.82
2061.97	1476.43
2061.2	1430.96
2060.43	1453.33
2059.65	1482.16
2058.88	1491.6
2058.1	1501.03
2057.33	1526.61
2056.55	1523.13
2055.78	1497.06
2055	1483.91
2054.23	1419.16
2053.45	1480.2
2052.68	1467.05
2051.9	1424.9
2051.13	1505.25
2050.35	1611.35
2049.57	1466.08
2048.8	1475.5
2048.02	1468.82
2047.25	1478.24
2046.47	1510.19
2045.69	1484.19
2044.92	1509.69
2044.14	1506.22
2043.36	1660.43
2042.59	1557.2
2041.81	1556.94
2041.03	1492.36
2040.25	1636.82
2039.48	1485.44
2038.7	1568.77
2037.92	1523.51
2037.14	1465.42
2036.37	1519.8
2035.59	1516.33
2034.81	1602.8
2034.03	1522.25
2033.25	1595.85
2032.47	1573.11
2031.69	1566.43
2030.92	1546.92
2030.14	1607.63
2029.36	1591.32
2028.58	1517.28
2027.8	1606.83
2027.02	1625.8
2026.24	1593.47
2025.46	1573.97
2024.68	1554.48
2023.9	1669.59
2023.12	1518.72
2022.34	1531.28
2021.56	1547.04
2020.78	1575.61
2020	1597.76
2019.21	1591.09
2018.43	1578.03
2017.65	1705.78
2016.87	1689.5
2016.09	1634.83
2015.31	1589.77
2014.53	1627.89
2013.74	1611.63
2012.96	1668.91
2012.18	1512
2011.4	1591.65
2010.62	1581.8
2009.83	1559.17
2009.05	1670.72
2008.27	1651.28
2007.49	1599.91
2006.7	1666.7
2005.92	1647.26
2005.14	1631.03
2004.35	1723.31
2003.57	1640.06
2002.79	1729.12
2002	1636.33
2001.22	1645.62
2000.43	1597.52
1999.65	1661.02
1998.87	1657.55
1998.08	1670.03
1997.3	1717.55
1996.51	1650.35
1995.73	1694.68
1994.94	1640.25
1994.16	1652.72
1993.37	1703.38
1992.59	1712.65
1991.8	1655.07
1991.02	1594.34
1990.23	1638.61
1989.44	1631.98
1988.66	1749.39
1987.87	1723.66
1987.09	1672.5
1986.3	1684.94
1985.51	1675.12
1984.73	1649.42
1983.94	1680.92
1983.15	1680.64
1982.37	1607.3
1981.58	1810.3
1980.79	1711.56
1980	1790.64
1979.22	1710.99
1978.43	1710.7
1977.64	1694.55
1976.85	1614.95
1976.06	1687.64
1975.28	1817.4
1974.49	1801.24
1973.7	1743.87
1972.91	1664.33
1972.12	1740.12
1971.33	1711.31
1970.54	1739.54
1969.76	1688.56
1968.97	1726.29
1968.18	1843.18
1967.39	1738.38
1966.6	1766.59
1965.81	1718.81
1965.02	1857.78
1964.23	1822.66
1963.44	1787.56
1962.65	1749.3
1961.86	1809.1
1961.07	1736.07
1960.28	1754.75
1959.48	1773.42
1958.69	1820.53
1957.9	1706.47
1957.11	1838.89
1956.32	1901.76
1955.53	1756.15
1954.74	1790.6
1953.94	1790.3
1953.15	1834.2
1952.36	1732.88
1951.57	1723.13
1950.78	1820.66
1949.98	1877.14
1949.19	1952.53
1948.4	1863.9
1947.61	1762.68
1946.81	1749.78
1946.02	1812.53
1945.23	1749.19
1944.43	1915.91
1943.64	1802.17
1942.85	1855.42
1942.05	1858.26
1941.26	1886.29
1940.46	1826.16
1939.67	1841.59
1938.88	1872.76
1938.08	1885.03
1937.29	1853.25
1936.49	1830.92
1935.7	1818.04
1934.9	1811.44
1934.11	1896.04
1933.31	1902.01
1932.52	1857.68
1931.72	1844.8
1930.93	1853.92
1930.13	1878.74
1929.33	1784.2
1928.54	1884.4
1927.74	1896.64
1926.95	1858.65
1926.15	1905.43
1925.35	1876.86
1924.56	1889.1
1923.76	1932.71
1922.96	1922.98
1922.17	1834.83
1921.37	1931.74
1920.57	1918.88
1919.77	1846.45
1918.98	1940.17
1918.18	1908.51
1917.38	1970.86
1916.58	1885.94
1915.78	1916.95
1914.99	1904.1
1914.19	1781.67
1913.39	1872.16
1912.59	1972.01
1911.79	1937.25
1910.99	1899.38
1910.19	1889.68
1909.39	1951.92
1908.59	1986
1907.8	2020.06
1907	1954.07
1906.2	2003.76
1905.4	1956.54
1904.6	1946.84
1903.8	1924.64
1903	1980.55
1902.2	1977.09
1901.39	1895.57
1900.59	1985.8
1899.79	1923.03
1898.99	2019.47
1898.19	1931.75
1897.39	1881.5
1896.59	1984.14
1895.79	2002.52
1894.99	1983.47
1894.18	2004.97
1893.38	2026.45
1892.58	1960.65
1891.78	1991.49
1890.98	1972.46
1890.17	1969.02
1889.37	1903.27
1888.57	2039.99
1887.76	2086.36
1886.96	1961.47
1886.16	1995.38
1885.36	1995.05
1884.55	1972.93
1883.75	1997.49
1882.94	2006.49
1882.14	2118.12
1881.34	1996.48
1880.53	2061.44
1879.73	1942.97
1878.92	2113.59
1878.12	1973.39
1877.32	2078.7
1876.51	2019.33
1875.71	1987.93
1874.9	2024.86
1874.1	2015.21
1873.29	2104.9
1872.49	2030.05
1871.68	2029.71
1870.87	2032.47
1870.07	2053.85
1869.26	2096.93
1868.46	2012.84
1867.65	2059.02
1866.84	2108.28
1866.04	2138.92
1865.23	2085.87
1864.42	2045.24
1863.62	1958.14
1862.81	2066.24
1862	2115.44
1861.2	2043.86
1860.39	2068.29
1859.58	2012.22
1858.77	2123.31
1857.96	2104.38
1857.16	2119.5
1856.35	2085.12
1855.54	2137.35
1854.73	2140.08
1853.92	1997.49
1853.12	2114.63
1852.31	2095.73
1851.5	2073.74
1850.69	2091.93
1849.88	2159.55
1849.07	2097.41
1848.26	2134.12
1847.45	2183.16
1846.64	2117.96
1845.83	2034.26
1845.02	2058.61
1844.21	2104.55
1843.4	2023.98
1842.59	2131.6
1841.78	2155.92
1840.97	2127.8
1840.16	2124.36
1839.35	2136.34
1838.54	2197.62
1837.72	2240.39
1836.91	2116.77
1836.1	2125.66
1835.29	2054.45
1834.48	2100.3
1833.67	2103.03
1832.85	2198.11
1832.04	2111.55
1831.23	2148.13
1830.42	2150.84
1829.6	2122.79
1828.79	2156.27
1827.98	2269.7
1827.17	2229.34
1826.35	2155.18
1825.54	2160.97
1824.73	2188.26
1823.91	2135.66
1823.1	2224.39
1822.29	2199.45
1821.47	2202.15
1820.66	2183.35
1819.84	2158.42
1819.03	2130.43
1818.21	2136.21
1817.4	2203.36
1816.58	2267.42
1815.77	2279.31
1814.95	2217.58
1814.14	2195.74
1813.32	2287.35
1812.51	2234.85
1811.69	2163.98
1810.88	2224.91
1810.06	2227.59
1809.25	2270.11
1808.43	2309.55
1807.61	2263.22
1806.8	2290.39
1805.98	2314.5
1805.16	2265.13
1804.35	2283.11
1803.53	2279.67
1802.71	2193.62
1801.89	2226.9
1801.08	2174.53
1800.26	2189.45
1799.44	2186.02
1798.62	2234.56
1797.81	2258.64
1796.99	2285.76
1796.17	2233.43
1795.35	2312.48
1794.53	2299.87
1793.71	2152.9
1792.9	2176.97
1792.08	2265.13
1791.26	2228.12
1790.44	2374.22
1789.62	2248.72
1788.8	2291.05
1787.98	2315.07
1787.16	2271.98
1786.34	2286.84
1785.52	2316.94
1784.7	2380.56
1783.88	2374.06
1783.06	2285.3
1782.24	2364.12
1781.42	2247.97
1780.6	2396.82
1779.78	2362.92
1778.95	2329.03
1778.13	2356.04
1777.31	2322.16
1776.49	2361.32
1775.67	2306.16
1774.85	2357.48
1774.02	2317.55
1773.2	2371.89
1772.38	2423.18
1771.56	2395.41
1770.74	2388.92
1769.91	2367.25
1769.09	2451.92
1768.27	2396.82
1767.44	2435.9
1766.62	2481.04
1765.8	2410.79
1764.97	2325.38
1764.15	2413.01
1763.33	2503.64
1762.5	2421.29
1761.68	2451.22
1760.85	2381.04
1760.03	2423.1
1759.21	2468.17
1758.38	2352.55
1757.56	2446.11
1756.73	2412.36
1755.91	2463.47
1755.08	2493.35
1754.26	2435.37
1753.43	2565.19
1752.6	2540.53
1751.78	2455.33
1750.95	2524.53
1750.13	2478.71
1749.3	2553.94
1748.47	2580.73
1747.65	2701.29
1746.82	2685.71
1745.99	2651.99
1745.17	2718.06
1744.34	2862.7
1743.51	2856.17
1742.69	2940.3
1741.86	3015.33
1741.03	3096.38
1740.2	3077.74
1739.38	3207.07
1738.55	3182.37
1737.72	3335.79
1736.89	3383.52
1736.06	3398.03
1735.23	3436.68
1734.4	3502.47
1733.58	3604.42
1732.75	3748.57
1731.92	3793.16
1731.09	3762.37
1730.26	3951.63
1729.43	3996.16
1728.6	4082.86
1727.77	4142.42
1726.94	4189.92
1726.11	4318.71
1725.28	4284.85
1724.45	4404.55
1723.62	4172.02
1722.79	4261.6
1721.96	4158.57
1721.13	4007.43
1720.3	3874.4
1719.46	3870.73
1718.63	3782.87
1717.8	3574.77
1716.97	3571.16
1716.14	3519.46
1715.31	3452.75
1714.47	3265.89
1713.64	3265.33
1712.81	3207.71
1711.98	2981.94
1711.14	2969.43
1710.31	2965.92
1709.48	2944.41
1708.65	2793.86
1707.81	2727.37
1706.98	2729.91
1706.15	2699.45
1705.31	2669.01
1704.48	2734.52
1703.64	2710.07
1702.81	2676.64
1701.98	2694.16
1701.14	2654.75
1700.31	2729.19
1699.47	2668.82
1698.64	2713.29
1697.8	2703.85
1696.97	2622.56
1696.13	2607.14
1695.3	2519.91
1694.46	2579.32
1693.63	2608.8
1692.79	2578.45
1691.95	2560.06
1691.12	2625.41
1690.28	2616
1689.45	2567.72
1688.61	2630.05
1687.77	2614.66
1686.94	2647.08
1686.1	2625.72
1685.26	2652.15
1684.42	2633.78
1683.59	2606.46
1682.75	2722.44
1681.91	2680.19
1681.07	2467.86
1680.24	2667.34
1679.4	2625.13
1678.56	2696.26
1677.72	2695.8
1676.88	2644.65
1676.04	2668.05
1675.21	2539.43
1674.37	2565.82
1673.53	2630.93
1672.69	2588.78
1671.85	2671.74
1671.01	2712.97
1670.17	2724.42
1669.33	2518.54
1668.49	2625.27
1667.65	2648.63
1666.81	2645.2
1665.97	2698.3
1665.13	2525.32
1664.29	2646.82
1663.45	2699.89
1662.61	2767.81
1661.77	2797.06
1660.92	2588.55
1660.08	2534.62
1659.24	2664.91
1658.4	2676.33
1657.56	2675.88
1656.72	2645.73
1655.87	2630.43
1655.03	2727.94
1654.19	2792.77
1653.35	2661.72
1652.5	2634.57
1651.66	2711.24
1650.82	2645.53
1649.98	2659.91
1649.13	2772.12
1648.29	2676.78
1647.45	2753.39
1646.6	2681.8
1645.76	2642.82
1644.91	2559.43
1644.07	2692.27
1643.23	2623.7
1642.38	2712.07
1641.54	2753.06
1640.69	2758.5
1639.85	2722.52
1639	2665.84
1638.16	2763.01
1637.31	2682.67
1636.47	2821.21
1635.62	2779.33
1634.78	2761.12
1633.93	2671.97
1633.08	2757.22
1632.24	2798.11
1631.39	2889.21
1630.55	2814.88
1629.7	2832.12
1628.85	2861.16
1628.01	2872.48
1627.16	2886.74
1626.31	2895.1
1625.46	2879.85
1624.62	3032.77
1623.77	2982.11
1622.92	3140.85
1622.07	3122.62
1621.23	3328.46
1620.38	3413.37
1619.53	3739.92
1618.68	3980.9
1617.83	4283.67
1616.98	4866.17
1616.13	5307.11
1615.29	5762.61
1614.44	6147.3
1613.59	6367.02
1612.74	6401.25
1611.89	6317.76
1611.04	6087.19
1610.19	5850.82
1609.34	5270.43
1608.49	4963.7
1607.64	4630.62
1606.79	4374.09
1605.94	4235.2
1605.09	3734.92
1604.24	3599.13
1603.38	3613.2
1602.53	3574.4
1601.68	3403.46
1600.83	3300.12
1599.98	3334.78
1599.13	3278.44
1598.27	3125.28
1597.42	3130.62
1596.57	3033.27
1595.72	3056.22
1594.87	3005.84
1594.01	2896.84
1593.16	2987.22
1592.31	2925.16
1591.45	3000.85
1590.6	2856.76
1589.75	3005.68
1588.89	2949.51
1588.04	2960.72
1587.19	2916.29
1586.33	2839.67
1585.48	2847.97
1584.62	2803.58
1583.77	2934.77
1582.92	2943.04
1582.06	2784.59
1581.21	2810.43
1580.35	2792.4
1579.5	2850.39
1578.64	2960.98
1577.78	2828.96
1576.93	2869.38
1576.07	2827.99
1575.22	2845.03
1574.36	2864.98
1573.51	2838.21
1572.65	2945.74
1571.79	2764.26
1570.94	2865.93
1570.08	2929.63
1569.22	2806.6
1568.37	2858.62
1567.51	2971.87
1566.65	2977.19
1565.79	2822.16
1564.94	2865.4
1564.08	2832.85
1563.22	2864.41
1562.36	2808.57
1561.5	2977.03
1560.65	2935.75
1559.79	2871.18
1558.93	2768.79
1558.07	2974.99
1557.21	2860.97
1556.35	2872.11
1555.49	2912.35
1554.63	2876.94
1553.77	2885.17
1552.91	2835.24
1552.05	2939.42
1551.19	2860.43
1550.33	2769.84
1549.47	2914.66
1548.61	2806.66
1547.75	2838.13
1546.89	2872.49
1546.03	2889.42
1545.17	2854.08
1544.31	2847.78
1543.45	2835.68
1542.58	2904.84
1541.72	2947.86
1540.86	2816.81
1540	2830.83
1539.14	2908.64
1538.28	2957.43
1537.41	2939.53
1536.55	2820.19
1535.69	2831.29
1534.82	2839.5
1533.96	2876.67
1533.1	2815.35
1532.24	2858.3
1531.37	3014.16
1530.51	2955.74
1529.64	2949.44
1528.78	2899.74
1527.92	2991.83
1527.05	3026.03
1526.19	2872.21
1525.32	2912.2
1524.46	2871.22
1523.59	2983.47
1522.73	2951.16
1521.86	2985.33
1521	2918.36
1520.13	2886.07
1519.27	2905.8
1518.4	2902.41
1517.54	2959.66
1516.67	2886.97
1515.8	2739.26
1514.94	2975.44
1514.07	2998.01
1513.21	2815.74
1512.34	2950.82
1511.47	2967.62
1510.6	2794.1
1509.74	2764.78
1508.87	2902.67
1508	2930.98
1507.14	2965.06
1506.27	2878.11
1505.4	3021.64
1504.53	2995.2
1503.66	2928.45
1502.8	2942.34
1501.93	2924.56
1501.06	2929.82
1500.19	2981.1
1499.32	3072.65
1498.45	2948.43
1497.58	2991.06
1496.71	2904.28
1495.84	2987.15
1494.97	3026.88
1494.1	3032.11
1493.23	2922.39
1492.36	2996.58
1491.49	2984.57
1490.62	2972.57
1489.75	3086.92
1488.88	2876.8
1488.01	2910.75
1487.14	2924.59
1486.27	3010.17
1485.4	2995.31
1484.52	2888.65
1483.65	3043.03
1482.78	2979.42
1481.91	3013.31
1481.04	3081.58
1480.17	3046.66
1479.29	3003.14
1478.42	3016.95
1477.55	3027.89
1476.67	3013.04
1475.8	3072.66
1474.93	3063.53
1474.06	3074.45
1473.18	3199.86
1472.31	2993.26
1471.43	3070
1470.56	3098.07
1469.69	3071.79
1468.81	3108.44
1467.94	3082.17
1467.06	3115.94
1466.19	3032.51
1465.31	3060.56
1464.44	3117.17
1463.56	3088.07
1462.69	3141.8
1461.81	3172.67
1460.94	3234.93
1460.06	3171.57
1459.19	3259.5
1458.31	3184.74
1457.43	3244.1
1456.56	3300.6
1455.68	3262.94
1454.8	3325.12
1453.93	3190.53
1453.05	3292.61
1452.17	3240.73
1451.3	3186.02
1450.42	3108.54
1449.54	3244.74
1448.66	3116.01
1447.78	3169.57
1446.91	3211.73
1446.03	3122.93
1445.15	3167.92
1444.27	3096.23
1443.39	3240.8
1442.51	3154.9
1441.64	3174.26
1440.76	3128.21
1439.88	3079.33
1439	3195.35
1438.12	3177.74
1437.24	3234.03
1436.36	3190.84
1435.48	3130.63
1434.6	3266.43
1433.72	3101.15
1432.84	3171.59
1431.96	3097.23
1431.08	3031.41
1430.2	3138.72
1429.31	3160.88
1428.43	3078.06
1427.55	3128.58
1426.67	3232.96
1425.79	3153.01
1424.91	3158.13
1424.02	3069.71
1423.14	3185.37
1422.26	3213.15
1421.38	3192.77
1420.49	3178.05
1419.61	3259.62
1418.73	3140.13
1417.85	3266.98
1416.96	3348.5
1416.08	3280
1415.2	3259.62
1414.31	3335.44
1413.43	3278.29
1412.54	3274.89
1411.66	3404.39
1410.78	3338.77
1409.89	3332.54
1409.01	3368.7
1408.12	3328.55
1407.24	3347.75
1406.35	3392.36
1405.47	3329.64
1404.58	3218.94
1403.7	3201.44
1402.81	3262.98
1401.92	3273.7
1401.04	3227.98
1400.15	3176.64
1399.27	3221.22
1398.38	3138.87
1397.49	3194.72
1396.61	3267.46
1395.72	3210.52
1394.83	3133.87
1393.94	3274.21
1393.06	3203.21
1392.17	3123.78
1391.28	3168.3
1390.39	3212.8
1389.51	3223.5
1388.62	3186.34
1387.73	3104.17
1386.84	3182.42
1385.95	3221.25
1385.06	3037.86
1384.17	3267.94
1383.29	3152.08
1382.4	3151.53
1381.51	3193.15
1380.62	3195.4
1379.73	3259.47
1378.84	3208.33
1377.95	3261.14
1377.06	3103.3
1376.17	3153.3
1375.28	3206.09
1374.39	3082.03
1373.5	3129.2
1372.6	3170.74
1371.71	3153.36
1370.82	3119.15
1369.93	3261.63
1369.04	3283.5
1368.15	3131.53
1367.26	3251.52
1366.36	3172.48
1365.47	3188.74
1364.58	3193.78
1363.69	3193.23
1362.79	3080.64
1361.9	3077.31
1361.01	3208.35
1360.11	3053.84
1359.22	3109.28
1358.33	3240.25
1357.43	3158.55
1356.54	3174.78
1355.65	3154.65
1354.75	3193.25
1353.86	3072.47
1352.96	3208.9
1352.07	3247.47
1351.17	3040.13
1350.28	3148.55
1349.39	3041.86
1348.49	3197.72
1347.59	3177.61
1346.7	3104.47
1345.8	3221.16
1344.91	3270.84
1344.01	3228.41
1343.12	3163.68
1342.22	3140.81
1341.32	3198.83
1340.43	3215
1339.53	3186.56
1338.63	3236.17
1337.74	3210.52
1336.84	3218.32
1335.94	3167.61
1335.04	3150.34
1334.15	3269.55
1333.25	3246.7
1332.35	3148.69
1331.45	3228.86
1330.55	3278.39
1329.66	3188.78
1328.76	3168.74
1327.86	3215.47
1326.96	3226.04
1326.06	3253.28
1325.16	3219.35
1324.26	3154.85
1323.36	3182.09
1322.46	3187.09
1321.56	3258.76
1320.66	3249.86
1319.76	3240.96
1318.86	3298.7
1317.96	3314.78
1317.06	3311.42
1316.16	3430.18
1315.26	3285.29
1314.36	3320.78
1313.46	3395.09
1312.55	3372.31
1311.65	3432.72
1310.75	3493.11
1309.85	3406.57
1308.95	3552.85
1308.04	3552.23
1307.14	3568.23
1306.24	3550.98
1305.34	3547.59
1304.43	3513.74
1303.53	3546.35
1302.63	3623.23
1301.72	3653.03
1300.82	3597.05
1299.92	3635.15
1299.01	3725.79
1298.11	3620.05
1297.21	3707.9
1296.3	3900.76
1295.4	4038.28
1294.49	4145.35
1293.59	4188.83
1292.68	4033.39
1291.78	4181.84
1290.87	4341.28
1289.97	4075.45
1289.06	4124.42
1288.16	4109.9
1287.25	4191.97
1286.34	4116.73
1285.44	4184.98
1284.53	4040.81
1283.62	4169.72
1282.72	4000.79
1281.81	3967.01
1280.9	4051.76
1280	3943.57
1279.09	4069.62
1278.18	3870.56
1277.27	3809.28
1276.37	3797.6
1275.46	3758.38
1274.55	3666.87
1273.64	3586.41
1272.73	3585.78
1271.82	3549.38
1270.92	3581.77
1270.01	3432.61
1269.1	3418.26
1268.19	3406.66
1267.28	3496.78
1266.37	3430.2
1265.46	3344.4
1264.55	3385.03
1263.64	3516.29
1262.73	3356.37
1261.82	3355.78
1260.91	3228.89
1260	3313.42
1259.09	3194.82
1258.18	3218.95
1257.27	3372.03
1256.35	3146.5
1255.44	3266.62
1254.53	3186.52
1253.62	3251.76
1252.71	3144.28
1251.79	3234.17
1250.88	3208.94
1249.97	3128.92
1249.06	3270.82
1248.14	3174.38
1247.23	3195.73
1246.32	3263.61
1245.41	3252.09
1244.49	3142.04
1243.58	3097.7
1242.66	3162.82
1241.75	3170.47
1240.84	3186.32
1239.92	3183.02
1239.01	3138.72
1238.09	3195.57
1237.18	3121.21
1236.26	3142.52
1235.35	3177.48
1234.43	3133.22
1233.52	3220.06
1232.6	3063.85
1231.69	3126.1
1230.77	3114.63
1229.86	3217.79
1228.94	3176.29
1228.02	3167.55
1227.11	3098.79
1226.19	3084.61
1225.27	3187.69
1224.36	3124.42
1223.44	3107.51
1222.52	3126.04
1221.6	3065.54
1220.69	3165.8
1219.77	3192.48
1218.85	3178.3
1217.93	3150.51
1217.01	3196.24
1216.1	3163.01
1215.18	3056.31
1214.26	3063.93
1213.34	3185.82
1212.42	2992.13
1211.5	3225.49
1210.58	3203.17
1209.66	3145.51
1208.74	3172.13
1207.82	3111.78
1206.9	3171.01
1205.98	3268.26
1205.06	3191.62
1204.14	3161.19
1203.22	3247.52
1202.3	3195.36
1201.38	3173.08
1200.46	3281.08
1199.54	3180.1
1198.61	3258.21
1197.69	3157.28
1196.77	3289.6
1195.85	3120.91
1194.93	3185.42
1194	3184.86
1193.08	3260.18
1192.16	3202.7
1191.24	3264.44
1190.31	3263.86
1189.39	3179.33
1188.47	3300.62
1187.54	3278.37
1186.62	3367.11
1185.7	3407.11
1184.77	3387.57
1183.85	3386.97
1182.92	3356.62
1182	3404.7
1181.07	3339.21
1180.15	3368.35
1179.23	3267.75
1178.3	3367.16
1177.37	3317.93
1176.45	3455.11
1175.52	3422.09
1174.6	3383.68
1173.67	3264.28
1172.75	3231.31
1171.82	3330.6
1170.89	3311.12
1169.97	3283.55
1169.04	3245.2
1168.11	3274.3
1167.19	3322.25
1166.26	3157.2
1165.33	3148.55
1164.4	3236.94
1163.48	3271.39
1162.55	3098.38
1161.62	3116.69
1160.69	3170
1159.76	3199.06
1158.83	3120.42
1157.91	3300.22
1156.98	3170.45
1156.05	3274.83
1155.12	3260.8
1154.19	3238.7
1153.26	3203.16
1152.33	3207.97
1151.4	3175.14
1150.47	3107.37
1149.54	3238.51
1148.61	3248.69
1147.68	3191.69
1146.75	3244.85
1145.82	3297.99
1144.89	3246.38
1143.96	3224.33
1143.02	3237.18
1142.09	3346.64
1141.16	3233.34
1140.23	3334.72
1139.3	3328.76
1138.36	3293.3
1137.43	3118.43
1136.5	3270.69
1135.57	3264.74
1134.63	3296.32
1133.7	3311.81
1132.77	3276.4
1131.83	3409.74
1130.9	3350.22
1129.97	3395.14
1129.03	3332.97
1128.1	3391.26
1127.17	3275.58
1126.23	3374
1125.3	3442.96
1124.36	3469.09
1123.43	3503.24
1122.49	3521.33
1121.56	3539.42
1120.62	3541.46
1119.69	3629.02
1118.75	3649.75
1117.81	3595.67
1116.88	3538.94
1115.94	3658.48
1115.01	3615.11
1114.07	3619.81
1113.13	3445.68
1112.2	3602.51
1111.26	3465.8
1110.32	3433.17
1109.38	3552.58
1108.45	3445.28
1107.51	3495.32
1106.57	3518.69
1105.63	3435.44
1104.69	3472.14
1103.76	3439.55
1102.82	3662.69
1101.88	3515.56
1100.94	3570.85
1100	3626.13
1099.06	3644.11
1098.12	3792.5
1097.18	3746.59
1096.24	3884.27
1095.3	3891.56
1094.36	3811.08
1093.42	3829.01
1092.48	3841.62
1091.54	3700.06
1090.6	3593.09
1089.66	3611.05
1088.72	3671.51
1087.78	3591.17
1086.84	3513.52
1085.9	3473.06
1084.95	3451.2
1084.01	3381.58
1083.07	3370.36
1082.13	3430.78
1081.19	3231.21
1080.24	3315.51
1079.3	3330.83
1078.36	3309.02
1077.41	3395.91
1076.47	3337
1075.53	3275.45
1074.58	3190.08
1073.64	3282.23
1072.7	3207.48
1071.75	3230.74
1070.81	3309.59
1069.86	3383.13
1068.92	3255.48
1067.98	3265.48
1067.03	3235.8
1066.09	3232.57
1065.14	3194.97
1064.19	3355.7
1063.25	3207.05
1062.3	3370.36
1061.36	3234.97
1060.41	3297.81
1059.46	3273.45
1058.52	3315.13
1057.57	3171.92
1056.63	3295.46
1055.68	3249.99
1054.73	3320.68
1053.78	3209.24
1052.84	3253.52
1051.89	3324.17
1050.94	3225.98
1049.99	3243.86
1049.05	3290.75
1048.1	3245.34
1047.15	3247.4
1046.2	3209.92
1045.25	3225.16
1044.3	3250.92
1043.35	3266.15
1042.4	3278.73
1041.45	3322.9
1040.5	3248.6
1039.55	3290.13
1038.6	3273.75
1037.65	3299.48
1036.7	3338.35
1035.75	3222.02
1034.8	3197.78
1033.85	3249.79
1032.9	3199.26
1031.95	3214.46
1031	3276.95
1030.05	3357.81
1029.1	3212.73
1028.14	3401.26
1027.19	3285.11
1026.24	3355.41
1025.29	3331.18
1024.33	3285.97
1023.38	3311.62
1022.43	3240.19
1021.48	3294.69
1020.52	3254.76
1019.57	3361.69
1018.62	3313.9
1017.66	3271.36
1016.71	3367.75
1015.75	3375
1014.8	3327.24
1013.85	3326.64
1012.89	3417.71
1011.94	3301.88
1010.98	3374.6
1010.03	3358.29
1009.07	3370.77
1008.12	3493.14
1007.16	3414.03
1006.2	3491.89
1005.25	3517.42
1004.29	3459.26
1003.34	3435.11
1002.38	3507.68
1001.42	3556.7
1000.47	3519.49
999.508	3529.3
998.551	3536.51
997.594	3392.24
996.636	3493.46
995.679	3461.51
994.721	3364.32
993.763	3462.88
992.805	3425.73
991.846	3328.59
990.888	3327.99
989.929	3376.94
988.97	3459.77
988.011	3370.52
987.052	3471.56
986.093	3431.84
985.133	3441.65
984.173	3461.87
983.213	3414.37
982.253	3309.6
981.293	3387.11
980.333	3347.45
979.372	3352.06
978.411	3346.25
977.45	3322.23
976.489	3488.11
975.528	3354.85
974.566	3551.86
973.605	3345.84
972.643	3337.44
971.681	3352.44
970.719	3364.82
969.756	3242.12
968.794	3348.03
967.831	3370.8
966.868	3393.56
965.905	3390.35
964.942	3324.86
963.979	3363.18
963.015	3321.06
962.052	3263.4
961.088	3312.09
960.124	3386.69
959.159	3342.01
958.195	3346.59
957.23	3288.97
956.266	3303.93
955.301	3404.37
954.336	3250.93
953.37	3312.5
952.405	3361.1
951.439	3275.06
950.473	3367.66
949.507	3367.05
948.541	3257.77
947.575	3381.36
946.608	3222.97
945.642	3274.11
944.675	3420.9
943.708	3430.63
942.741	3274.92
941.773	3295.01
940.806	3309.92
939.838	3324.82
938.87	3313.89
937.902	3308.13
936.934	3348.84
935.965	3237.23
934.997	3314.08
934.028	3393.48
933.059	3199.36
932.09	3381.94
931.121	3319.43
930.151	3339.46
929.182	3315.65
928.212	3485.19
927.242	3314.46
926.272	3344.78
925.301	3400.86
924.331	3392.52
923.36	3330.09
922.389	3316.62
921.418	3364.93
920.447	3382.34
919.475	3435.78
918.504	3419.72
917.532	3470.56
916.56	3346.46
915.588	3315
914.616	3419.82
913.643	3334.37
912.671	3426.3
911.698	3348.58
910.725	3417.35
909.752	3365.35
908.779	3398.14
907.805	3320.48
906.831	3317.31
905.858	3391.16
904.883	3328.95
903.909	3484.88
902.935	3545.83
901.96	3516.97
900.986	3424
900.011	3438.77
899.036	3456.1
898.06	3537.5
897.085	3562.49
896.109	3390.16
895.133	3451.03
894.157	3575.93
893.181	3506.13
892.205	3467.09
891.229	3387.09
890.252	3511.91
889.275	3490.8
888.298	3620.66
887.321	3466.51
886.343	3455.65
885.366	3577.78
884.388	3510.65
883.41	3530.47
882.432	3448.04
881.454	3559.85
880.475	3638.42
879.497	3591.77
878.518	3542.6
877.539	3664.53
876.56	3485.14
875.58	3637.68
874.601	3611.49
873.621	3590.42
872.641	3668.87
871.661	3604.43
870.681	3591.02
869.701	3677.07
868.72	3722.3
867.739	3770.05
866.758	3802.5
865.777	3827.29
864.796	4004.94
863.815	4016.95
862.833	4133.37
861.851	4326.14
860.869	4513.74
859.887	4650.38
858.905	4690.25
857.922	4763.19
856.939	4691.09
855.956	4596.13
854.973	4529.18
853.99	4294.44
853.007	4191.97
852.023	4048.88
851.039	4063.39
850.055	4009.3
849.071	3815.51
848.087	3855.45
847.102	3786.19
846.118	3856.59
845.133	3741.66
844.148	3601.39
843.163	3692.09
842.177	3574.72
841.192	3619.73
840.206	3644.43
839.22	3608.27
838.234	3483.39
837.248	3690.6
836.261	3725.41
835.274	3623.38
834.288	3620.19
833.301	3642.33
832.313	3601.15
831.326	3673.92
830.339	3559.34
829.351	3642.21
828.363	3707.35
827.375	3557.39
826.387	3569.4
825.398	3581.39
824.409	3679.36
823.421	3688.81
822.432	3665.39
821.443	3626.81
820.453	3659
819.464	3741.71
818.474	3564.21
817.484	3662.05
816.494	3658.86
815.504	3584.98
814.513	3576.76
813.523	3586.2
812.532	3630.97
811.541	3718.6
810.55	3687.66
809.559	3750.04
808.567	3575.37
807.575	3589.85
806.583	3644.65
805.591	3555.78
804.599	3655.92
803.607	3504.1
802.614	3644.51
801.621	3616.15
800.628	3605.42
799.635	3667.69
798.642	3594.04
797.649	3623.58
796.655	3695.88
795.661	3813.43
794.667	3709.62
793.673	3759.24
792.678	3766.09
791.684	3747.81
790.689	3742.1
789.694	3603.22
788.699	3662.86
787.704	3622
786.708	3583.67
785.713	3527.78
784.717	3620.02
783.721	3446.17
782.724	3510.79
781.728	3628.08
780.731	3813.05
779.735	3619.23
778.738	3500.71
777.741	3607.88
776.743	3557.09
775.746	3611.57
774.748	3568.32
773.75	3560.15
772.752	3679.74
771.754	3626.47
770.756	3483.08
769.757	3660.2
768.758	3589.44
767.759	3546.24
766.76	3610.65
765.761	3539.94
764.761	3644.35
763.762	3588.66
762.762	3593.01
761.762	3699.85
760.762	3546.71
759.761	3558.55
758.761	3680.33
757.76	3552.26
756.759	3599.06
755.758	3703.29
754.756	3485.4
753.755	3694.44
752.753	3613.9
751.751	3528.4
750.749	3662.48
749.747	3649.34
748.745	3661.14
747.742	3538.29
746.739	3702.18
745.736	3564.41
744.733	3603.63
743.73	3602.98
742.726	3679.54
741.723	3604.15
740.719	3633.37
739.715	3689.97
738.71	3659.43
737.706	3628.89
736.701	3653.11
735.697	3692.25
734.692	3699.04
733.686	3618.77
732.681	3585.78
731.675	3729.33
730.67	3664.01
729.664	3598.72
728.658	3665.16
727.651	3676.91
726.645	3763.17
725.638	3670.59
724.631	3672.4
723.624	3708.97
722.617	3695.88
721.61	3667.9
720.602	3672.19
719.595	3805.48
718.587	3876.71
717.578	3727.21
716.57	3761.24
715.562	3691.14
714.553	3608.67
713.544	3598.1
712.535	3614.78
711.526	3698.34
710.516	3821.5
709.507	3731.65
708.497	3782.96
707.487	3888.7
706.477	3848.39
705.467	3897.17
704.456	3856.88
703.445	4009.53
702.434	4152.23
701.423	4062.45
700.412	3977.65
699.401	3959.62
698.389	3857.57
697.377	3698.74
696.365	3754.88
695.353	3788.76
694.34	3807.82
693.328	3567.64
692.315	3717.56
691.302	3768.71
690.289	3691.52
689.276	3710.58
688.262	3845.56
687.249	3677.15
686.235	3752.92
685.221	3678.27
684.206	3914.22
683.192	3952.93
682.177	3718.13
681.162	3697.74
680.147	3677.35
679.132	3661.9
678.117	3811.42
677.101	3704.86
676.086	3787.87
675.07	3708.42
674.054	3749.57
673.037	3812.84
672.021	3753.11
671.004	3804.06
669.987	3820.57
668.97	3679.75
667.953	3782.3
666.936	3744.74
665.918	3726.86
664.9	3721.26
663.882	3651.81
662.864	3874.58
661.846	3704.47
660.827	3750.43
659.808	3786.55
658.789	3778.49
657.77	3797.42
656.751	3818.79
655.731	3702.84
654.712	3890.94
653.692	3789.72
652.672	3845.39
651.652	3829.98
650.631	3814.58
649.611	3838.37
648.59	3852.36
647.569	3709.63
646.548	3890.11
645.526	3872.26
644.505	3768.76
643.483	3731.36
642.461	3777.15
641.439	3822.93
640.417	3885.81
639.394	3916.88
638.371	3840.37
637.348	3856.77
636.325	4144.41
635.302	4128.99
634.279	4489.75
633.255	4686.75
632.231	4837.28
631.207	4760.7
630.183	4579.2
629.159	4402.64
628.134	4001.66
627.109	4032.63
626.084	3990.42
625.059	3945.79
624.034	3974.32
623.008	3902.89
621.983	3938.73
620.957	4013.55
619.931	3942.15
618.904	3931.68
617.878	3867.63
616.851	3991.1
615.824	3973.33
614.797	3726.74
613.77	3857.47
612.743	3922.46
611.715	3848.75
610.687	3916.14
609.659	3881.37
608.631	3853.91
607.603	3984.47
606.574	3959.43
605.546	3873.65
604.517	3897.23
603.487	3830.92
602.458	3873.93
601.429	3841.64
600.399	3855.5
599.369	3942.17
598.339	4023.96
597.309	3952.85
596.278	3850.22
595.248	3973.22
594.217	3890.03
593.186	3959.62
592.155	4021.92
591.123	3870.9
590.091	3848.37
589.06	3990.62
588.028	3897.82
586.996	3933.43
585.963	3884.27
584.931	3801.23
583.898	3982.08
582.865	3981.35
581.832	3908.01
580.798	3938.74
579.765	3894.47
578.731	4041.28
577.697	4004.26
576.663	4037.36
575.629	4014.86
574.594	4038.29
573.56	4090.7
572.525	3998.14
571.49	3869.38
570.455	3989.41
569.419	3877.61
568.384	3850.33
567.348	3972.71
566.312	3909.24
565.276	3961.59
564.239	3905.37
563.203	3977
562.166	4038.96
561.129	3900.79
560.092	4030.23
559.054	3935.49
558.017	4031.15
556.979	4102.67
555.941	3918.85
554.903	3971.11
553.865	4004.08
552.826	3873.34
551.787	3913.54
550.749	3917.63
549.709	3827.88
548.67	3947.44
547.631	3908.23
546.591	3912.31
545.551	3858.7
544.511	3802.69
543.471	3876.49
542.43	3938.24
541.39	4038.41
540.349	3996.83
539.308	3957.66
538.267	4069.78
537.225	4018.61
536.184	3955.46
535.142	4029.11
534.1	3956.39
533.058	3989.24
532.015	3909.35
530.973	3899.03
529.93	3778.43
528.887	3825.67
527.844	3765.04
526.801	3769.14
525.757	3813.95
524.713	3849.17
523.669	3740.69
522.625	3912.39
521.581	3933.21
520.537	4025.82
519.492	4029.86
518.447	3993.22
517.402	4006.83
516.357	3977.39
515.311	4038.82
514.265	3999.81
513.22	3991.9
512.174	3893.17
511.127	3847.05
510.081	3769.88
509.034	3714.24
507.987	3713.55
506.94	3727.18
505.893	3681.13
504.846	3611.23
503.798	3648.74
502.75	3824.62
501.702	3807.21
500.654	3818.42
499.606	3822.48
