3200.54	21.049
3199.95	33.6783
3199.35	21.0458
3198.76	42.0852
3198.16	54.7025
3197.57	46.2797
3196.98	37.8595
3196.38	33.6478
3195.79	37.8481
3195.19	29.4329
3194.6	50.4488
3194	12.6103
3193.41	33.6224
3192.81	54.6281
3192.22	58.8214
3191.62	21.0045
3191.03	42.0025
3190.43	25.1977
3189.84	50.3878
3189.24	29.3884
3188.65	8.39543
3188.05	16.7883
3187.45	12.5893
3186.86	29.3707
3186.26	29.3662
3185.67	20.9727
3185.07	50.3269
3184.47	29.3529
3183.88	29.3485
3183.28	37.728
3182.69	29.3396
3182.09	8.38147
3181.49	29.3307
3180.9	37.7052
3180.3	29.3218
3179.7	16.7528
3179.1	8.37512
3178.51	33.4954
3177.91	20.9315
3177.31	46.0423
3176.72	12.5551
3176.12	25.1064
3175.52	41.8376
3174.92	41.8313
3174.33	25.095
3173.73	29.273
3173.13	50.1747
3172.53	20.903
3171.93	45.9796
3171.34	29.2553
3170.74	25.0722
3170.14	0
3169.54	41.7743
3168.94	8.35359
3168.34	20.8808
3167.74	41.7553
3167.15	16.6996
3166.55	33.3941
3165.95	8.34726
3165.35	29.211
3164.75	25.0342
3164.15	33.3739
3163.55	41.711
3162.95	41.7047
3162.35	29.1889
3161.75	41.6921
3161.15	29.18
3160.55	29.1756
3159.95	25.0039
3159.35	37.5001
3158.75	54.1586
3158.15	20.8271
3157.55	33.3183
3156.95	37.4774
3156.35	29.1446
3155.75	45.7918
3155.15	33.2981
3154.55	41.6163
3153.95	20.805
3153.35	45.764
3152.75	45.7571
3152.15	33.2728
3151.54	20.7924
3150.94	33.2627
3150.34	29.1005
3149.74	33.2526
3149.14	37.4035
3148.54	41.5532
3147.94	16.6187
3147.33	37.3865
3146.73	53.9945
3146.13	41.528
3145.53	29.0652
3144.93	29.0607
3144.32	33.2072
3143.72	8.30055
3143.12	33.1972
3142.52	24.8941
3141.91	29.0387
3141.31	16.591
3140.71	24.8827
3140.1	29.0255
3139.5	29.0211
3138.9	20.7262
3138.29	16.5784
3137.69	24.8639
3137.09	12.43
3136.48	12.4282
3135.88	33.1367
3135.28	33.1317
3134.67	16.5633
3134.07	16.5608
3133.47	49.6749
3132.86	28.9726
3132.26	20.6916
3131.65	20.6884
3131.05	41.3706
3130.45	37.2279
3129.84	28.9506
3129.24	45.4869
3128.63	20.6727
3128.03	12.4017
3127.42	20.6664
3126.82	37.1939
3126.21	45.4523
3125.61	53.7082
3125	33.0462
3124.4	28.911
3123.79	37.1657
3123.19	8.25778
3122.58	41.2826
3121.97	45.404
3121.37	37.1431
3120.76	49.5166
3120.16	24.7545
3119.55	41.2512
3118.94	45.3695
3118.34	45.3626
3117.73	45.3557
3117.13	24.7357
3116.52	32.9759
3115.91	53.5777
3115.31	37.0866
3114.7	32.9609
3114.09	32.9558
3113.48	20.5943
3112.88	49.4187
3112.27	57.6464
3111.66	41.1697
3111.06	37.0471
3110.45	45.2729
3109.84	12.3453
3109.23	32.9157
3108.63	57.5938
3108.02	37.0189
3107.41	12.3378
3106.8	12.3359
3106.19	20.5567
3105.59	32.8857
3104.98	36.9908
3104.37	28.7662
3103.76	28.7618
3103.15	36.9739
3102.54	53.3986
3101.93	36.9626
3101.33	45.1696
3100.72	53.3742
3100.11	36.9457
3099.5	53.3579
3098.89	69.7651
3098.28	53.3417
3097.67	16.4103
3097.06	24.6117
3096.45	53.3173
3095.84	53.3092
3095.23	41.0008
3094.62	28.6962
3094.01	20.4941
3093.4	32.7856
3092.79	45.0734
3092.18	57.3574
3091.57	32.7707
3090.96	65.5313
3090.35	36.8557
3089.74	65.5113
3089.13	53.2198
3088.52	53.2117
3087.91	69.574
3087.3	40.9196
3086.69	49.0961
3086.08	40.9071
3085.46	40.9009
3084.85	61.342
3084.24	53.155
3083.63	49.0586
3083.02	53.1387
3082.41	65.3916
3081.79	85.8133
3081.18	61.2859
3080.57	65.3616
3079.96	69.4361
3079.35	89.8448
3078.73	73.4982
3078.12	57.1565
3077.51	44.9019
3076.9	53.0577
3076.28	69.3726
3075.67	77.5222
3075.06	53.0334
3074.45	53.0253
3073.83	48.939
3073.22	44.8539
3072.61	57.0781
3071.99	65.2221
3071.38	44.8334
3070.77	61.1271
3070.15	52.9687
3069.54	36.665
3068.93	85.5387
3068.31	48.8718
3067.7	48.8643
3067.08	69.2139
3066.47	28.4955
3065.86	36.6315
3065.24	44.765
3064.63	52.896
3064.01	56.9562
3063.4	56.9475
3062.78	20.3353
3062.17	65.0629
3061.55	60.9872
3060.94	56.9127
3060.32	36.5811
3059.71	28.4476
3059.09	48.7599
3058.48	44.6898
3057.86	24.3725
3057.25	36.5532
3056.63	40.6084
3056.02	64.9636
3055.4	48.7152
3054.78	28.4129
3054.17	32.4669
3053.55	73.0393
3052.94	56.7997
3052.32	44.6215
3051.7	48.6706
3051.09	60.8289
3050.47	44.601
3049.85	44.5942
3049.24	64.8544
3048.62	24.3167
3048	52.6781
3047.39	36.4639
3046.77	44.5601
3046.15	32.4024
3045.53	44.5465
3044.92	40.4906
3044.3	64.7751
3043.68	28.3348
3043.06	52.6136
3042.45	40.4658
3041.83	64.7354
3041.21	36.4081
3040.59	48.5367
3039.97	36.397
3039.35	48.5219
3038.74	52.5573
3038.12	60.6338
3037.5	32.3331
3036.88	56.5742
3036.26	32.3232
3035.64	56.5569
3035.02	48.4699
3034.41	28.2698
3033.79	48.4551
3033.17	48.4476
3032.55	80.7337
3031.93	40.3607
3031.31	44.3899
3030.69	68.5921
3030.07	52.4448
3029.45	96.8063
3028.83	28.2308
3028.21	52.4207
3027.59	68.5396
3026.97	80.6225
3026.35	60.4576
3025.73	72.538
3025.11	64.4683
3024.49	56.4011
3023.87	48.3364
3023.25	40.2742
3022.63	72.4824
3022	68.4451
3021.38	16.1023
3020.76	56.3493
3020.14	40.2433
3019.52	48.2846
3018.9	68.3927
3018.28	68.3822
3017.66	60.328
3017.03	56.2975
3016.41	72.3714
3015.79	68.3403
3015.17	68.3298
3014.55	64.3005
3013.92	52.2362
3013.3	60.2633
3012.68	32.1355
3012.06	64.2611
3011.43	56.2198
3010.81	64.2414
3010.19	48.1736
3009.57	44.1524
3008.94	40.1324
3008.32	56.1767
3007.7	88.2642
3007.07	60.1709
3006.45	60.1616
3005.83	44.1118
3005.2	56.1336
3004.58	88.1965
3003.96	52.1081
3003.33	52.1001
3002.71	32.0567
3002.08	36.0582
3001.46	84.1229
3000.84	68.0891
3000.21	88.1017
2999.59	80.0802
2998.96	44.0373
2998.34	104.072
2997.71	32.0173
2997.09	52.0202
2996.46	92.0215
2995.84	64.0051
2995.21	59.9956
2994.59	51.9882
2993.96	71.9726
2993.34	67.9637
2992.71	83.9423
2992.09	43.963
2991.46	75.9244
2990.84	67.9219
2990.21	67.9115
2989.58	67.9011
2988.96	63.8971
2988.33	55.9013
2987.71	67.8698
2987.08	83.8262
2986.45	63.8578
2985.83	79.81
2985.2	87.7775
2984.57	83.7747
2983.95	59.8299
2983.32	63.8087
2982.69	71.7738
2982.07	47.8418
2981.44	83.7103
2980.81	63.7695
2980.18	95.6395
2979.56	67.7343
2978.93	95.6101
2978.3	87.6291
2977.67	87.6157
2977.05	91.5841
2976.42	87.5887
2975.79	83.5945
2975.16	75.6215
2974.53	71.6304
2973.91	103.45
2973.28	91.4996
2972.65	95.4632
2972.02	95.4485
2971.39	95.4338
2970.76	91.4433
2970.13	83.4789
2969.5	75.5169
2968.88	83.4532
2968.25	107.28
2967.62	83.4275
2966.99	107.247
2966.36	99.2878
2965.73	95.3017
2965.1	103.228
2964.47	111.151
2963.84	83.3504
2963.21	75.4007
2962.58	111.1
2961.95	134.886
2961.32	99.1656
2960.69	99.1503
2960.06	75.3427
2959.43	114.979
2958.8	110.997
2958.17	107.016
2957.53	79.2592
2956.9	134.72
2956.27	91.12
2955.64	118.834
2955.01	63.3683
2954.38	91.0779
2953.75	102.942
2953.12	91.0498
2952.48	122.7
2951.85	126.639
2951.22	126.619
2950.59	122.644
2949.96	83.0684
2949.33	126.561
2948.69	59.3163
2948.06	94.8914
2947.43	83.0172
2946.8	118.578
2946.16	63.2317
2945.53	79.0274
2944.9	90.8675
2944.26	98.7538
2943.63	82.9404
2943	78.9787
2942.37	82.9148
2941.73	67.1112
2941.1	82.8893
2940.47	90.7695
2939.83	67.0801
2939.2	86.7962
2938.56	59.1701
2937.93	86.7694
2937.3	70.9822
2936.66	106.457
2936.03	67.018
2935.39	98.5407
2934.76	78.8204
2934.13	74.8679
2933.49	86.6757
2932.86	63.0272
2932.22	102.403
2931.59	63.0077
2930.95	62.998
2930.32	94.4824
2929.68	55.1062
2929.05	98.3887
2928.41	70.829
2927.78	106.227
2927.14	74.7408
2926.5	55.0637
2925.87	74.7177
2925.23	70.7743
2924.6	90.4198
2923.96	70.7524
2923.32	113.972
2922.69	74.66
2922.05	66.7908
2921.42	86.4218
2920.78	62.8425
2920.14	82.468
2919.51	66.7495
2918.87	86.3684
2918.23	66.7289
2917.6	98.1155
2916.96	90.2523
2916.32	117.702
2915.68	78.456
2915.05	82.3661
2914.41	86.275
2913.77	54.8938
2913.13	86.2483
2912.5	90.1547
2911.86	97.9791
2911.22	62.6969
2910.58	74.4411
2909.94	90.099
2909.31	66.5846
2908.67	86.155
2908.03	66.564
2907.39	113.533
2906.75	105.687
2906.11	109.584
2905.47	97.8277
2904.83	89.9876
2904.2	113.445
2903.56	74.3146
2902.92	86.0351
2902.28	97.7521
2901.64	66.4611
2901	109.448
2900.36	70.3488
2899.72	105.507
2899.08	82.0482
2898.44	89.8484
2897.8	78.117
2897.16	105.442
2896.52	113.235
2895.88	70.2726
2895.24	89.7789
2894.6	93.6678
2893.96	101.458
2893.32	85.8356
2892.67	97.5253
2892.03	132.614
2891.39	70.1965
2890.75	74.0848
2890.11	113.059
2889.47	85.7559
2888.83	85.7426
2888.19	85.7293
2887.54	101.301
2886.9	93.4939
2886.26	101.269
2885.62	58.4156
2884.98	112.919
2884.33	89.5428
2883.69	66.1736
2883.05	101.191
2882.41	81.7185
2881.77	97.2688
2881.12	93.3636
2880.48	105.018
2879.84	108.89
2879.19	104.985
2878.55	73.867
2877.91	120.501
2877.26	116.596
2876.62	77.7186
2875.98	108.789
2875.33	81.5792
2874.69	97.1031
2874.05	104.855
2873.4	124.253
2872.76	89.2933
2872.11	120.333
2871.47	104.79
2870.83	97.0128
2870.18	77.5982
2869.54	96.9827
2868.89	81.4528
2868.25	89.1964
2867.6	112.448
2866.96	104.676
2866.31	58.1445
2865.67	93.0167
2865.02	69.7517
2864.38	100.737
2863.73	85.2256
2863.09	81.3391
2862.44	116.181
2861.8	73.5697
2861.15	61.9438
2860.5	119.998
2859.86	96.7572
2859.21	100.612
2858.57	123.811
2857.92	108.318
2857.27	65.754
2856.63	81.2129
2855.98	77.3336
2855.33	112.116
2854.69	108.233
2854.04	108.217
2853.39	131.386
2852.75	139.092
2852.1	77.2616
2851.45	96.562
2850.81	127.442
2850.16	100.393
2849.51	100.378
2848.86	119.662
2848.21	142.801
2847.57	127.343
2846.92	100.315
2846.27	119.588
2845.62	111.855
2844.97	107.981
2844.33	84.8294
2843.68	73.2504
2843.03	96.3671
2842.38	119.477
2841.73	111.751
2841.08	104.028
2840.43	134.83
2839.78	80.8855
2839.14	123.235
2838.49	130.917
2837.84	88.5475
2837.19	107.78
2836.54	92.3687
2835.89	84.6581
2835.24	96.1874
2834.59	130.795
2833.94	111.543
2833.29	99.9882
2832.64	115.353
2831.99	84.5791
2831.34	84.5659
2830.69	115.299
2830.04	103.753
2829.39	99.8949
2828.74	103.721
2828.08	107.546
2827.43	119.05
2826.78	107.512
2826.13	119.013
2825.48	107.479
2824.83	115.138
2824.18	92.0959
2823.53	103.592
2822.87	107.412
2822.22	88.2174
2821.57	107.378
2820.92	122.699
2820.27	95.8437
2819.61	95.8287
2818.96	91.9813
2818.31	114.959
2817.66	126.435
2817	103.431
2816.35	134.056
2815.7	126.376
2815.05	91.8953
2814.39	95.7094
2813.74	122.489
2813.09	80.3708
2812.43	91.8381
2811.78	99.4757
2811.13	80.3333
2810.47	133.868
2809.82	107.078
2809.16	103.237
2808.51	118.513
2807.86	57.3362
2807.2	95.5454
2806.55	122.279
2805.89	91.695
2805.24	129.881
2804.58	114.583
2803.93	126.022
2803.28	126.002
2802.62	76.353
2801.97	95.4263
2801.31	80.1456
2800.66	114.476
2800	125.904
2799.34	137.328
2798.69	114.422
2798.03	114.404
2797.38	118.199
2796.72	95.3073
2796.07	125.786
2795.41	106.711
2794.75	102.884
2794.1	99.0577
2793.44	114.28
2792.79	137.114
2792.13	137.093
2791.47	102.803
2790.82	106.594
2790.16	129.416
2789.5	110.367
2788.84	117.96
2788.19	114.137
2787.53	114.119
2786.87	125.511
2786.22	125.492
2785.56	98.8569
2784.9	129.254
2784.24	114.03
2783.59	129.214
2782.93	113.994
2782.27	113.977
2781.61	87.3684
2780.95	140.527
2780.29	106.328
2779.64	125.296
2778.98	140.461
2778.32	117.665
2777.66	113.852
2777	110.04
2776.34	110.023
2775.68	113.799
2775.02	140.33
2774.36	163.06
2773.71	113.745
2773.05	125.1
2772.39	136.452
2771.73	113.692
2771.07	147.776
2770.41	132.599
2769.75	170.458
2769.09	136.345
2768.43	128.75
2767.77	121.158
2767.11	117.353
2766.45	147.615
2765.79	124.885
2765.12	117.298
2764.46	136.196
2763.8	117.261
2763.14	143.717
2762.48	128.569
2761.82	113.425
2761.16	158.771
2760.5	128.509
2759.83	139.826
2759.17	151.139
2758.51	136.004
2757.85	109.542
2757.19	113.301
2756.53	113.284
2755.86	166.123
2755.2	147.223
2754.54	147.199
2753.88	109.439
2753.21	98.1023
2752.55	147.13
2751.89	147.107
2751.23	147.084
2750.56	124.436
2749.9	131.957
2749.24	143.246
2748.57	143.223
2747.91	120.59
2747.25	105.5
2746.58	128.087
2745.92	135.6
2745.25	120.515
2744.59	161.916
2743.93	128.007
2743.26	124.222
2742.6	127.966
2741.93	131.71
2741.27	131.689
2740.61	139.192
2739.94	146.693
2739.28	97.78
2738.61	124.086
2737.95	154.143
2737.28	135.324
2736.62	112.752
2735.95	97.7034
2735.29	139.018
2734.62	138.996
2733.95	135.218
2733.29	157.73
2732.62	135.176
2731.96	123.892
2731.29	123.872
2730.62	127.606
2729.96	138.843
2729.29	157.581
2728.63	123.794
2727.96	146.28
2727.29	157.507
2726.63	127.486
2725.96	116.219
2725.29	131.194
2724.62	161.156
2723.96	116.164
2723.29	142.372
2722.62	134.858
2721.96	97.382
2721.29	176.009
2720.62	134.794
2719.95	134.773
2719.28	168.44
2718.62	127.246
2717.95	153.419
2717.28	149.654
2716.61	112.223
2715.94	142.127
2715.27	142.104
2714.61	157.038
2713.94	134.583
2713.27	160.726
2712.6	119.592
2711.93	115.836
2711.26	127.026
2710.59	149.419
2709.92	156.865
2709.25	182.981
2708.58	138.148
2707.91	153.058
2707.24	115.709
2706.57	141.814
2705.9	115.672
2705.23	156.693
2704.56	160.398
2703.89	137.996
2703.22	137.974
2702.55	160.323
2701.88	137.931
2701.21	126.727
2700.54	137.887
2699.87	141.592
2699.2	149.02
2698.53	148.997
2697.86	152.698
2697.19	160.121
2696.51	148.927
2695.84	145.181
2695.17	133.992
2694.5	119.085
2693.83	163.716
2693.15	115.327
2692.48	122.749
2691.81	141.325
2691.14	174.769
2690.47	156.152
2689.79	185.866
2689.12	170.969
2688.45	141.213
2687.77	137.476
2687.1	152.314
2686.43	167.147
2685.76	178.263
2685.08	137.389
2684.41	167.069
2683.74	159.618
2683.06	155.882
2682.39	159.568
2681.71	196.646
2681.04	174.356
2680.37	118.692
2679.69	159.467
2679.02	207.646
2678.34	170.539
2677.67	170.512
2676.99	170.486
2676.32	151.931
2675.65	151.907
2674.97	170.405
2674.3	200.009
2673.62	151.835
2672.95	155.514
2672.27	177.702
2671.59	177.674
2670.92	155.44
2670.24	173.918
2669.57	129.493
2668.89	177.562
2668.22	177.534
2667.54	177.506
2666.86	173.78
2666.19	129.391
2665.51	151.548
2664.83	158.915
2664.16	199.537
2663.48	158.865
2662.8	184.698
2662.13	173.589
2661.45	158.79
2660.77	136.612
2660.1	169.815
2659.42	136.569
2658.74	188.214
2658.06	173.425
2657.39	132.815
2656.71	173.37
2656.03	169.654
2655.35	177.003
2654.68	165.914
2654	158.515
2653.32	176.919
2652.64	114.242
2651.96	184.232
2651.28	206.308
2650.6	187.858
2649.93	191.511
2649.25	180.434
2648.57	195.132
2647.89	173.014
2647.21	187.709
2646.53	147.2
2645.85	209.727
2645.17	191.299
2644.49	172.878
2643.81	154.462
2643.13	158.115
2642.45	172.796
2641.77	187.472
2641.09	180.092
2640.41	187.413
2639.73	176.361
2639.05	157.965
2638.37	176.305
2637.69	150.57
2637.01	179.921
2636.33	172.55
2635.65	179.865
2634.96	187.176
2634.28	183.477
2633.6	150.428
2632.92	242.113
2632.24	161.383
2631.56	190.696
2630.88	186.999
2630.19	183.303
2629.51	172.278
2628.83	201.57
2628.15	201.538
2627.46	175.86
2626.78	205.137
2626.1	186.792
2625.42	179.438
2624.73	219.686
2624.05	208.669
2623.37	172.033
2622.69	190.304
2622	212.229
2621.32	190.244
2620.64	201.188
2619.95	179.212
2619.27	208.438
2618.58	175.499
2617.9	175.471
2617.22	197.373
2616.53	208.306
2615.85	211.927
2615.16	208.24
2614.48	204.554
2613.79	186.261
2613.11	189.883
2612.43	211.759
2611.74	197.124
2611.06	222.641
2610.37	215.308
2609.69	178.786
2609	222.536
2608.31	204.263
2607.63	164.114
2606.94	215.137
2606.26	229.686
2605.57	167.681
2604.89	233.258
2604.2	185.848
2603.51	193.106
2602.83	185.789
2602.14	178.475
2601.45	189.372
2600.77	182.06
2600.08	203.875
2599.39	174.722
2598.71	192.892
2598.02	221.972
2597.33	207.384
2596.65	225.54
2595.96	207.318
2595.27	174.556
2594.58	218.16
2593.9	210.855
2593.21	185.377
2592.52	199.885
2591.83	221.656
2591.14	185.289
2590.46	221.585
2589.77	174.335
2589.08	214.252
2588.39	185.172
2587.7	192.403
2587.01	166.965
2586.32	206.858
2585.64	228.596
2584.95	217.676
2584.26	217.642
2583.57	228.488
2582.88	199.442
2582.19	177.656
2581.5	224.754
2580.81	224.718
2580.12	206.563
2579.43	195.66
2578.74	199.252
2578.05	224.575
2577.36	220.918
2576.67	195.536
2575.98	228.089
2575.29	213.573
2574.6	202.681
2573.91	213.505
2573.22	231.562
2572.52	220.673
2571.83	227.872
2571.14	231.452
2570.45	213.336
2569.76	155.457
2569.07	195.194
2568.38	220.462
2567.68	252.949
2566.99	238.457
2566.3	223.97
2565.61	256.441
2564.92	173.341
2564.22	227.474
2563.53	202.167
2562.84	234.62
2562.14	194.884
2561.45	184.028
2560.76	230.901
2560.07	227.257
2559.37	183.941
2558.68	248.821
2557.99	212.726
2557.29	216.297
2556.6	270.329
2555.91	234.248
2555.21	208.988
2554.52	226.968
2553.82	198.115
2553.13	208.888
2552.44	270.071
2551.74	205.221
2551.05	262.785
2550.35	219.553
2549.66	230.314
2548.96	230.277
2548.27	226.643
2547.57	205.025
2546.88	230.167
2546.18	219.343
2545.49	215.713
2544.79	186.922
2544.1	237.209
2543.4	212.017
2542.7	233.54
2542.01	215.541
2541.31	211.915
2540.62	197.517
2539.92	233.392
2539.22	244.125
2538.53	233.317
2537.83	229.691
2537.13	247.597
2536.44	247.557
2535.74	251.105
2535.04	243.892
2534.35	222.336
2533.65	197.202
2532.95	215.096
2532.25	218.646
2531.56	225.778
2530.86	229.326
2530.16	250.785
2529.46	247.163
2528.76	214.89
2528.07	232.76
2527.37	214.822
2526.67	229.106
2525.97	229.07
2525.27	232.612
2524.57	246.887
2523.88	232.538
2523.18	228.924
2522.48	214.582
2521.78	271.76
2521.08	253.841
2520.38	228.778
2519.68	235.89
2518.98	278.734
2518.28	271.544
2517.58	225.06
2516.88	260.742
2516.18	271.414
2515.48	249.946
2514.78	246.336
2514.08	260.575
2513.38	256.965
2512.68	231.945
2511.98	231.908
2511.28	221.169
2510.58	217.567
2509.88	213.966
2509.17	242.457
2508.47	228.158
2507.77	238.815
2507.07	260.16
2506.37	249.428
2505.67	256.514
2504.97	231.538
2504.26	270.678
2503.56	238.586
2502.86	270.592
2502.16	281.228
2501.45	206.438
2500.75	227.758
2500.05	227.721
2499.35	273.933
2498.64	281.004
2497.94	263.176
2497.24	259.579
2496.53	259.537
2495.83	248.831
2495.13	220.358
2494.42	259.413
2493.72	262.924
2493.02	277.092
2492.31	262.84
2491.61	230.836
2490.9	280.51
2490.2	266.264
2489.5	227.176
2488.79	255.532
2488.09	269.685
2487.38	258.998
2486.68	294.43
2485.97	273.102
2485.27	265.966
2484.56	255.287
2483.86	283.607
2483.15	251.661
2482.45	237.445
2481.74	248.037
2481.04	240.911
2480.33	269.211
2479.62	283.335
2478.92	244.337
2478.21	244.298
2477.51	254.879
2476.8	279.614
2476.09	240.642
2475.39	275.986
2474.68	240.565
2473.97	279.435
2473.27	254.634
2472.56	279.345
2471.85	286.372
2471.14	254.512
2470.44	261.54
2469.73	286.234
2469.02	257.923
2468.31	264.947
2467.61	307.289
2466.9	247.204
2466.19	278.943
2465.48	282.429
2464.77	264.735
2464.07	243.517
2463.36	314.051
2462.65	303.416
2461.94	285.73
2461.23	243.361
2460.52	292.691
2459.81	282.067
2459.1	271.446
2458.4	271.402
2457.69	278.407
2456.98	278.363
2456.27	260.703
2455.56	246.571
2454.85	299.36
2454.14	242.971
2453.43	242.932
2452.72	260.494
2452.01	320.286
2451.3	267.449
2450.59	306.109
2449.88	316.614
2449.16	263.802
2448.45	309.479
2447.74	263.718
2447.03	284.77
2446.32	295.269
2445.61	242.504
2444.9	263.549
2444.19	281.073
2443.47	284.541
2442.76	270.446
2442.05	259.868
2441.34	326.538
2440.63	287.869
2439.91	294.843
2439.2	294.796
2438.49	259.659
2437.78	305.226
2437.06	308.685
2436.35	315.65
2435.64	298.066
2434.93	262.957
2434.21	245.387
2433.5	294.417
2432.79	280.352
2432.07	276.803
2431.36	276.759
2430.64	273.212
2429.93	280.172
2429.22	266.121
2428.5	297.587
2427.79	297.54
2427.07	276.492
2426.36	286.946
2425.65	321.888
2424.93	311.341
2424.22	265.822
2423.5	286.762
2422.79	321.681
2422.07	286.669
2421.36	283.128
2420.64	290.072
2419.92	286.531
2419.21	293.473
2418.49	300.412
2417.78	310.841
2417.06	296.823
2416.35	310.741
2415.63	268.8
2414.91	258.286
2414.2	279.183
2413.48	317.52
2412.76	303.514
2412.05	338.346
2411.33	282.491
2410.61	296.394
2409.9	292.859
2409.18	285.841
2408.46	285.795
2407.74	341.504
2407.03	296.155
2406.31	313.526
2405.59	348.306
2404.87	299.495
2404.16	292.483
2403.44	344.656
2402.72	268.023
2402	264.499
2401.28	288.815
2400.56	337.476
2399.85	264.372
2399.13	309.543
2398.41	302.538
2397.69	292.059
2396.97	309.394
2396.25	302.392
2395.53	295.393
2394.81	302.295
2394.09	330.039
2393.37	305.671
2392.65	329.933
2391.93	347.242
2391.21	302.051
2390.49	295.06
2389.77	329.72
2389.05	350.488
2388.33	333.083
2387.61	284.463
2386.89	298.291
2386.17	312.115
2385.45	346.738
2384.73	343.215
2384	311.964
2383.28	298.051
2382.56	315.328
2381.84	322.207
2381.12	297.906
2380.4	363.664
2379.67	315.125
2378.95	335.848
2378.23	304.638
2377.51	325.356
2376.79	308
2376.06	304.49
2375.34	311.36
2374.62	335.523
2373.9	363.137
2373.17	349.247
2372.45	314.617
2371.73	328.393
2371	345.621
2370.28	297.186
2369.56	335.144
2368.83	331.636
2368.11	317.766
2367.38	334.982
2366.66	348.74
2365.94	300.351
2365.21	376.241
2364.49	355.473
2363.76	324.36
2363.04	324.307
2362.31	307.008
2361.59	324.203
2360.86	351.738
2360.14	324.098
2359.41	361.966
2358.69	313.653
2357.96	320.495
2357.24	344.562
2356.51	320.391
2355.79	327.228
2355.06	303.068
2354.33	344.34
2353.61	333.956
2352.88	316.69
2352.15	395.799
2351.43	344.117
2350.7	375.027
2349.98	309.605
2349.25	333.632
2348.52	319.822
2347.79	312.894
2347.07	323.156
2346.34	357.477
2345.61	395.223
2344.88	329.872
2344.16	333.254
2343.43	343.506
2342.7	343.45
2341.97	367.432
2341.25	343.339
2340.52	329.552
2339.79	343.228
2339.06	343.172
2338.33	380.86
2337.6	325.908
2336.87	360.156
2336.14	346.38
2335.42	373.755
2334.69	387.408
2333.96	363.351
2333.23	377.001
2332.5	363.233
2331.77	380.305
2331.04	376.818
2330.31	325.381
2329.58	366.422
2328.85	308.156
2328.12	297.836
2327.39	349.13
2326.66	366.185
2325.93	369.548
2325.2	400.278
2324.47	383.11
2323.73	352.268
2323	413.762
2322.27	324.802
2321.54	345.26
2320.81	379.382
2320.08	372.486
2319.35	406.593
2318.61	389.446
2317.88	338.149
2317.15	375.66
2316.42	379.013
2315.69	382.366
2314.95	402.785
2314.22	368.591
2313.49	337.82
2312.76	358.236
2312.02	293.365
2311.29	378.584
2310.56	409.213
2309.82	364.823
2309.09	395.444
2308.36	323.803
2307.62	347.606
2306.89	408.881
2306.16	374.747
2305.42	371.28
2304.69	378.031
2303.95	388.185
2303.22	357.481
2302.48	401.675
2301.75	336.944
2301.02	391.336
2300.28	387.87
2299.55	387.807
2298.81	394.547
2298.08	401.284
2297.34	421.62
2296.6	373.957
2295.87	363.699
2295.13	414.618
2294.4	394.163
2293.66	407.688
2292.93	343.082
2292.19	431.33
2291.45	390.511
2290.72	349.705
2289.98	393.779
2289.24	369.956
2288.51	414.012
2287.77	407.159
2287.03	346.029
2286.3	396.851
2285.56	369.656
2284.82	403.504
2284.08	383.097
2283.35	379.645
2282.61	430.42
2281.87	399.853
2281.13	372.684
2280.4	389.56
2279.66	359.015
2278.92	430.07
2278.18	389.37
2277.44	409.619
2276.7	399.398
2275.97	433.175
2275.23	392.501
2274.49	372.139
2273.75	392.373
2273.01	399.073
2272.27	405.771
2271.53	409.086
2270.79	409.02
2270.05	408.953
2269.31	368.336
2268.57	432.471
2267.83	425.644
2267.09	368.156
2266.35	371.473
2265.61	438.942
2264.87	418.615
2264.13	455.676
2263.39	438.728
2262.65	371.171
2261.91	391.353
2261.17	374.423
2260.42	408.089
2259.68	377.673
2258.94	434.928
2258.2	451.712
2257.46	448.268
2256.72	444.825
2255.97	441.383
2255.23	441.312
2254.49	404.189
2253.75	427.697
2253	383.855
2252.26	451.124
2251.52	387.095
2250.78	417.322
2250.03	450.903
2249.29	420.55
2248.55	423.846
2247.8	400.233
2247.06	437.159
2246.32	386.654
2245.57	416.846
2244.83	447.028
2244.09	396.547
2243.34	433.442
2242.6	440.091
2241.85	440.019
2241.11	423.155
2240.36	460.022
2239.62	426.374
2238.88	409.521
2238.13	476.578
2237.39	446.3
2236.64	459.647
2235.89	459.572
2235.15	446.081
2234.4	425.888
2233.66	439.23
2232.91	449.215
2232.17	472.605
2231.42	445.718
2230.67	459.048
2229.93	502.525
2229.18	442.15
2228.44	472.219
2227.69	415.217
2226.94	495.501
2226.2	411.734
2225.45	458.523
2224.7	461.795
2223.95	428.262
2223.21	431.537
2222.46	438.156
2221.71	471.526
2220.96	438.013
2220.22	481.401
2219.47	494.692
2218.72	491.27
2217.97	471.141
2217.22	457.7
2216.48	467.647
2215.73	474.25
2214.98	457.476
2214.23	430.692
2213.48	494.046
2212.73	477.277
2211.98	477.199
2211.23	473.785
2210.48	480.379
2209.73	446.947
2208.98	463.548
2208.23	476.809
2207.48	426.725
2206.73	466.654
2205.98	456.579
2205.23	466.501
2204.48	476.42
2203.73	499.659
2202.98	492.917
2202.23	462.866
2201.48	482.767
2200.73	489.346
2199.98	479.281
2199.23	515.808
2198.48	455.833
2197.72	462.412
2196.97	405.792
2196.22	438.981
2195.47	475.485
2194.72	535.249
2193.97	468.682
2193.21	455.311
2192.46	471.851
2191.71	488.386
2190.96	465.053
2190.2	451.692
2189.45	501.429
2188.7	507.987
2187.94	514.543
2187.19	481.268
2186.44	471.234
2185.68	484.428
2184.93	500.936
2184.18	474.319
2183.42	490.823
2182.67	484.111
2181.91	454.194
2181.16	530.359
2180.41	473.931
2179.65	437.403
2178.9	503.593
2178.14	510.136
2177.39	450.436
2176.63	483.477
2175.88	470.154
2175.12	526.354
2174.37	516.338
2173.61	496.397
2172.86	519.477
2172.1	522.7
2171.34	499.461
2170.59	502.686
2169.83	482.764
2169.08	515.745
2168.32	479.3
2167.56	532.101
2166.81	525.405
2166.05	479.064
2165.29	469.076
2164.54	416.154
2163.78	498.642
2163.02	511.767
2162.27	505.081
2161.51	501.697
2160.75	504.915
2159.99	501.533
2159.23	517.945
2158.48	491.473
2157.72	491.392
2156.96	484.717
2156.2	504.418
2155.44	510.928
2154.69	514.14
2153.93	497.579
2153.17	546.918
2152.41	474.357
2151.65	533.564
2150.89	536.769
2150.13	510.341
2149.37	483.921
2148.61	493.716
2147.85	556.162
2147.09	513.296
2146.33	539.53
2145.57	516.417
2144.81	513.043
2144.05	552.417
2143.29	542.463
2142.53	499.642
2141.77	535.712
2141.01	476.475
2140.25	532.25
2139.49	551.873
2138.73	548.498
2137.97	535.272
2137.2	459.667
2136.44	571.207
2135.68	498.903
2134.92	590.709
2134.16	531.551
2133.4	531.463
2132.63	518.256
2131.87	528.009
2131.11	544.317
2130.35	537.671
2129.58	537.582
2128.82	534.216
2128.06	557.067
2127.29	579.909
2126.53	550.332
2125.77	543.691
2125	527.228
2124.24	533.689
2123.48	491.044
2122.71	572.791
2121.95	526.881
2121.19	546.426
2120.42	549.608
2119.66	500.453
2118.89	510.182
2118.13	588.574
2117.36	572.131
2116.6	562.23
2115.83	503.309
2115.07	584.919
2114.3	637.097
2113.54	532.46
2112.77	506.244
2112.01	568.206
2111.24	561.582
2110.48	538.639
2109.71	590.773
2108.94	558.041
2108.18	564.475
2107.41	606.792
2106.64	590.384
2105.88	567.457
2105.11	541.278
2104.34	544.449
2103.58	580.215
2102.81	596.415
2102.04	625.644
2101.28	628.799
2100.51	605.893
2099.74	530.883
2098.97	573.129
2098.21	556.755
2097.44	563.174
2096.67	550.062
2095.9	595.531
2095.13	553.134
2094.36	540.03
2093.6	569.215
2092.83	604.894
2092.06	572.279
2091.29	542.925
2090.52	581.841
2089.75	562.245
2088.98	597.896
2088.21	578.304
2087.44	571.712
2086.67	610.592
2085.9	568.276
2085.13	590.91
2084.36	620.028
2083.59	619.926
2082.82	600.353
2082.05	577.541
2081.28	642.327
2080.51	600.055
2079.74	577.255
2078.97	573.917
2078.2	583.548
2077.43	606.142
2076.65	534.742
2075.88	586.499
2075.11	664.158
2074.34	586.306
2073.57	638.028
2072.8	582.874
2072.02	608.679
2071.25	543.836
2070.48	618.187
2069.71	550.128
2068.93	634.16
2068.16	562.886
2067.39	591.903
2066.61	585.337
2065.84	620.808
2065.07	633.636
2064.29	610.905
2063.52	523.547
2062.75	607.472
2061.97	594.449
2061.2	604.041
2060.43	597.482
2059.65	603.841
2058.88	629.57
2058.1	593.957
2057.33	577.722
2056.55	613.123
2055.78	635.606
2055	629.049
2054.23	677.326
2053.45	606.267
2052.68	596.494
2051.9	573.829
2051.13	631.752
2050.35	673.543
2049.57	592.877
2048.8	608.887
2048.02	640.997
2047.25	589.362
2046.47	660.105
2045.69	650.337
2044.92	611.602
2044.14	669.433
2043.36	630.707
2042.59	608.081
2041.81	579.029
2041.03	640.042
2040.25	688.173
2039.48	623.754
2038.7	678.301
2037.92	665.332
2037.14	620.231
2036.37	681.177
2035.59	626.45
2034.81	619.922
2034.03	603.762
2033.25	568.341
2032.47	587.51
2031.69	629.141
2030.92	645.084
2030.14	667.439
2029.36	648.078
2028.58	615.893
2027.8	670.314
2027.02	650.962
2026.24	628.411
2025.46	666.775
2024.68	679.485
2023.9	663.349
2023.12	663.239
2022.34	637.501
2021.56	605.365
2020.78	589.252
2020	614.77
2019.21	669.092
2018.43	649.776
2017.65	681.671
2016.87	681.558
2016.09	700.64
2015.31	639.748
2014.53	729.192
2013.74	645.931
2012.96	738.541
2012.18	645.717
2011.4	639.217
2010.62	626.329
2009.83	690.125
2009.05	674.038
2008.27	705.866
2007.49	635.493
2006.7	664.124
2005.92	654.436
2005.14	727.74
2004.35	638.262
2003.57	657.301
2002.79	679.523
2002	695.359
2001.22	676.108
2000.43	637.732
1999.65	710.953
1998.87	672.584
1998.08	634.227
1997.3	691.48
1996.51	681.807
1995.73	707.177
1994.94	678.395
1994.16	741.971
1993.37	690.905
1992.59	684.423
1991.8	646.115
1991.02	728.748
1990.23	719.081
1989.44	696.693
1988.66	693.396
1987.87	664.659
1987.09	702.705
1986.3	712.125
1985.51	769.222
1984.73	680.108
1983.94	667.284
1983.15	730.714
1982.37	670.239
1981.58	733.646
1980.79	749.401
1980	695.303
1979.22	711.059
1978.43	666.507
1977.64	713.996
1976.85	701.186
1976.06	716.931
1975.28	713.639
1974.49	684.98
1973.7	741.938
1972.91	716.453
1972.12	690.977
1971.33	757.413
1970.54	773.129
1969.76	690.632
1968.97	709.522
1968.18	737.906
1967.39	750.449
1966.6	724.997
1965.81	756.53
1965.02	727.92
1964.23	749.949
1963.44	734.005
1962.65	768.679
1961.86	746.411
1961.07	660.907
1960.28	724.03
1959.48	774.489
1958.69	847.054
1957.9	799.511
1957.11	729.867
1956.32	764.495
1955.53	758.05
1954.74	757.924
1953.94	760.955
1953.15	704.003
1952.36	760.701
1951.57	788.978
1950.78	684.718
1949.98	744.546
1949.19	747.576
1948.4	709.606
1947.61	800.933
1946.81	747.202
1946.02	756.534
1945.23	718.588
1944.43	693.258
1943.64	740.402
1942.85	759.179
1942.05	784.249
1941.26	721.137
1940.46	761.948
1939.67	758.672
1938.88	723.923
1938.08	789.889
1937.29	789.757
1936.49	745.582
1935.7	707.713
1934.9	757.913
1934.11	798.662
1933.31	757.659
1932.52	766.963
1931.72	763.692
1930.93	766.706
1930.13	722.594
1929.33	772.732
1928.54	847.979
1927.74	753.633
1926.95	816.3
1926.15	794.19
1925.35	743.84
1924.56	778.234
1923.76	784.379
1922.96	762.289
1922.17	793.526
1921.37	809.073
1920.57	705.469
1919.77	755.509
1918.98	755.383
1918.18	799.13
1917.38	786.463
1916.58	814.527
1915.78	783.068
1914.99	770.41
1914.19	735.838
1913.39	820.243
1912.59	782.544
1911.79	804.321
1910.99	782.282
1910.19	804.052
1909.39	853.966
1908.59	797.527
1907.8	734.853
1907	834.778
1906.2	800.253
1905.4	731.359
1904.6	796.86
1903.8	759.233
1903	793.469
1902.2	833.94
1901.39	805.695
1900.59	811.805
1899.79	811.669
1898.99	767.835
1898.19	836.363
1897.39	820.621
1896.59	783.047
1895.79	885.849
1894.99	792.141
1894.18	835.662
1893.38	826.169
1892.58	872.787
1891.78	804.076
1890.98	819.522
1890.17	859.886
1889.37	806.787
1888.57	819.11
1887.76	800.289
1886.96	772.134
1886.16	812.472
1885.36	784.324
1884.55	837.095
1883.75	812.063
1882.94	855.479
1882.14	824.232
1881.34	873.851
1880.53	780.426
1879.73	861.122
1878.92	823.679
1878.12	842.187
1877.32	804.76
1876.51	845.011
1875.71	832.445
1874.9	829.2
1874.1	881.847
1873.29	813.399
1872.49	810.158
1871.68	828.643
1870.87	816.092
1870.07	840.775
1869.26	822.022
1868.46	887.014
1867.65	818.645
1866.84	824.708
1866.04	768.772
1865.23	855.425
1864.42	886.27
1863.62	867.531
1862.81	879.776
1862	857.948
1861.2	833.029
1860.39	832.889
1859.58	910.143
1858.77	823.324
1857.96	875.795
1857.16	884.931
1856.35	844.564
1855.54	853.702
1854.73	859.744
1853.92	884.336
1853.12	927.469
1852.31	853.128
1851.5	846.803
1850.69	846.661
1849.88	886.682
1849.07	901.978
1848.26	886.384
1847.45	947.993
1846.64	842.862
1845.83	907.545
1845.02	876.528
1844.21	864.038
1843.4	848.466
1842.59	879.171
1841.78	869.77
1840.97	875.791
1840.16	854.061
1839.35	816.925
1838.54	847.609
1837.72	859.793
1836.91	828.837
1836.1	887.23
1835.29	890.161
1834.48	880.772
1833.67	902.177
1832.85	902.026
1832.04	892.639
1831.23	827.861
1830.42	846.183
1829.6	916.801
1828.79	895.114
1827.98	919.567
1827.17	879.438
1826.35	888.513
1825.54	872.994
1824.73	863.627
1823.91	952.595
1823.1	854.118
1822.29	958.417
1821.47	893.758
1820.66	878.253
1819.84	881.175
1819.03	868.748
1818.21	929.987
1817.4	862.317
1816.58	859.104
1815.77	871.23
1814.95	950.83
1814.14	959.87
1813.32	950.509
1812.51	913.561
1811.69	898.082
1810.88	965.352
1810.06	974.381
1809.25	885.373
1808.43	928.106
1807.61	888.137
1806.8	891.049
1805.98	949.067
1805.16	945.846
1804.35	967.11
1803.53	917.987
1802.71	917.832
1801.89	975.797
1801.08	920.581
1800.26	914.31
1799.44	908.041
1798.62	907.887
1797.81	904.678
1796.99	913.693
1796.17	901.317
1795.35	946.987
1794.53	998.75
1793.71	910.022
1792.9	928.188
1792.08	921.925
1791.26	943.135
1790.44	909.407
1789.62	912.305
1788.8	964.012
1787.98	911.996
1787.16	847.8
1786.34	893.393
1785.52	905.437
1784.7	957.101
1783.88	892.94
1783.06	968.966
1782.24	990.128
1781.42	919.902
1780.6	974.566
1779.78	950.041
1778.95	980.325
1778.13	995.379
1777.31	919.125
1776.49	958.527
1775.67	970.535
1774.85	912.574
1774.02	955
1773.2	945.716
1772.38	991.161
1771.56	927.156
1770.74	951.314
1769.91	969.386
1769.09	981.376
1768.27	962.983
1767.44	990.155
1766.62	941.399
1765.8	962.494
1764.97	998.76
1764.15	913.604
1763.33	998.422
1762.5	967.911
1761.68	1016.29
1760.85	1010.05
1760.03	943.158
1759.21	997.577
1758.38	982.25
1757.56	1045.74
1756.73	1051.62
1755.91	993.871
1755.08	984.614
1754.26	1017.77
1753.43	984.28
1752.6	984.113
1751.78	1014.22
1750.95	1089.73
1750.13	1013.88
1749.3	1040.94
1748.47	1080.1
1747.65	1052.69
1746.82	1128.12
1745.99	1118.86
1745.17	1148.9
1744.34	1175.91
1743.51	1145.49
1742.69	1202.71
1741.86	1139.06
1741.03	1150.95
1740.2	1247.4
1739.38	1256.25
1738.55	1274.16
1737.72	1316.2
1736.89	1394.46
1736.06	1373.09
1735.23	1436.22
1734.4	1423.91
1733.58	1429.7
1732.75	1450.57
1731.92	1522.69
1731.09	1468.17
1730.26	1522.17
1729.43	1564.11
1728.6	1615.07
1727.77	1449.1
1726.94	1596.45
1726.11	1590.15
1725.28	1613.97
1724.45	1722.08
1723.62	1658.57
1722.79	1673.34
1721.96	1612.87
1721.13	1669.76
1720.3	1630.37
1719.46	1657.17
1718.63	1575.69
1717.8	1542.35
1716.97	1515.04
1716.14	1523.8
1715.31	1373.29
1714.47	1424.13
1713.64	1399.86
1712.81	1357.57
1711.98	1324.31
1711.14	1264.03
1710.31	1263.82
1709.48	1263.6
1708.65	1182.36
1707.81	1170.16
1706.98	1238.96
1706.15	1196.76
1705.31	1160.57
1704.48	1052.43
1703.64	1139.19
1702.81	1070.05
1701.98	1120.82
1701.14	1117.63
1700.31	1063.52
1699.47	1069.33
1698.64	1111.07
1697.8	1083.93
1696.97	1092.73
1696.13	1104.52
1695.3	1071.41
1694.46	1068.24
1693.63	1103.95
1692.79	1109.75
1691.95	1061.71
1691.12	1079.47
1690.28	1055.37
1689.45	1064.16
1688.61	1063.97
1687.77	1075.75
1686.94	1069.59
1686.1	1072.39
1685.26	1075.2
1684.42	1042.17
1683.59	1033.03
1682.75	1089.57
1681.91	1044.62
1681.07	1089.2
1680.24	1041.28
1679.4	1094.8
1678.56	1082.68
1677.72	1058.64
1676.88	1052.49
1676.04	1147.71
1675.21	1075.98
1674.37	1153.28
1673.53	1063.7
1672.69	1120.12
1671.85	1075.25
1671.01	1110.8
1670.17	1030.22
1669.33	1062.79
1668.49	1116.18
1667.65	1053.5
1666.81	1041.42
1665.97	1115.61
1665.13	1061.88
1664.29	1052.78
1663.45	1028.81
1662.61	1052.42
1661.77	1040.35
1660.92	1022.34
1660.08	1081.6
1659.24	1075.47
1658.4	1131.72
1657.56	1072.13
1656.72	1080.86
1655.87	1110.36
1655.03	1065.65
1654.19	1015.01
1653.35	1071.22
1652.5	1142.24
1651.66	1100.52
1650.82	1094.4
1649.98	1126.83
1649.13	1049.55
1648.29	1076.05
1647.45	1093.65
1646.6	1057.9
1645.76	1084.39
1644.91	1096.05
1644.07	1098.83
1643.23	1107.52
1642.38	1113.25
1641.54	1113.06
1640.69	1071.44
1639.85	1071.25
1639	1100.66
1638.16	1100.47
1637.31	1061.83
1636.47	1100.09
1635.62	1138.34
1634.78	1102.67
1633.93	1090.66
1633.08	1114.12
1632.24	1034.15
1631.39	1075.33
1630.55	1104.68
1629.7	1131.07
1628.85	1154.5
1628.01	1157.26
1627.16	1160.01
1626.31	1168.67
1625.46	1136.01
1624.62	1215.47
1623.77	1188.71
1622.92	1203.26
1622.07	1197.15
1621.23	1317.82
1620.38	1323.49
1619.53	1473.57
1618.68	1467.42
1617.83	1582.07
1616.98	1761.48
1616.13	1937.89
1615.29	2196.68
1614.44	2252.24
1613.59	2319.56
1612.74	2313.28
1611.89	2271.69
1611.04	2130.08
1610.19	2029.7
1609.34	1885.24
1608.49	1873.15
1607.64	1708.19
1606.79	1678.5
1605.94	1619.43
1605.09	1475.16
1604.24	1474.91
1603.38	1371.84
1602.53	1400.98
1601.68	1347.88
1600.83	1347.65
1599.98	1276.96
1599.13	1262.07
1598.27	1229.57
1597.42	1202.95
1596.57	1188.08
1595.72	1234.81
1594.87	1149.55
1594.01	1260.77
1593.16	1263.49
1592.31	1140.17
1591.45	1192.72
1590.6	1204.24
1589.75	1110.28
1588.89	1151.1
1588.04	1191.9
1587.19	1174.13
1586.33	1214.91
1585.48	1179.58
1584.62	1167.67
1583.77	1182.1
1582.92	1217
1582.06	1164.14
1581.21	1155.17
1580.35	1137.43
1579.5	1192.78
1578.64	1210.11
1577.78	1204.06
1576.93	1183.4
1576.07	1183.2
1575.22	1218.04
1574.36	1182.79
1573.51	1106.67
1572.65	1185.3
1571.79	1158.83
1570.94	1181.98
1570.08	1158.43
1569.22	1114.47
1568.37	1239.71
1567.51	1166.58
1566.65	1221.79
1565.79	1218.66
1564.94	1168.9
1564.08	1145.38
1563.22	1229.69
1562.36	1214.91
1561.5	1205.96
1560.65	1170.8
1559.79	1135.66
1558.93	1164.58
1558.07	1228.42
1557.21	1172.91
1556.35	1140.7
1555.49	1166.69
1554.63	1247.94
1553.77	1189.55
1552.91	1183.53
1552.05	1142.62
1551.19	1159.87
1550.33	1150.95
1549.47	1185.62
1548.61	1173.8
1547.75	1202.65
1546.89	1106.59
1546.03	1158.67
1545.17	1146.86
1544.31	1187.3
1543.45	1195.81
1542.58	1218.82
1541.72	1166.38
1540.86	1157.48
1540	1180.48
1539.14	1136.78
1538.28	1142.38
1537.41	1153.78
1536.55	1162.28
1535.69	1202.65
1534.82	1158.98
1533.96	1219.61
1533.1	1178.85
1532.24	1152.59
1531.37	1210.3
1530.51	1134.82
1529.64	1131.73
1528.78	1235.72
1527.92	1186.32
1527.05	1171.65
1526.19	1177.23
1525.32	1162.57
1524.46	1231.76
1523.59	1191.07
1522.73	1185.09
1521.86	1147.31
1521	1239.58
1520.13	1106.47
1519.27	1210.27
1518.4	1218.72
1517.54	1212.74
1516.67	1229.85
1515.8	1215.2
1514.94	1168.82
1514.07	1203.24
1513.21	1231.89
1512.34	1168.21
1511.47	1173.78
1510.6	1176.46
1509.74	1179.14
1508.87	1202
1508	1190.26
1507.14	1215.99
1506.27	1172.57
1505.4	1215.57
1504.53	1247.04
1503.66	1200.75
1502.8	1209.18
1501.93	1232
1501.06	1191.5
1500.19	1228.7
1499.32	1176.7
1498.45	1130.47
1497.58	1176.29
1496.71	1222.1
1495.84	1227.64
1494.97	1236.05
1494.1	1258.83
1493.23	1186.77
1492.36	1166.45
1491.49	1246.68
1490.62	1143.07
1489.75	1226.15
1488.88	1220.2
1488.01	1257.3
1487.14	1191.08
1486.27	1202.35
1485.4	1314.03
1484.52	1262.17
1483.65	1141.49
1482.78	1267.47
1481.91	1229.98
1481.04	1249.83
1480.17	1246.75
1479.29	1194.95
1478.42	1200.48
1477.55	1211.73
1476.67	1137.05
1475.8	1202.72
1474.93	1282.68
1474.06	1253.83
1473.18	1204.95
1472.31	1207.61
1471.43	1173.07
1470.56	1224.35
1469.69	1224.14
1468.81	1229.65
1467.94	1195.13
1467.06	1280.68
1466.19	1200.43
1465.31	1225.94
1464.44	1248.58
1463.56	1251.22
1462.69	1296.71
1461.81	1259.36
1460.94	1261.99
1460.06	1247.5
1459.19	1244.43
1458.31	1235.66
1457.43	1332.45
1456.56	1315.1
1455.68	1303.47
1454.8	1311.8
1453.93	1365.74
1453.05	1277.13
1452.17	1285.46
1451.3	1316.59
1450.42	1327.75
1449.54	1304.73
1448.66	1264.63
1447.78	1204.61
1446.91	1304.05
1446.03	1281.05
1445.15	1337.76
1444.27	1280.61
1443.39	1294.61
1442.51	1294.39
1441.64	1356.74
1440.76	1305.32
1439.88	1324.99
1439	1287.81
1438.12	1333.06
1437.24	1273.15
1436.36	1275.77
1435.48	1258.5
1434.6	1298.05
1433.72	1235.35
1432.84	1311.8
1431.96	1331.44
1431.08	1277.28
1430.2	1237.33
1429.31	1274
1428.43	1222.71
1427.55	1253.7
1426.67	1284.68
1425.79	1264.61
1424.91	1261.55
1424.02	1198.97
1423.14	1278.12
1422.26	1263.73
1421.38	1235.18
1420.49	1280.28
1419.61	1294.22
1418.73	1310.98
1417.85	1211.67
1416.96	1265.24
1416.08	1259.36
1415.2	1346.86
1414.31	1312.67
1413.43	1394.47
1412.54	1261.31
1411.66	1343.09
1410.78	1379.61
1409.89	1286.09
1409.01	1311.3
1408.12	1234.79
1407.24	1299.55
1406.35	1245.65
1405.47	1273.68
1404.58	1321.46
1403.7	1335.34
1402.81	1332.29
1401.92	1357.46
1401.04	1292.32
1400.15	1297.74
1399.27	1286.23
1398.38	1314.21
1397.49	1305.52
1396.61	1260.19
1395.72	1324.8
1394.83	1282.29
1393.94	1234.17
1393.06	1259.31
1392.17	1312.61
1391.28	1233.52
1390.39	1334.68
1389.51	1227.46
1388.62	1289.17
1387.73	1303.02
1386.84	1328.12
1385.95	1280.06
1385.06	1291.09
1384.17	1273.99
1383.29	1307.51
1382.4	1329.77
1381.51	1323.92
1380.62	1200.03
1379.73	1309.41
1378.84	1331.65
1377.95	1258.39
1377.06	1275.02
1376.17	1356.23
1375.28	1254.92
1374.39	1375.4
1373.5	1338.68
1372.6	1279.52
1371.71	1273.69
1370.82	1251.03
1369.93	1262.03
1369.04	1295.45
1368.15	1261.58
1367.26	1328.64
1366.36	1269.55
1365.47	1297.35
1364.58	1375.57
1363.69	1238.08
1362.79	1277.07
1361.9	1254.44
1361.01	1307.42
1360.11	1318.39
1359.22	1295.77
1358.33	1303.93
1357.43	1401.62
1356.54	1306.28
1355.65	1244.52
1354.75	1344.97
1353.86	1260.86
1352.96	1288.59
1352.07	1324.7
1351.17	1288.14
1350.28	1301.88
1349.39	1284.9
1348.49	1304.22
1347.59	1203.47
1346.7	1312.14
1345.8	1376.11
1344.91	1258.66
1344.01	1314.24
1343.12	1163.36
1342.22	1336.1
1341.32	1260.57
1340.43	1341.21
1339.53	1310.31
1338.63	1265.48
1337.74	1276.41
1336.84	1226.03
1335.94	1309.39
1335.04	1289.66
1334.15	1331.21
1333.25	1278.07
1332.35	1266.71
1331.45	1358.35
1330.55	1346.98
1329.66	1343.96
1328.76	1265.83
1327.86	1329.58
1326.96	1287.63
1326.06	1295.75
1325.16	1253.82
1324.26	1339.77
1323.36	1342.31
1322.46	1303.18
1321.56	1339.07
1320.66	1305.5
1319.76	1369.15
1318.86	1343.92
1317.96	1335.35
1317.06	1307.36
1316.16	1401.49
1315.26	1423.44
1314.36	1359.38
1313.46	1381.34
1312.55	1403.28
1311.65	1380.85
1310.75	1427.74
1309.85	1466.29
1308.95	1427.24
1308.04	1421.45
1307.14	1526.47
1306.24	1440.34
1305.34	1417.93
1304.43	1459.21
1303.53	1386.98
1302.63	1486.38
1301.72	1472.28
1300.82	1480.33
1299.92	1496.67
1299.01	1457.68
1298.11	1559.75
1297.21	1540.12
1296.3	1501.14
1295.4	1536.81
1294.49	1605.63
1293.59	1605.35
1292.68	1668.61
1291.78	1646.22
1290.87	1582.41
1289.97	1659.45
1289.06	1609.46
1288.16	1600.9
1287.25	1661.33
1286.34	1608.62
1285.44	1577.99
1284.53	1660.46
1283.62	1574.68
1282.72	1626.79
1281.81	1698.18
1280.9	1568.33
1280	1565.3
1279.09	1573.29
1278.18	1622.6
1277.27	1517.65
1276.37	1536.66
1275.46	1530.89
1274.55	1470.05
1273.64	1527.6
1272.73	1466.78
1271.82	1477.53
1270.92	1455.26
1270.01	1504.52
1269.1	1504.25
1268.19	1438
1267.28	1437.75
1266.37	1434.75
1265.46	1426.25
1264.55	1519.42
1263.64	1406.52
1262.73	1392.54
1261.82	1367.58
1260.91	1455.2
1260	1364.35
1259.09	1355.88
1258.18	1383.08
1257.27	1380.09
1256.35	1314.01
1255.44	1354.92
1254.53	1393.07
1253.62	1381.86
1252.71	1318.57
1251.79	1340.26
1250.88	1375.65
1249.97	1265.82
1249.06	1317.64
1248.14	1279.06
1247.23	1339.08
1246.32	1240.28
1245.41	1324.92
1244.49	1365.75
1243.58	1272.46
1242.66	1258.56
1241.75	1296.64
1240.84	1312.82
1239.92	1318.06
1239.01	1304.15
1238.09	1364.06
1237.18	1374.75
1236.26	1287.07
1235.35	1284.11
1234.43	1354.91
1233.52	1308.24
1232.6	1348.97
1231.69	1332.35
1230.77	1313
1229.86	1361.9
1228.94	1298.9
1228.02	1287.75
1227.11	1355.72
1226.19	1330.94
1225.27	1205.27
1224.36	1251.4
1223.44	1294.8
1222.52	1267.31
1221.6	1321.59
1220.69	1266.87
1219.77	1315.67
1218.85	1323.61
1217.93	1260.75
1217.01	1312.25
1216.1	1265.75
1215.18	1325.4
1214.26	1379.59
1213.34	1278.68
1212.42	1259.41
1211.5	1354.38
1210.58	1318.79
1209.66	1321.28
1208.74	1277.55
1207.82	1318.09
1206.9	1388.51
1205.98	1361.09
1205.06	1314.68
1204.14	1276.42
1203.22	1308.78
1202.3	1305.84
1201.38	1319.18
1200.46	1324.37
1199.54	1291.58
1198.61	1299.49
1197.69	1274.84
1196.77	1323.43
1195.85	1328.62
1194.93	1276.88
1194	1339
1193.08	1311.66
1192.16	1335.81
1191.24	1381.63
1190.31	1300.13
1189.39	1340.52
1188.47	1332.16
1187.54	1345.46
1186.62	1347.93
1185.7	1307.1
1184.77	1344.75
1183.85	1266.06
1182.92	1317.22
1182	1308.88
1181.07	1327.57
1180.15	1359.78
1179.23	1364.94
1178.3	1337.68
1177.37	1310.42
1176.45	1388.53
1175.52	1504.42
1174.6	1447.45
1173.67	1374.29
1172.75	1392.94
1171.82	1327.92
1170.89	1422.13
1169.97	1354.43
1169.04	1424.33
1168.11	1340.47
1167.19	1272.81
1166.26	1315.72
1165.33	1296.62
1164.4	1396.11
1163.48	1282.69
1162.55	1314.79
1161.62	1306.48
1160.69	1265.85
1159.76	1249.47
1158.83	1305.78
1157.91	1249.02
1156.98	1264.95
1156.05	1404.65
1155.12	1331.76
1154.19	1318.08
1153.26	1280.19
1152.33	1253.07
1151.4	1285.11
1150.47	1303.7
1149.54	1354.53
1148.61	1300.55
1147.68	1367.48
1146.75	1356.5
1145.82	1353.57
1144.89	1318.42
1143.96	1355.77
1143.02	1363.59
1142.09	1357.98
1141.16	1344.32
1140.23	1376.27
1139.3	1378.71
1138.36	1311.42
1137.43	1346.05
1136.5	1380.66
1135.57	1348.25
1134.63	1364.09
1133.7	1358.49
1132.77	1425.22
1131.83	1435.68
1130.9	1408.65
1129.97	1419.11
1129.03	1456.33
1128.1	1386.48
1127.17	1418.35
1126.23	1434.15
1125.3	1492.75
1124.36	1382.82
1123.43	1460.13
1122.49	1451.85
1121.56	1526.44
1120.62	1462.02
1119.69	1459.09
1118.75	1485.55
1117.81	1458.57
1116.88	1565.15
1115.94	1393.96
1115.01	1449.78
1114.07	1454.86
1113.13	1475.96
1112.2	1443.67
1111.26	1504.78
1110.32	1427.15
1109.38	1381.56
1108.45	1469.31
1107.51	1455.72
1106.57	1452.79
1105.63	1415.22
1104.69	1420.3
1103.76	1489.32
1102.82	1446.43
1101.88	1504.77
1100.94	1387.33
1100	1403.06
1099.06	1368.21
1098.12	1304.09
1097.18	1444.89
1096.24	1404.72
1095.3	1409.79
1094.36	1385.6
1093.42	1425.24
1092.48	1385.11
1091.54	1363.6
1090.6	1400.56
1089.66	1379.06
1088.72	1304.42
1087.78	1346.69
1086.84	1383.63
1085.9	1317
1084.95	1361.9
1084.01	1329.8
1083.07	1369.37
1082.13	1294.84
1081.19	1342.36
1080.24	1310.29
1079.3	1376.35
1078.36	1362.85
1077.41	1389.12
1076.47	1341.16
1075.53	1378.02
1074.58	1377.77
1073.64	1396.07
1072.7	1414.36
1071.75	1334.67
1070.81	1302.66
1069.86	1344.78
1068.92	1347.19
1067.98	1299.31
1067.03	1248.81
1066.09	1267.1
1065.14	1311.84
1064.19	1398.87
1063.25	1388.05
1062.3	1295.28
1061.36	1408.69
1060.41	1350.31
1059.46	1299.87
1058.52	1323.41
1057.57	1291.48
1056.63	1344.06
1055.68	1306.86
1054.73	1335.66
1053.78	1272.08
1052.84	1377.4
1051.89	1319.12
1050.94	1342.62
1049.99	1379.3
1049.05	1342.14
1048.1	1304.99
1047.15	1278.4
1046.2	1264.99
1045.25	1341.18
1044.3	1422.61
1043.35	1345.97
1042.4	1319.39
1041.45	1466.61
1040.5	1358.41
1039.55	1331.84
1038.6	1368.45
1037.65	1378.73
1036.7	1333.76
1035.75	1365.08
1034.8	1448.99
1033.85	1267.31
1032.9	1388.01
1031.95	1322.05
1031	1319.19
1030.05	1387.27
1029.1	1321.34
1028.14	1405.15
1027.19	1412.78
1026.24	1341.64
1025.29	1349.27
1024.33	1435.64
1023.38	1406.52
1022.43	1382.65
1021.48	1324.7
1020.52	1371.67
1019.57	1316.36
1018.62	1331.85
1017.66	1308.02
1016.71	1365.44
1015.75	1375.68
1014.8	1388.53
1013.85	1369.95
1012.89	1422.08
1011.94	1277.81
1010.98	1405.86
1010.03	1316.62
1009.07	1355.64
1008.12	1308.29
1007.16	1349.92
1006.2	1381.06
1005.25	1344.2
1004.29	1359.65
1003.34	1369.86
1002.38	1330.41
1001.42	1400.73
1000.47	1382.19
999.508	1353.2
998.551	1287.66
997.594	1318.77
996.636	1315.92
995.679	1388.78
994.721	1359.82
993.763	1307.39
992.805	1320.2
991.846	1333
990.888	1324.94
989.929	1311.66
988.97	1340.11
988.011	1246.02
987.052	1370.9
986.093	1289.87
985.133	1380.83
984.173	1351.93
983.213	1369.91
982.253	1325.4
981.293	1361.61
980.333	1418.63
979.372	1340.3
978.411	1420.73
977.45	1319.01
976.489	1316.17
975.528	1373.15
974.566	1336.5
973.605	1294.66
972.643	1276.23
971.681	1359.17
970.719	1384.9
969.756	1361.27
968.794	1389.6
967.831	1324.43
966.868	1347.56
965.905	1347.32
964.942	1383.41
963.979	1328.67
963.015	1414.05
962.052	1395.63
961.088	1304.6
960.124	1301.78
959.159	1345.62
958.195	1319.45
957.23	1425.48
956.266	1360.44
955.301	1344.65
954.336	1398.81
953.37	1349.35
952.405	1364.64
951.439	1299.67
950.473	1421.09
949.507	1363.9
948.541	1322.25
947.575	1381.52
946.608	1368.34
945.642	1324.13
944.675	1349.74
943.708	1302.97
942.741	1323.41
941.773	1408.45
940.806	1315.18
939.838	1428.61
938.87	1345.7
937.902	1358.37
936.934	1378.78
935.965	1406.93
934.997	1386.03
934.028	1403.84
933.059	1411.33
932.09	1325.95
931.121	1307.65
930.151	1377.04
929.182	1381.95
928.212	1392.01
927.242	1402.07
926.272	1298.74
925.301	1514.93
924.331	1354.95
923.36	1310.92
922.389	1375.06
921.418	1359.36
920.447	1333.37
919.475	1382.03
918.504	1379.21
917.532	1402.12
916.56	1381.28
915.588	1391.32
914.616	1324.22
913.643	1411.39
912.671	1346.87
911.698	1408.31
910.725	1395.2
909.752	1436.06
908.779	1415.25
907.805	1479.19
906.831	1371.09
905.858	1429.88
904.883	1370.59
903.909	1449.9
902.935	1408.58
901.96	1464.76
900.986	1418.33
900.011	1402.69
899.036	1469.1
898.06	1530.35
897.085	1399.37
896.109	1447.8
895.133	1457.79
894.157	1434.47
893.181	1490.55
892.205	1375.06
891.229	1487.45
890.252	1474.39
889.275	1494.59
888.298	1453.38
887.321	1435.21
886.343	1542.38
885.366	1470.49
884.388	1500.91
883.41	1480.19
882.432	1482.48
881.454	1469.43
880.475	1499.82
879.497	1527.65
878.518	1435.43
877.539	1447.94
876.56	1529.38
875.58	1501.02
874.601	1495.64
873.621	1487.72
872.641	1449.18
871.661	1515.24
870.681	1581.27
869.701	1496.84
868.72	1501.67
867.739	1567.67
866.758	1595.42
865.777	1625.71
864.796	1500.58
863.815	1602.19
862.833	1568.8
861.851	1698.37
860.869	1700.61
859.887	1710.48
858.905	1755.98
857.922	1727.67
856.939	1679.02
855.956	1709.24
854.973	1696.22
853.99	1815.41
853.007	1784.58
852.023	1697.84
851.039	1583.17
850.055	1669.27
849.071	1628.32
848.087	1567.07
847.102	1615.04
846.118	1609.66
845.133	1563.68
844.148	1477.1
843.163	1514.9
842.177	1560.29
841.192	1562.54
840.206	1519.15
839.22	1511.26
838.234	1505.92
837.248	1505.64
836.261	1540.85
835.274	1507.63
834.288	1568.16
833.301	1502.02
832.313	1587.85
831.326	1519.2
830.339	1506.26
829.351	1531.3
828.363	1518.37
827.375	1540.86
826.387	1535.52
825.398	1583.3
824.409	1605.77
823.421	1554.91
822.432	1572.32
821.443	1551.82
820.453	1503.53
819.464	1561.36
818.474	1492.87
817.484	1502.71
816.494	1537.78
815.504	1499.63
814.513	1509.46
813.523	1519.28
812.532	1531.62
811.541	1490.97
810.55	1548.72
809.559	1561.04
808.567	1515.37
807.575	1545.35
806.583	1529.95
805.591	1575.03
804.599	1554.58
803.607	1587.05
802.614	1508.68
801.621	1478.19
800.628	1508.13
799.635	1550.65
798.642	1489.96
797.649	1542.54
796.655	1544.77
795.661	1577.19
794.667	1581.93
793.673	1516.27
792.678	1488.34
791.684	1568.5
790.689	1603.4
789.694	1535.26
788.699	1474.69
787.704	1479.44
786.708	1476.66
785.713	1471.37
784.717	1521.31
783.721	1521.03
782.724	1478.1
781.728	1485.35
780.731	1507.66
779.735	1479.8
778.738	1461.97
777.741	1431.62
776.743	1566.72
775.746	1453.65
774.748	1561.14
773.75	1510.75
772.752	1475.4
771.754	1450.09
770.756	1444.81
769.757	1452.06
768.758	1469.32
767.759	1536.62
766.76	1531.34
765.761	1413.47
764.761	1445.73
763.762	1465.48
762.762	1570.22
761.762	1517.44
760.762	1454.67
759.761	1494.39
758.761	1446.65
757.76	1483.85
756.759	1473.59
755.758	1475.82
754.756	1577.92
753.755	1497.75
752.753	1494.98
751.751	1509.68
750.749	1486.95
749.747	1489.17
748.745	1416.57
747.742	1528.52
746.739	1508.3
745.736	1488.08
744.733	1470.36
743.73	1579.73
742.726	1544.56
741.723	1412.27
740.719	1578.86
739.715	1493.92
738.71	1513.56
737.706	1508.3
736.701	1455.77
735.697	1500.29
734.692	1504.99
733.686	1571.86
732.681	1494.49
731.675	1424.6
730.67	1548.63
729.664	1550.83
728.658	1543.09
727.651	1475.73
726.645	1599.66
725.638	1514.93
724.631	1502.23
723.624	1501.96
722.617	1506.65
721.61	1513.82
720.602	1570.61
719.595	1580.24
718.587	1500.58
717.578	1579.66
716.57	1522.35
715.562	1517.11
714.553	1583.75
713.544	1543.81
712.535	1518.75
711.526	1525.91
710.516	1607.36
709.507	1525.35
708.497	1589.44
707.487	1643.6
706.477	1598.75
705.467	1625.68
704.456	1627.85
703.445	1592.93
702.434	1624.78
701.423	1622.01
700.412	1569.8
699.401	1616.47
698.389	1645.83
697.377	1551.64
696.365	1618.05
695.353	1600.47
694.34	1531.03
693.328	1555.44
692.315	1532.94
691.302	1503.04
690.289	1576.79
689.276	1569.1
688.262	1620.61
687.249	1484.67
686.235	1521.39
685.221	1491.52
684.206	1478.92
683.192	1557.51
682.177	1581.87
681.162	1601.28
680.147	1586.21
679.132	1516.97
678.117	1541.31
677.101	1587.8
676.086	1621.96
675.07	1587.22
674.054	1552.48
673.037	1495.62
672.021	1515.02
671.004	1576.21
669.987	1679.18
668.97	1568.26
667.953	1575.34
666.936	1555.4
665.918	1577.22
664.9	1594.12
663.882	1549.63
662.864	1571.44
661.846	1517.14
660.827	1597.86
659.808	1580.39
658.789	1651.25
657.77	1587.16
656.751	1545.18
655.731	1630.72
654.712	1507.83
653.692	1588.45
652.672	1529.33
651.652	1582.96
650.631	1621.87
649.611	1650.96
648.59	1491.47
647.569	1574.45
646.548	1569.26
645.526	1534.71
644.505	1517.29
643.483	1565.95
642.461	1595.02
641.439	1577.6
640.417	1599.32
639.394	1547.68
638.371	1645.18
637.348	1666.87
636.325	1605.47
635.302	1671.14
634.279	1805.18
633.255	1941.62
632.231	1970.56
631.207	1857.89
630.183	1767.24
629.159	1747.39
628.134	1656.78
627.109	1663.8
626.084	1624.46
625.059	1611.97
624.034	1645.81
623.008	1613.81
621.983	1615.95
620.957	1581.54
619.931	1642.16
618.904	1580.95
617.878	1626.94
616.851	1619.33
615.824	1679.9
614.797	1582.22
613.77	1584.36
612.743	1630.3
611.715	1593.51
610.687	1685.64
609.659	1612.38
608.631	1655.84
607.603	1636.09
606.574	1621.2
605.546	1582.02
604.517	1586.59
603.487	1676.18
602.458	1692.87
601.429	1588.14
600.399	1624.26
599.369	1572.99
598.339	1592.11
597.309	1599.1
596.278	1547.85
595.248	1693.11
594.217	1632.16
593.186	1568.82
592.155	1597.62
591.123	1539.15
590.091	1609.14
589.06	1589.46
588.028	1581.9
586.996	1630.05
585.963	1581.32
584.931	1689.98
583.898	1515.37
582.865	1653.05
581.832	1584.98
580.798	1620.98
579.765	1700.51
578.731	1683.26
577.697	1736.15
576.663	1629.45
575.629	1638.82
574.594	1667.51
573.56	1684.12
572.525	1662.07
571.49	1543.41
570.455	1598.66
569.419	1603.19
568.384	1641.52
567.348	1614.67
566.312	1604.72
565.276	1582.71
564.239	1616.18
563.203	1599
562.166	1603.53
561.129	1624.93
560.092	1602.93
559.054	1655.65
558.017	1628.84
556.979	1727.31
555.941	1618.6
554.903	1639.98
553.865	1680.61
552.826	1668.26
551.787	1629.44
550.749	1576.19
549.709	1614.4
548.67	1614.1
547.631	1618.61
546.591	1611.09
545.551	1569.92
544.511	1603.28
543.471	1566.94
542.43	1626.72
541.39	1619.21
540.349	1616.51
539.308	1623.41
538.267	1579.89
537.225	1594
536.184	1653.71
535.142	1624.6
534.1	1691.48
533.058	1583.22
532.015	1731.63
530.973	1568.24
529.93	1587.13
528.887	1596.43
527.844	1576.96
526.801	1545.51
525.757	1578.77
524.713	1616.8
523.669	1604.52
522.625	1659.29
521.581	1618.29
520.537	1632.35
519.492	1722.98
518.447	1634.13
517.402	1619.48
516.357	1602.43
515.311	1661.92
514.265	1628.14
513.22	1623.05
512.174	1620.36
511.127	1636.79
510.081	1536.14
509.034	1554.97
507.987	1502.14
506.94	1540.06
505.893	1544.55
504.846	1508.46
503.798	1436.59
502.75	1562.77
501.702	1574.41
500.654	1593.2
499.606	1631.05
