3200.54	46.3077
3199.95	58.9371
3199.35	58.9282
3198.76	71.5448
3198.16	42.0788
3197.57	50.487
3196.98	50.4793
3196.38	54.6777
3195.79	33.6427
3195.19	63.0705
3194.6	54.6529
3194	63.0515
3193.41	71.4475
3192.81	71.4367
3192.22	46.2168
3191.62	46.2098
3191.03	50.4031
3190.43	58.7947
3189.84	20.9949
3189.24	62.9752
3188.65	62.9657
3188.05	62.9562
3187.45	50.3573
3186.86	79.7204
3186.26	54.5373
3185.67	54.529
3185.07	67.1025
3184.47	50.3192
3183.88	25.1558
3183.28	62.88
3182.69	46.105
3182.09	71.2425
3181.49	50.2812
3180.9	29.3263
3180.3	37.6995
3179.7	46.0702
3179.1	96.3139
3178.51	33.4954
3177.91	50.2355
3177.31	79.5276
3176.72	62.7754
3176.12	79.5035
3175.52	46.0214
3174.92	71.1131
3174.33	50.1899
3173.73	54.3642
3173.13	45.9935
3172.53	79.4313
3171.93	37.6196
3171.34	58.5106
3170.74	37.6082
3170.14	66.849
3169.54	58.484
3168.94	66.8287
3168.34	58.4663
3167.74	58.4574
3167.15	70.9732
3166.55	87.6595
3165.95	70.9517
3165.35	45.903
3164.75	79.275
3164.15	50.0608
3163.55	87.5931
3162.95	83.4094
3162.35	37.5285
3161.75	54.1997
3161.15	58.36
3160.55	41.6794
3159.95	95.8481
3159.35	54.1668
3158.75	91.653
3158.15	45.8196
3157.55	66.6365
3156.95	41.6415
3156.35	62.4528
3155.75	62.4433
3155.15	58.2716
3154.55	83.2325
3153.95	83.2199
3153.35	83.2073
3152.75	70.7155
3152.15	66.5456
3151.54	54.0601
3150.94	45.7362
3150.34	45.7293
3149.74	74.8184
3149.14	62.3392
3148.54	49.8638
3147.94	62.3203
3147.33	66.4649
3146.73	66.4548
3146.13	58.1391
3145.53	83.0433
3144.93	66.4246
3144.32	62.2636
3143.72	37.3525
3143.12	78.8432
3142.52	70.5332
3141.91	62.2258
3141.31	74.6596
3140.71	33.177
3140.1	91.2229
3139.5	66.3338
3138.9	82.9047
3138.29	70.4583
3137.69	74.5916
3137.09	91.1536
3136.48	70.4262
3135.88	82.8418
3135.28	103.536
3134.67	74.535
3134.07	99.3648
3133.47	74.5123
3132.86	91.0568
3132.26	66.213
3131.65	82.7537
3131.05	78.6041
3130.45	78.5921
3129.84	78.5802
3129.24	95.109
3128.63	86.8254
3128.03	78.5444
3127.42	66.1326
3126.82	82.6532
3126.21	78.5086
3125.61	74.3652
3125	99.1386
3124.4	103.254
3123.79	57.8133
3123.19	90.8356
3122.58	70.1805
3121.97	86.6803
3121.37	86.6671
3120.76	74.2748
3120.16	90.7665
3119.55	37.1261
3118.94	45.3695
3118.34	82.4774
3117.73	61.8486
3117.13	65.9618
3116.52	94.8057
3115.91	61.8204
3115.31	74.1732
3114.7	78.282
3114.09	98.8675
3113.48	98.8525
3112.88	107.074
3112.27	86.4696
3111.66	74.1055
3111.06	111.141
3110.45	98.7773
3109.84	98.7623
3109.23	86.4038
3108.63	98.7322
3108.02	94.6039
3107.41	65.8014
3106.8	78.1273
3106.19	86.3381
3105.59	94.5463
3104.98	86.3118
3104.37	115.065
3103.76	82.1767
3103.15	78.0559
3102.54	94.4744
3101.93	102.674
3101.33	53.3823
3100.72	110.854
3100.11	102.627
3099.5	102.611
3098.89	86.1804
3098.28	73.8577
3097.67	102.564
3097.06	98.4469
3096.45	110.736
3095.84	114.82
3095.23	98.4019
3094.62	98.3869
3094.01	86.0754
3093.4	102.455
3092.79	81.9516
3092.18	94.23
3091.57	90.1193
3090.96	77.8184
3090.35	135.138
3089.74	114.645
3089.13	139.19
3088.52	126.89
3087.91	90.0369
3087.3	151.403
3086.69	130.923
3086.08	151.356
3085.46	134.973
3084.85	167.668
3084.24	134.932
3083.63	143.088
3083.02	163.504
3082.41	118.522
3081.79	159.368
3081.18	179.772
3080.57	183.83
3079.96	159.295
3079.35	147.019
3078.73	200.078
3078.12	183.717
3077.51	175.525
3076.9	155.092
3076.28	146.907
3075.67	191.766
3075.06	159.1
3074.45	171.313
3073.83	150.895
3073.22	126.406
3072.61	150.849
3071.99	187.514
3071.38	150.803
3070.77	167.081
3070.15	179.279
3069.54	142.586
3068.93	142.565
3068.31	114.034
3067.7	138.449
3067.08	134.356
3066.47	109.911
3065.86	138.386
3065.24	130.225
3064.63	105.792
3064.01	130.186
3063.4	113.895
3062.78	142.347
3062.17	117.927
3061.55	121.974
3060.94	97.5646
3060.32	158.518
3059.71	125.982
3059.09	93.4565
3058.48	117.818
3057.86	129.987
3057.25	129.967
3056.63	134.008
3056.02	125.867
3055.4	121.788
3054.78	117.71
3054.17	154.218
3053.55	121.732
3052.94	125.771
3052.32	97.356
3051.7	125.732
3051.09	109.492
3050.47	101.366
3049.85	109.459
3049.24	129.709
3048.62	145.9
3048	101.304
3047.39	109.392
3046.77	109.375
3046.15	121.509
3045.53	101.242
3044.92	85.0303
3044.3	141.695
3043.68	101.196
3043.06	97.1329
3042.45	117.351
3041.83	80.9193
3041.21	129.451
3040.59	117.297
3039.97	133.456
3039.35	88.9568
3038.74	129.372
3038.12	141.479
3037.5	96.9992
3036.88	121.23
3036.26	121.212
3035.64	141.392
3035.02	105.018
3034.41	109.041
3033.79	84.7963
3033.17	113.044
3032.55	113.027
3031.93	113.01
3031.31	108.957
3030.69	145.254
3030.07	141.197
3029.45	145.209
3028.83	129.055
3028.21	125.003
3027.59	104.825
3026.97	145.12
3026.35	141.068
3025.73	149.106
3025.11	128.937
3024.49	100.716
3023.87	108.757
3023.25	116.795
3022.63	100.67
3022	132.864
3021.38	132.844
3020.76	165.023
3020.14	136.827
3019.52	132.783
3018.9	112.647
3018.28	124.697
3017.66	112.612
3017.03	168.892
3016.41	116.598
3015.79	164.821
3015.17	140.679
3014.55	132.62
3013.92	124.563
3013.3	152.667
3012.68	120.508
3012.06	128.522
3011.43	148.581
3010.81	136.513
3010.19	116.42
3009.57	140.485
3008.94	148.49
3008.32	148.467
3007.7	140.42
3007.07	116.33
3006.45	144.388
3005.83	124.315
3005.2	144.344
3004.58	172.384
3003.96	176.366
3003.33	168.323
3002.71	172.305
3002.08	124.201
3001.46	168.246
3000.84	156.204
3000.21	196.227
2999.59	156.156
2998.96	128.109
2998.34	140.097
2997.71	144.078
2997.09	132.051
2996.46	204.048
2995.84	172.014
2995.21	179.987
2994.59	159.964
2993.96	167.936
2993.34	147.921
2992.71	167.885
2992.09	171.855
2991.46	139.861
2990.84	195.775
2990.21	131.828
2989.58	175.744
2988.96	147.762
2988.33	171.697
2987.71	155.701
2987.08	191.603
2986.45	171.618
2985.83	163.61
2985.2	135.656
2984.57	187.496
2983.95	187.467
2983.32	187.438
2982.69	175.447
2982.07	179.407
2981.44	155.462
2980.81	143.481
2980.18	179.324
2979.56	163.359
2978.93	195.204
2978.3	203.14
2977.67	159.301
2977.05	191.132
2976.42	191.103
2975.79	175.15
2975.16	206.964
2974.53	175.097
2973.91	175.07
2973.28	210.847
2972.65	182.971
2972.02	222.713
2971.39	178.938
2970.76	198.79
2970.13	202.734
2969.5	230.525
2968.88	206.646
2968.25	242.374
2967.62	210.555
2966.99	218.467
2966.36	190.633
2965.73	210.458
2965.1	226.307
2964.47	194.514
2963.84	226.237
2963.21	261.918
2962.58	218.232
2961.95	234.067
2961.32	194.365
2960.69	245.893
2960.06	210.166
2959.43	182.38
2958.8	214.066
2958.17	202.142
2957.53	261.555
2956.9	221.892
2956.27	209.972
2955.64	213.901
2955.01	213.868
2954.38	217.795
2953.75	194.006
2953.12	217.728
2952.48	205.82
2951.85	205.788
2951.22	257.196
2950.59	209.681
2949.96	221.516
2949.33	209.617
2948.69	138.405
2948.06	193.737
2947.43	189.754
2946.8	185.772
2946.16	169.935
2945.53	209.423
2944.9	201.489
2944.26	209.358
2943.63	181.679
2943	213.242
2942.37	173.726
2941.73	193.438
2941.1	173.673
2940.47	201.271
2939.83	193.349
2939.2	173.592
2938.56	197.234
2937.93	209.035
2937.3	185.342
2936.66	197.142
2936.03	189.227
2935.39	201.023
2934.76	181.287
2934.13	193.08
2933.49	149.713
2932.86	173.325
2932.22	185.114
2931.59	189.023
2930.95	192.931
2930.32	192.901
2929.68	181.063
2929.05	157.422
2928.41	177.072
2927.78	180.979
2927.14	177.018
2926.5	196.656
2925.87	196.626
2925.23	196.595
2924.6	204.427
2923.96	227.98
2923.32	168.994
2922.69	200.403
2922.05	184.657
2921.42	216.054
2920.78	196.383
2920.14	212.061
2919.51	188.469
2918.87	211.995
2918.23	196.261
2917.6	235.477
2916.96	223.669
2916.32	227.558
2915.68	196.14
2915.05	188.265
2914.41	184.315
2913.77	164.681
2913.13	192.098
2912.5	195.989
2911.86	160.686
2911.22	199.847
2910.58	199.816
2909.94	246.793
2909.31	168.42
2908.67	199.723
2908.03	203.608
2907.39	242.725
2906.75	187.887
2906.11	230.909
2905.47	226.96
2904.83	215.188
2904.2	215.154
2903.56	207.299
2902.92	234.641
2902.28	230.695
2901.64	215.021
2901	230.623
2900.36	214.955
2899.72	218.829
2899.08	203.167
2898.44	187.51
2897.8	218.728
2897.16	249.936
2896.52	218.66
2895.88	249.858
2895.24	226.399
2894.6	218.558
2893.96	179.502
2893.32	222.392
2892.67	226.259
2892.03	210.622
2891.39	226.189
2890.75	233.952
2890.11	230.017
2889.47	218.288
2888.83	194.87
2888.19	245.498
2887.54	210.394
2886.9	237.63
2886.26	222.014
2885.62	237.557
2884.98	214.157
2884.33	214.124
2883.69	245.231
2883.05	214.058
2882.41	225.699
2881.77	202.319
2881.12	237.299
2880.48	194.477
2879.84	221.67
2879.19	237.189
2878.55	213.826
2877.91	217.68
2877.26	194.327
2876.62	240.928
2875.98	205.922
2875.33	229.199
2874.69	229.163
2874.05	209.71
2873.4	267.921
2872.76	209.645
2872.11	252.311
2871.47	213.461
2870.83	240.592
2870.18	213.395
2869.54	217.241
2868.89	244.358
2868.25	213.296
2867.6	236.528
2866.96	228.737
2866.31	244.207
2865.67	220.915
2865.02	197.63
2864.38	247.968
2863.73	197.569
2863.09	232.397
2862.44	224.616
2861.8	255.558
2861.15	212.932
2860.5	216.77
2859.86	263.179
2859.21	236.051
2858.57	274.705
2857.92	243.714
2857.27	228.205
2856.63	201.099
2855.98	251.334
2855.33	255.161
2854.69	258.987
2854.04	255.082
2853.39	212.535
2852.75	224.093
2852.1	224.059
2851.45	216.299
2850.81	281.917
2850.16	204.648
2849.51	193.034
2848.86	239.325
2848.21	274.023
2847.57	277.839
2846.92	258.505
2846.27	304.757
2845.62	208.282
2844.97	254.528
2844.33	242.921
2843.68	250.593
2843.03	238.99
2842.38	227.391
2841.73	204.235
2841.08	231.173
2840.43	269.66
2839.78	238.805
2839.14	227.214
2838.49	207.926
2837.84	273.342
2837.19	250.204
2836.54	292.501
2835.89	261.67
2835.24	230.85
2834.59	253.895
2833.94	261.548
2833.29	230.742
2832.64	246.087
2831.99	296.027
2831.34	249.854
2830.69	184.479
2830.04	234.405
2829.39	234.369
2828.74	242.015
2828.08	276.546
2827.43	330.267
2826.78	238.063
2826.13	257.221
2825.48	261.02
2824.83	264.817
2824.18	280.125
2823.53	272.408
2822.87	272.366
2822.22	241.639
2821.57	291.456
2820.92	268.404
2820.27	264.529
2819.61	252.988
2818.96	279.776
2818.31	252.909
2817.66	298.846
2817	287.307
2816.35	256.621
2815.7	317.854
2815.05	264.199
2814.39	306.27
2813.74	271.772
2813.09	317.656
2812.43	264.034
2811.78	290.775
2811.13	286.905
2810.47	260.086
2809.82	336.53
2809.16	256.182
2808.51	263.788
2807.86	252.279
2807.2	294.28
2806.55	336.267
2805.89	282.726
2805.24	263.582
2804.58	286.458
2803.93	278.775
2803.28	294.005
2802.62	271.053
2801.97	332.084
2801.31	332.032
2800.66	274.742
2800	270.884
2799.34	339.506
2798.69	316.568
2798.03	308.892
2797.38	285.966
2796.72	274.485
2796.07	316.371
2795.41	320.133
2794.75	270.546
2794.1	300.983
2793.44	300.936
2792.79	289.463
2792.13	300.842
2791.47	262.72
2790.82	296.941
2790.16	277.863
2789.5	293.043
2788.84	296.802
2788.19	289.147
2787.53	285.298
2786.87	304.27
2786.22	289.011
2785.56	323.186
2784.9	345.945
2784.24	357.294
2783.59	307.833
2782.93	300.185
2782.27	277.343
2781.61	319.085
2780.95	330.429
2780.29	345.567
2779.64	341.716
2778.98	296.108
2778.32	288.47
2777.66	314.99
2777	322.53
2776.34	311.098
2775.68	288.29
2775.02	318.586
2774.36	326.121
2773.71	356.402
2773.05	295.691
2772.39	344.919
2771.73	337.286
2771.07	367.546
2770.41	322.026
2769.75	321.976
2769.09	344.65
2768.43	318.089
2767.77	310.466
2767.11	302.847
2766.45	352.004
2765.79	329.243
2765.12	302.705
2764.46	329.14
2763.8	348.001
2763.14	310.127
2762.48	302.515
2761.82	340.276
2761.16	355.344
2760.5	309.933
2759.83	328.78
2759.17	324.95
2758.51	340.01
2757.85	332.402
2757.19	407.885
2756.53	309.642
2755.86	286.94
2755.2	351.069
2754.54	377.435
2753.88	366.054
2753.21	350.904
2752.55	331.986
2751.89	313.075
2751.23	343.197
2750.56	346.914
2749.9	305.387
2749.24	320.418
2748.57	316.598
2747.91	335.391
2747.25	350.41
2746.58	361.657
2745.92	365.367
2745.25	327.649
2744.59	327.597
2743.93	327.546
2743.26	372.667
2742.6	346.262
2741.93	368.787
2741.27	349.916
2740.61	368.671
2739.94	376.136
2739.28	376.077
2738.61	391.059
2737.95	357.161
2737.28	372.141
2736.62	394.633
2735.95	308.142
2735.29	379.481
2734.62	353.125
2733.95	401.898
2733.29	349.258
2732.62	356.713
2731.96	367.92
2731.29	352.848
2730.62	390.324
2729.96	333.975
2729.29	378.945
2728.63	356.378
2727.96	326.316
2727.29	363.766
2726.63	427.452
2725.96	397.393
2725.29	356.098
2724.62	359.79
2723.96	393.459
2723.29	355.931
2722.62	352.129
2721.96	359.564
2721.29	363.253
2720.62	385.662
2719.95	378.114
2719.28	404.256
2718.62	344.312
2717.95	374.194
2717.28	377.876
2716.61	370.335
2715.94	362.797
2715.27	407.615
2714.61	325.293
2713.94	373.841
2713.27	422.374
2712.6	414.833
2711.93	384.875
2711.26	354.926
2710.59	399.696
2709.92	429.512
2709.25	354.759
2708.58	392.04
2707.91	388.246
2707.24	414.312
2706.57	362
2705.9	376.868
2705.23	384.271
2704.56	384.21
2703.89	406.528
2703.22	380.361
2702.55	406.4
2701.88	417.519
2701.21	395.09
2700.54	395.028
2699.87	450.857
2699.2	391.178
2698.53	398.567
2697.86	420.85
2697.19	405.889
2696.51	428.164
2695.84	416.929
2695.17	428.029
2694.5	409.355
2693.83	431.616
2693.15	420.387
2692.48	357.087
2691.81	416.536
2691.14	435.062
2690.47	442.43
2689.79	408.904
2689.12	412.557
2688.45	393.911
2687.77	412.427
2687.1	397.502
2686.43	397.44
2685.76	467.939
2685.08	445.586
2684.41	426.953
2683.74	493.703
2683.06	404.55
2682.39	452.727
2681.71	448.946
2681.04	426.617
2680.37	452.514
2679.69	419.065
2679.02	426.415
2678.34	396.689
2677.67	455.935
2676.99	418.802
2676.32	455.792
2675.65	440.9
2674.97	422.308
2674.3	433.353
2673.62	399.955
2672.95	473.946
2672.27	422.042
2671.59	421.975
2670.92	392.301
2670.24	392.24
2669.57	492.072
2668.89	410.612
2668.22	421.643
2667.54	484.443
2666.86	414.115
2666.19	436.231
2665.51	476.822
2664.83	436.094
2664.16	465.586
2663.48	439.651
2662.8	424.805
2662.13	439.512
2661.45	480.063
2660.77	446.758
2660.1	454.071
2659.42	465.072
2658.74	498.213
2658.06	405.887
2657.39	420.58
2656.71	501.666
2656.03	494.21
2655.35	457.257
2654.68	475.62
2654	434.994
2653.32	431.24
2652.64	479.08
2651.96	460.581
2651.28	449.456
2650.6	489.903
2649.93	486.143
2649.25	441.879
2648.57	463.899
2647.89	456.464
2647.21	449.03
2646.53	540.959
2645.85	496.721
2645.17	459.854
2644.49	503.921
2643.81	492.808
2643.13	430.22
2642.45	485.299
2641.77	474.195
2641.09	503.523
2640.41	518.142
2639.73	492.341
2639.05	455.527
2638.37	510.551
2637.69	525.16
2637.01	451.64
2636.33	513.98
2635.65	528.582
2634.96	532.168
2634.28	506.397
2633.6	498.979
2632.92	542.921
2632.24	524.496
2631.56	473.072
2630.88	538.997
2630.19	494.919
2629.51	516.834
2628.83	498.427
2628.15	502.013
2627.46	523.916
2626.78	457.896
2626.1	446.836
2625.42	534.653
2624.73	494.293
2624.05	501.537
2623.37	501.457
2622.69	523.336
2622	493.98
2621.32	515.854
2620.64	490.166
2619.95	552.264
2619.27	566.804
2618.58	515.527
2617.9	486.2
2617.22	537.294
2616.53	518.937
2615.85	522.509
2615.16	478.586
2614.48	536.954
2613.79	522.26
2613.11	565.997
2612.43	503.84
2611.74	536.614
2611.06	529.23
2610.37	481.705
2609.69	514.467
2609	543.571
2608.31	572.665
2607.63	506.929
2606.94	536.02
2606.26	506.768
2605.57	568.657
2604.89	510.252
2604.2	601.273
2603.51	557.456
2602.83	535.51
2602.14	564.564
2601.45	560.833
2600.77	535.256
2600.08	531.53
2599.39	520.526
2598.71	538.641
2598.02	578.583
2597.33	531.193
2596.65	534.747
2595.96	571.034
2595.27	552.76
2594.58	567.217
2593.9	512.595
2593.21	563.402
2592.52	545.141
2591.83	559.59
2591.14	563.134
2590.46	541.249
2589.77	548.427
2589.08	555.603
2588.39	602.716
2587.7	591.729
2587.01	577.117
2586.32	540.734
2585.64	562.42
2584.95	522.423
2584.26	580.378
2583.57	598.42
2582.88	547.558
2582.19	572.85
2581.5	619.885
2580.81	608.913
2580.12	532.715
2579.43	623.213
2578.74	557.905
2578.05	623.016
2577.36	612.052
2576.67	611.955
2575.98	539.448
2575.29	546.602
2574.6	589.947
2573.91	557.285
2573.22	553.578
2572.52	578.814
2571.83	622.126
2571.14	531.616
2570.45	632.776
2569.76	607.368
2569.07	603.657
2568.38	592.719
2567.68	574.557
2566.99	549.174
2566.3	581.599
2565.61	614.013
2564.92	574.191
2564.22	563.268
2563.53	592.06
2562.84	606.404
2562.14	620.743
2561.45	617.036
2560.76	588.075
2560.07	595.196
2559.37	609.528
2558.68	587.795
2557.99	616.546
2557.29	591.213
2556.6	627.163
2555.91	605.44
2555.21	569.311
2554.52	580.029
2553.82	626.764
2553.13	601.454
2552.44	612.161
2551.74	612.063
2551.05	615.566
2550.35	615.468
2549.66	622.567
2548.96	608.076
2548.27	622.369
2547.57	622.27
2546.88	582.611
2546.18	593.306
2545.49	636.354
2544.79	582.333
2544.1	625.369
2543.4	578.554
2542.7	639.542
2542.01	693.325
2541.31	678.848
2540.62	614.098
2539.92	664.269
2539.22	689.294
2538.53	617.394
2537.83	642.418
2537.13	613.609
2536.44	688.854
2535.74	620.588
2535.04	616.902
2534.35	699.284
2533.65	656.146
2532.95	659.627
2532.25	623.678
2531.56	648.665
2530.86	644.978
2530.16	555.31
2529.46	616.116
2528.76	658.996
2528.07	705.443
2527.37	662.366
2526.67	572.766
2525.97	680.051
2525.27	626.263
2524.57	658.366
2523.88	668.994
2523.18	718.964
2522.48	636.593
2521.78	675.825
2521.08	647.116
2520.38	618.415
2519.68	682.65
2518.98	714.703
2518.28	621.692
2517.58	671.606
2516.88	689.358
2516.18	632.108
2515.48	642.72
2514.78	624.766
2514.08	617.528
2513.38	656.688
2512.68	692.267
2511.98	681.453
2511.28	663.508
2510.58	663.402
2509.88	677.56
2509.17	652.494
2508.47	680.909
2507.77	709.316
2507.07	673.564
2506.37	637.824
2505.67	719.664
2504.97	634.058
2504.26	655.326
2503.56	690.831
2502.86	651.556
2502.16	679.931
2501.45	683.382
2500.75	658.362
2500.05	690.28
2499.35	675.939
2498.64	700.73
2497.94	657.941
2497.24	640.057
2496.53	668.397
2495.83	661.18
2495.13	693.062
2494.42	764.023
2493.72	685.735
2493.02	728.255
2492.31	706.827
2491.61	703.163
2490.9	738.558
2490.2	688.737
2489.5	720.573
2488.79	677.87
2488.09	777.119
2487.38	667.009
2486.68	709.471
2485.97	684.53
2485.27	730.521
2484.56	719.767
2483.86	726.742
2483.15	737.26
2482.45	772.581
2481.74	754.741
2481.04	765.248
2480.33	743.872
2479.62	708.337
2478.92	704.682
2478.21	676.245
2477.51	718.616
2476.8	739.738
2476.09	725.464
2475.39	718.271
2474.68	785.373
2473.97	774.636
2473.27	739.146
2472.56	746.1
2471.85	703.555
2471.14	760
2470.44	766.947
2469.73	763.291
2469.02	763.169
2468.31	787.775
2467.61	780.584
2466.9	791.054
2466.19	797.989
2465.48	762.558
2464.77	744.786
2464.07	691.729
2463.36	748.076
2462.65	758.541
2461.94	694.924
2461.23	747.717
2460.52	807.546
2459.81	705.167
2459.1	722.681
2458.4	817.732
2457.69	750.642
2456.98	771.663
2456.27	771.54
2455.56	817.208
2454.85	767.77
2454.14	767.647
2453.43	746.4
2452.72	756.84
2452.01	820.072
2451.3	746.041
2450.59	767.032
2449.88	749.319
2449.16	777.338
2448.45	784.247
2447.74	777.089
2447.03	798.058
2446.32	822.536
2445.61	727.511
2444.9	797.674
2444.19	804.573
2443.47	793.905
2442.76	811.339
2442.05	797.162
2441.34	768.945
2440.63	821.48
2439.91	845.919
2439.2	796.65
2438.49	775.469
2437.78	806.92
2437.06	803.282
2436.35	806.661
2435.64	880.171
2434.93	774.847
2434.21	862.36
2433.5	795.628
2432.79	837.553
2432.07	823.403
2431.36	823.271
2430.64	802.122
2429.93	805.495
2429.22	847.385
2428.5	875.257
2427.79	801.607
2427.07	829.477
2426.36	871.336
2425.65	895.687
2424.93	773.106
2424.22	832.442
2423.5	758.869
2422.79	832.174
2422.07	821.552
2421.36	748.017
2420.64	814.299
2419.92	807.179
2419.21	800.062
2418.49	890.755
2417.78	799.805
2417.06	869.517
2416.35	841.445
2415.63	862.255
2414.91	823.723
2414.2	868.958
2413.48	785.076
2412.76	882.633
2412.05	854.586
2411.33	896.299
2410.61	829.902
2409.9	871.606
2409.18	864.494
2408.46	787.678
2407.74	892.093
2407.03	888.466
2406.31	881.355
2405.59	846.383
2404.87	832.317
2404.16	912.267
2403.44	797.235
2402.72	863.242
2402	817.86
2401.28	883.842
2400.56	845.43
2399.85	873.122
2399.13	914.718
2398.41	841.544
2397.69	837.931
2396.97	855.178
2396.25	851.565
2395.53	851.427
2394.81	965.954
2394.09	979.695
2393.37	857.963
2392.65	878.663
2391.93	934.08
2391.21	906.154
2390.49	892.123
2389.77	885.038
2389.05	871.015
2388.33	888.222
2387.61	870.734
2386.89	884.467
2386.17	932.876
2385.45	915.389
2384.73	946.443
2384	922.026
2383.28	883.755
2382.56	942.52
2381.84	931.974
2381.12	911.04
2380.4	942.064
2379.67	889.968
2378.95	927.911
2378.23	924.299
2377.51	937.995
2376.79	937.844
2376.06	989.594
2375.34	899.486
2374.62	899.341
2373.9	961.448
2373.17	985.498
2372.45	930.021
2371.73	874.563
2371	915.896
2370.28	929.571
2369.56	915.601
2368.83	967.271
2368.11	1008.56
2367.38	887.53
2366.66	980.614
2365.94	914.862
2365.21	990.653
2364.49	924.92
2363.76	917.869
2363.04	986.723
2362.31	955.518
2361.59	910.527
2360.86	906.931
2360.14	948.159
2359.41	975.584
2358.69	892.705
2357.96	975.269
2357.24	923.427
2356.51	974.954
2355.79	885.239
2355.06	1009.08
2354.33	971.038
2353.61	1036.3
2352.88	977.609
2352.15	974.009
2351.43	911.91
2350.7	894.56
2349.98	970.097
2349.25	1018.09
2348.52	942.271
2347.79	993.695
2347.07	969.469
2346.34	1010.56
2345.61	931.352
2344.88	982.744
2344.16	951.664
2343.43	1033.95
2342.7	954.791
2341.97	1030.18
2341.25	1074.65
2340.52	981.79
2339.79	998.793
2339.06	974.609
2338.33	981.314
2337.6	974.294
2336.87	1042.74
2336.14	1008.27
2335.42	973.821
2334.69	983.948
2333.96	970.078
2333.23	966.494
2332.5	1038.3
2331.77	1024.43
2331.04	1020.83
2330.31	972.718
2329.58	1017.08
2328.85	962.131
2328.12	1068.1
2327.39	1002.89
2326.66	975.353
2325.93	1009.41
2325.2	1050.3
2324.47	1033.03
2323.73	1008.92
2323	1032.69
2322.27	1025.69
2321.54	963.992
2320.81	1001.43
2320.08	1038.86
2319.35	1021.61
2318.61	1014.61
2317.88	1045.19
2317.15	1045.02
2316.42	1085.82
2315.69	1061.75
2314.95	1010.37
2314.22	1054.58
2313.49	1098.77
2312.76	992.825
2312.02	1074.53
2311.29	1026.61
2310.56	1084.41
2309.82	1074.01
2309.09	1046.56
2308.36	1083.89
2307.62	1036
2306.89	1063.09
2306.16	1093.58
2305.42	1045.72
2304.69	1106.85
2303.95	1038.57
2303.22	1017.97
2302.48	1072.27
2301.75	1099.32
2301.02	1122.96
2300.28	1102.37
2299.55	1126
2298.81	1095.21
2298.08	1098.43
2297.34	1023.45
2296.6	1064.08
2295.87	1108.09
2295.13	1036.54
2294.4	1043.17
2293.66	1127.94
2292.93	1083.6
2292.19	1164.93
2291.45	1137.58
2290.72	1096.65
2289.98	1140.6
2289.24	1106.47
2288.51	1123.26
2287.77	1167.19
2287.03	1126.29
2286.3	1102.36
2285.56	1095.4
2284.82	1054.53
2284.08	1071.31
2283.35	1176.22
2282.61	1131.97
2281.87	1213.11
2281.13	1124.83
2280.4	1097.54
2279.66	1178.65
2278.92	1137.82
2278.18	1134.25
2277.44	1110.37
2276.7	1110.19
2275.97	1137.08
2275.23	1163.97
2274.49	1160.4
2273.75	1139.91
2273.01	1139.73
2272.27	1115.87
2271.53	1159.64
2270.79	1152.69
2270.05	1149.12
2269.31	1077.97
2268.57	1219.7
2267.83	1118.16
2267.09	1121.36
2266.35	1141.44
2265.61	1158.13
2264.87	1124.18
2264.13	1090.25
2263.39	1167.69
2262.65	1184.37
2261.91	1217.92
2261.17	1126.64
2260.42	1197.28
2259.68	1244.3
2258.94	1210.38
2258.2	1186.59
2257.46	1169.54
2256.72	1115.43
2255.97	1118.62
2255.23	1239.72
2254.49	1162.04
2253.75	1209
2253	1205.44
2252.26	1185.04
2251.52	1134.36
2250.78	1191.39
2250.03	1208.02
2249.29	1194.36
2248.55	1207.62
2247.8	1241.06
2247.06	1210.59
2246.32	1186.86
2245.57	1237.09
2244.83	1226.81
2244.09	1330.78
2243.34	1139.05
2242.6	1216.13
2241.85	1199.14
2241.11	1256.03
2240.36	1175.24
2239.62	1269.05
2238.88	1225.21
2238.13	1318.98
2237.39	1312.05
2236.64	1231.32
2235.89	1227.76
2235.15	1247.69
2234.4	1267.6
2233.66	1217.1
2232.91	1223.61
2232.17	1240.17
2231.42	1223.21
2230.67	1296.73
2229.93	1229.51
2229.18	1232.66
2228.44	1289.39
2227.69	1232.26
2226.94	1302.36
2226.2	1228.51
2225.45	1235
2224.7	1241.49
2223.95	1304.86
2223.21	1328.06
2222.46	1277.68
2221.71	1254.06
2220.96	1247.17
2220.22	1317.17
2219.47	1230.05
2218.72	1273.29
2217.97	1289.79
2217.22	1249.49
2216.48	1279.35
2215.73	1289.16
2214.98	1315.66
2214.23	1298.75
2213.48	1325.25
2212.73	1348.39
2211.98	1271.42
2211.23	1321.26
2210.48	1334.39
2209.73	1284.14
2208.98	1343.96
2208.23	1297.06
2207.48	1316.85
2206.73	1263.3
2205.98	1289.75
2205.23	1316.2
2204.48	1335.97
2203.73	1369.07
2202.98	1292.24
2202.23	1351.97
2201.48	1301.81
2200.73	1358.18
2199.98	1258.11
2199.23	1334.45
2198.48	1367.5
2197.72	1360.62
2196.97	1343.77
2196.22	1356.85
2195.47	1346.65
2194.72	1376.35
2193.97	1376.13
2193.21	1465.64
2192.46	1375.68
2191.71	1362.16
2190.96	1312.11
2190.2	1408.22
2189.45	1354.85
2188.7	1417.72
2187.94	1367.69
2187.19	1354.19
2186.44	1387.15
2185.68	1313.93
2184.93	1376.75
2184.18	1340.03
2183.42	1449.25
2182.67	1415.86
2181.91	1382.47
2181.16	1445.23
2180.41	1391.96
2179.65	1351.97
2178.9	1365
2178.14	1444.28
2177.39	1467.23
2176.63	1447.12
2175.88	1440.26
2175.12	1459.89
2174.37	1393.45
2173.61	1356.82
2172.86	1426.08
2172.1	1396.07
2171.34	1465.31
2170.59	1392.31
2169.83	1448.29
2169.08	1408.38
2168.32	1444.51
2167.56	1427.75
2166.81	1404.38
2166.05	1433.89
2165.29	1403.92
2164.54	1446.63
2163.78	1410.07
2163.02	1396.63
2162.27	1505.34
2161.51	1439.08
2160.75	1455.34
2159.99	1465
2159.23	1474.66
2158.48	1494.21
2157.72	1487.37
2156.96	1464.04
2156.2	1457.21
2155.44	1453.67
2154.69	1535.83
2153.93	1479.56
2153.17	1522.14
2152.41	1409.89
2151.65	1482.12
2150.89	1472
2150.13	1435.54
2149.37	1458.35
2148.61	1540.39
2147.85	1375.6
2147.09	1404.98
2146.33	1483.71
2145.57	1509.78
2144.81	1496.38
2144.05	1476.4
2143.29	1492.6
2142.53	1466.05
2141.77	1518.4
2141.01	1482
2140.25	1531.04
2139.49	1488.09
2138.73	1474.7
2137.97	1467.89
2137.2	1520.18
2136.44	1536.35
2135.68	1552.51
2134.92	1571.94
2134.16	1506.06
2133.4	1518.94
2132.63	1531.81
2131.87	1488.92
2131.11	1541.14
2130.35	1488.43
2129.58	1520.96
2128.82	1543.66
2128.06	1589.28
2127.29	1615.23
2126.53	1533.07
2125.77	1539.37
2125	1526.01
2124.24	1555.23
2123.48	1600.8
2122.71	1590.72
2121.95	1534.83
2121.19	1524.76
2120.42	1508.15
2119.66	1494.82
2118.89	1514.19
2118.13	1585.88
2117.36	1598.7
2116.6	1539.6
2115.83	1663.54
2115.07	1565.23
2114.3	1496.36
2113.54	1492.85
2112.77	1597.12
2112.01	1583.79
2111.24	1563.94
2110.48	1553.89
2109.71	1710.3
2108.94	1582.75
2108.18	1543.33
2107.41	1667.05
2106.64	1624.37
2105.88	1562.14
2105.11	1640.14
2104.34	1594.23
2103.58	1672.19
2102.81	1606.74
2102.04	1639.06
2101.28	1713.72
2100.51	1700.41
2099.74	1550.31
2098.97	1677.05
2098.21	1621.43
2097.44	1663.48
2096.67	1637.17
2095.9	1724.76
2095.13	1617.1
2094.36	1616.84
2093.6	1639.34
2092.83	1639.07
2092.06	1632.29
2091.29	1632.03
2090.52	1696.77
2089.75	1546.99
2088.98	1744.95
2088.21	1656.94
2087.44	1575.46
2086.67	1636.91
2085.9	1639.88
2085.13	1720.78
2084.36	1671.8
2083.59	1671.53
2082.82	1671.25
2082.05	1716.4
2081.28	1586.35
2080.51	1764.49
2079.74	1579.34
2078.97	1666.63
2078.2	1714.98
2077.43	1646.63
2076.65	1714.42
2075.88	1785.42
2075.11	1697.65
2074.34	1684.41
2073.57	1642.03
2072.8	1683.86
2072.02	1670.63
2071.25	1628.27
2070.48	1760.7
2069.71	1715.1
2068.93	1624.23
2068.16	1704.83
2067.39	1649.57
2066.61	1720.44
2065.84	1668.42
2065.07	1729.57
2064.29	1800.39
2063.52	1774.24
2062.75	1725.48
2061.97	1741.35
2061.2	1728.14
2060.43	1650.34
2059.65	1837.36
2058.88	1811.22
2058.1	1675.35
2057.33	1629.89
2056.55	1771.6
2055.78	1713.23
2055	1725.85
2054.23	1748.15
2053.45	1738.18
2052.68	1721.77
2051.9	1773.07
2051.13	1801.78
2050.35	1717.69
2049.57	1785.08
2048.8	1913.65
2048.02	1784.48
2047.25	1768.09
2046.47	1722.71
2045.69	1773.94
2044.92	1786.52
2044.14	1786.23
2043.36	1921.08
2042.59	1821.03
2041.81	1708.13
2041.03	1794.69
2040.25	1820.12
2039.48	1893.77
2038.7	1819.52
2037.92	1825.64
2037.14	1838.2
2036.37	1847.53
2035.59	1792.61
2034.81	1776.25
2034.03	1881.94
2033.25	1843.1
2032.47	1939.1
2031.69	1829.65
2030.92	1829.34
2030.14	1886.8
2029.36	1809.49
2028.58	1850.89
2027.8	1751.15
2027.02	1853.48
2026.24	1904.47
2025.46	1769.52
2024.68	1878.2
2023.9	1881.09
2023.12	1944.86
2022.34	1845.23
2021.56	1825.7
2020.78	1873.44
2020	2062.04
2019.21	1927.24
2018.43	1958.93
2017.65	1840.19
2016.87	1923.08
2016.09	1884.37
2015.31	1861.67
2014.53	1970.1
2013.74	1912.21
2012.96	1841.56
2012.18	1889.2
2011.4	1885.69
2010.62	1949.29
2009.83	1837.14
2009.05	1923.09
2008.27	2012.2
2007.49	1957.57
2006.7	1883.81
2005.92	1877.11
2005.14	1953.41
2004.35	1959.47
2003.57	1933.61
2002.79	1971.58
2002	1875.56
2001.22	1999.62
2000.43	1938.71
1999.65	1938.38
1998.87	1918.94
1998.08	1960.05
1997.3	1934.23
1996.51	1962.58
1995.73	1990.93
1994.94	1958.75
1994.16	1955.24
1993.37	2015.4
1992.59	1910.02
1991.8	2033.83
1991.02	1976.21
1990.23	1934.52
1989.44	1985.1
1988.66	2064.29
1987.87	1971.72
1987.09	1958.67
1986.3	1964.7
1985.51	1977.09
1984.73	1979.94
1983.94	1995.5
1983.15	1966.57
1982.37	1966.25
1981.58	1975.45
1980.79	2000.52
1980	1958.91
1979.22	2053.82
1978.43	1999.52
1977.64	2081.69
1976.85	1906.85
1976.06	2036.59
1975.28	1988.68
1974.49	2131.05
1973.7	1997.52
1972.91	1978.17
1972.12	2091.95
1971.33	2031.39
1970.54	2012.04
1969.76	2062.39
1968.97	2115.89
1968.18	1998.36
1967.39	2124.69
1966.6	2092.68
1965.81	2098.66
1965.02	2060.33
1964.23	2047.33
1963.44	2126.08
1962.65	2106.75
1961.86	2081.1
1961.07	2109.21
1960.28	2146.8
1959.48	2111.67
1958.69	2079.71
1957.9	2060.4
1957.11	2170.64
1956.32	2138.69
1955.53	2239.41
1954.74	2150.61
1953.94	2065
1953.15	2086.75
1952.36	2149.53
1951.57	2060.81
1950.78	2092.02
1949.98	2072.74
1949.19	2223.8
1948.4	2144.59
1947.61	2185.22
1946.81	2121.8
1946.02	2080.47
1945.23	2108.49
1944.43	2180.61
1943.64	2095.18
1942.85	2246.04
1942.05	2148.02
1941.26	2157.11
1940.46	2188.24
1939.67	2118.62
1938.88	2222.13
1938.08	2149.38
1937.29	2149.02
1936.49	2183.27
1935.7	2255.25
1934.9	2176.25
1934.11	2157.02
1933.31	2266.69
1932.52	2128.01
1931.72	2190.51
1930.93	2205.85
1930.13	2246.33
1929.33	2277.36
1928.54	2141.93
1927.74	2235.78
1926.95	2266.8
1926.15	2307.23
1925.35	2247.21
1924.56	2259.39
1923.76	2309.21
1922.96	2220.99
1922.17	2139.07
1921.37	2261.01
1920.57	2216.74
1919.77	2297.88
1918.98	2256.75
1918.18	2143.55
1917.38	2277.92
1916.58	2233.68
1915.78	2205.12
1914.99	2257.99
1914.19	2216.91
1913.39	2272.89
1912.59	2310.07
1911.79	2262.74
1910.99	2196.65
1910.19	2255.72
1909.39	2177.14
1908.59	2248.71
1907.8	2310.88
1907	2341.76
1906.2	2203.82
1905.4	2256.59
1904.6	2234.33
1903.8	2240.21
1903	2308.56
1902.2	2308.17
1901.39	2254.7
1900.59	2351.11
1899.79	2335.11
1898.99	2303.5
1898.19	2293.76
1897.39	2396.34
1896.59	2352.26
1895.79	2376.82
1894.99	2264.15
1894.18	2294.95
1893.38	2378.74
1892.58	2322.24
1891.78	2268.87
1890.98	2383.78
1890.17	2317.95
1889.37	2389.21
1888.57	2419.96
1887.76	2347.93
1886.96	2275.93
1886.16	2334.69
1885.36	2337.41
1884.55	2414.82
1883.75	2324.18
1882.94	2305.13
1882.14	2351.39
1881.34	2438.07
1880.53	2341.28
1879.73	2449.69
1878.92	2384.01
1878.12	2402.25
1877.32	2383.21
1876.51	2407.66
1875.71	2435.21
1874.9	2450.33
1874.1	2356.77
1873.29	2396.73
1872.49	2387.02
1871.68	2368
1870.87	2321.05
1870.07	2525.43
1869.26	2354.39
1868.46	2381.91
1867.65	2477.64
1866.84	2384.21
1866.04	2427.21
1865.23	2457.8
1864.42	2497.67
1863.62	2388.81
1862.81	2490.63
1862	2530.48
1861.2	2468.12
1860.39	2402.68
1859.58	2430.14
1858.77	2429.73
1857.96	2342.67
1857.16	2487.71
1856.35	2474.91
1855.54	2465.22
1854.73	2551.4
1853.92	2526.23
1853.12	2473.25
1852.31	2420.29
1851.5	2450.79
1850.69	2472
1849.88	2453.05
1849.07	2597.82
1848.26	2405.9
1847.45	2581.51
1846.64	2605.77
1845.83	2472.6
1845.02	2422.8
1844.21	2542.74
1843.4	2489.86
1842.59	2504.87
1841.78	2433.51
1840.97	2537.94
1840.16	2488.19
1839.35	2530.93
1838.54	2379.47
1837.72	2576.3
1836.91	2523.49
1836.1	2575.43
1835.29	2534.96
1834.48	2528.37
1833.67	2491
1832.85	2582.93
1832.04	2520.94
1831.23	2532.82
1830.42	2560.09
1829.6	2664.26
1828.79	2460.8
1827.98	2491.14
1827.17	2539.92
1826.35	2499.52
1825.54	2529.84
1824.73	2615.47
1823.91	2654.97
1823.1	2522.41
1822.29	2608
1821.47	2638.28
1820.66	2600.98
1819.84	2643.53
1819.03	2652.29
1818.21	2697.88
1817.4	2531.72
1816.58	2469.92
1815.77	2567.67
1814.95	2613.25
1814.14	2542.27
1813.32	2630.76
1812.51	2648.71
1811.69	2620.68
1810.88	2552.82
1810.06	2592.22
1809.25	2585.66
1808.43	2606.66
1807.61	2688.91
1806.8	2731.33
1805.98	2669.63
1805.16	2675.31
1804.35	2607.52
1803.53	2683.58
1802.71	2677.01
1801.89	2667.38
1801.08	2728.1
1800.26	2663.42
1799.44	2711.89
1798.62	2616.67
1797.81	2625.4
1796.99	2683.02
1796.17	2707.01
1795.35	2727.93
1794.53	2712.2
1793.71	2607.91
1792.9	2750.98
1792.08	2631.46
1791.26	2777.52
1790.44	2737.38
1789.62	2685.04
1788.8	2742.55
1787.98	2729.89
1787.16	2714.18
1786.34	2704.57
1785.52	2694.97
1784.7	2764.62
1783.88	2614.82
1783.06	2775.87
1782.24	2690.1
1781.42	2686.6
1780.6	2695.28
1779.78	2746.59
1778.95	2651.75
1778.13	2779.15
1777.31	2663.03
1776.49	2820.81
1775.67	2701.68
1774.85	2740.77
1774.02	2819.38
1773.2	2733.76
1772.38	2848.83
1771.56	2839.23
1770.74	2853.94
1769.91	2844.34
1769.09	2789.17
1768.27	2737.06
1767.44	2912.76
1766.62	2714.87
1765.8	2766.03
1764.97	2789.85
1764.15	2777.24
1763.33	2828.36
1762.5	2815.74
1761.68	2872.9
1760.85	2887.58
1760.03	2914.39
1759.21	2847.19
1758.38	2852.77
1757.56	2906.85
1756.73	2915.44
1755.91	2924.04
1755.08	2929.6
1754.26	2932.14
1753.43	2922.56
1752.6	2916
1751.78	2957.9
1750.95	3048.2
1750.13	2950.84
1749.3	2995.73
1748.47	3049.68
1747.65	3015.89
1746.82	3006.3
1745.99	3187.23
1745.17	3168.55
1744.34	3113.6
1743.51	3324.64
1742.69	3315.01
1741.86	3383.94
1741.03	3461.91
1740.2	3503.61
1739.38	3560.39
1738.55	3632.25
1737.72	3698.05
1736.89	3733.64
1736.06	3892.95
1735.23	3831.94
1734.4	3921.8
1733.58	3993.52
1732.75	4113.47
1731.92	4314.8
1731.09	4247.74
1730.26	4219.89
1729.43	4357.8
1728.6	4468.55
1727.77	4401.51
1726.94	4536.31
1726.11	4574.7
1725.28	4513.7
1724.45	4684.54
1723.62	4644.61
1722.79	4583.63
1721.96	4393.28
1721.13	4476.77
1720.3	4433.9
1719.46	4153.44
1718.63	4276.02
1717.8	4025.76
1716.97	3928.88
1716.14	3997.34
1715.31	3828.38
1714.47	3686.52
1713.64	3664.86
1712.81	3730.32
1711.98	3414.37
1711.14	3503.86
1710.31	3389.19
1709.48	3271.56
1708.65	3192.98
1707.81	3249.45
1706.98	3317.89
1706.15	3110.37
1705.31	3151.83
1704.48	3109.31
1703.64	3135.76
1702.81	3156.21
1701.98	3179.65
1701.14	3140.16
1700.31	3187.56
1699.47	3028.26
1698.64	3021.76
1697.8	3054.18
1696.97	3068.63
1696.13	3020.21
1695.3	3091.53
1694.46	3028.16
1693.63	3066.54
1692.79	3072
1691.95	3053.53
1691.12	3032.08
1690.28	3052.49
1689.45	3189.48
1688.61	3003.64
1687.77	3065.88
1686.94	3008.59
1686.1	3020.02
1685.26	3052.36
1684.42	3021.98
1683.59	3099.09
1682.75	3053.79
1681.91	3202.5
1681.07	3145.26
1680.24	3037.31
1679.4	3120.32
1678.56	3092.94
1677.72	3098.38
1676.88	3178.36
1676.04	3159.93
1675.21	3180.25
1674.37	3024.75
1673.53	3161.29
1672.69	3050.53
1671.85	3154.26
1671.01	3016.73
1670.17	3048.97
1669.33	3045.47
1668.49	3092.58
1667.65	2975.98
1666.81	3103.42
1665.97	3058.27
1665.13	3078.57
1664.29	3072.1
1663.45	3071.57
1662.61	3035.37
1661.77	3144.83
1660.92	3117.55
1660.08	3185.36
1659.24	3161.05
1658.4	3145.66
1657.56	3195.61
1656.72	3129.74
1655.87	3129.2
1655.03	3152.42
1654.19	3190.46
1653.35	3091.99
1652.5	3159.7
1651.66	3230.35
1650.82	3075.58
1649.98	3098.78
1649.13	3121.97
1648.29	3269.65
1647.45	3257.24
1646.6	3185.56
1645.76	3196.87
1644.91	3264.45
1644.07	3178
1643.23	3168.58
1642.38	3224.29
1641.54	3211.9
1640.69	3196.55
1639.85	3178.25
1639	3245.76
1638.16	3322.12
1637.31	3274.22
1636.47	3220.43
1635.62	3240.58
1634.78	3269.59
1633.93	3242.43
1633.08	3283.25
1632.24	3202.91
1631.39	3220.09
1630.55	3361.31
1629.7	3354.83
1628.85	3422.17
1628.01	3392.06
1627.16	3276.37
1626.31	3446.97
1625.46	3387.37
1624.62	3528.4
1623.77	3551.39
1622.92	3668.75
1622.07	3659.28
1621.23	3853.23
1620.38	3852.57
1619.53	4134.83
1618.68	4411.11
1617.83	4840.49
1616.98	5181.35
1616.13	5610.45
1615.29	6124.8
1614.44	6391.66
1613.59	6499.48
1612.74	6501.31
1611.89	6473.72
1611.04	6331.39
1610.19	5892.01
1609.34	5538.07
1608.49	5372.44
1607.64	4798.21
1606.79	4700.38
1605.94	4464.45
1605.09	4428.42
1604.24	4195.55
1603.38	4103.77
1602.53	4070.76
1601.68	3852.76
1600.83	3740.53
1599.98	3692.92
1599.13	3680.54
1598.27	3568.4
1597.42	3470.96
1596.57	3549.58
1595.72	3408.18
1594.87	3513.17
1594.01	3427.54
1593.16	3453.33
1592.31	3273.95
1591.45	3387.68
1590.6	3354.86
1589.75	3395.3
1588.89	3491.38
1588.04	3379.49
1587.19	3370.13
1586.33	3384.19
1585.48	3401.17
1584.62	3503.01
1583.77	3256.63
1582.92	3457.93
1582.06	3489.51
1581.21	3418.72
1580.35	3538.02
1579.5	3329.84
1578.64	3367.27
1577.78	3398.84
1576.93	3371.96
1576.07	3450.26
1575.22	3455.51
1574.36	3393.59
1573.51	3320
1572.65	3383.66
1571.79	3426.86
1570.94	3411.68
1570.08	3422.77
1569.22	3378.42
1568.37	3374.92
1567.51	3429.75
1566.65	3426.25
1565.79	3393.59
1564.94	3448.39
1564.08	3345.79
1563.22	3377.27
1562.36	3446.61
1561.5	3355.72
1560.65	3439.6
1559.79	3389.51
1558.93	3435.51
1558.07	3408.72
1557.21	3480.89
1556.35	3314.43
1555.49	3418.6
1554.63	3319.1
1553.77	3600.65
1552.91	3544.78
1552.05	3471.49
1551.19	3424.38
1550.33	3409.26
1549.47	3336.02
1548.61	3466.19
1547.75	3390.07
1546.89	3406.91
1546.03	3487.63
1545.17	3391.22
1544.31	3303.55
1543.45	3401.66
1542.58	3374.96
1541.72	3455.62
1540.86	3382.5
1540	3515.33
1539.14	3410.33
1538.28	3415.54
1537.41	3452.64
1536.55	3449.15
1535.69	3393.49
1534.82	3462.45
1533.96	3542.96
1533.1	3438.08
1532.24	3466.45
1531.37	3381.88
1530.51	3459.46
1529.64	3389.4
1528.78	3411.97
1527.92	3544.48
1527.05	3480.22
1526.19	3436.24
1525.32	3406.72
1524.46	3440.83
1523.59	3512.51
1522.73	3613.07
1521.86	3479.51
1521	3426.9
1520.13	3614.09
1519.27	3431.5
1518.4	3526.21
1517.54	3490.95
1516.67	3481.69
1515.8	3455.11
1514.94	3425.65
1514.07	3482.77
1513.21	3476.4
1512.34	3435.42
1511.47	3495.39
1510.6	3491.9
1509.74	3479.76
1508.87	3585.82
1508	3507.38
1507.14	3512.54
1506.27	3506.17
1505.4	3574.7
1504.53	3467.52
1503.66	3498.6
1502.8	3374.19
1501.93	3497.39
1501.06	3387.42
1500.19	3510.57
1499.32	3501.33
1498.45	3564.01
1497.58	3479.99
1496.71	3459.26
1495.84	3565.04
1494.97	3437.94
1494.1	3546.56
1493.23	3508.59
1492.36	3553.95
1491.49	3515.99
1490.62	3518.26
1489.75	3511.91
1488.88	3580.2
1488.01	3536.53
1487.14	3489.99
1486.27	3592.7
1485.4	3477.31
1484.52	3473.84
1483.65	3579.36
1482.78	3507.05
1481.91	3457.7
1481.04	3425.57
1480.17	3519.56
1479.29	3633.58
1478.42	3584.24
1477.55	3543.51
1476.67	3686.11
1475.8	3556.61
1474.93	3630.43
1474.06	3604.04
1473.18	3646.35
1472.31	3662.89
1471.43	3616.47
1470.56	3644.45
1469.69	3623.8
1468.81	3671.79
1467.94	3599.67
1467.06	3690.53
1466.19	3598.43
1465.31	3732.11
1464.44	3740.04
1463.56	3727.96
1462.69	3764.45
1461.81	3703.83
1460.94	3740.3
1460.06	3625.47
1459.19	3593.44
1458.31	3704.11
1457.43	3829.01
1456.56	3788.41
1455.68	3807.72
1454.8	3778.54
1453.93	3541.23
1453.05	3666.05
1452.17	3662.57
1451.3	3716.08
1450.42	3675.54
1449.54	3694.85
1448.66	3776.81
1447.78	3713.5
1446.91	3752.72
1446.03	3675.2
1445.15	3722.95
1444.27	3841.83
1443.39	3710.28
1442.51	3684.03
1441.64	3663.48
1440.76	3762.38
1439.88	3687.8
1439	3704.22
1438.12	3697.89
1437.24	3543.79
1436.36	3730.7
1435.48	3732.89
1434.6	3811.78
1433.72	3660.6
1432.84	3745.15
1431.96	3778.56
1431.08	3678.56
1430.2	3720.49
1429.31	3714.17
1428.43	3690.83
1427.55	3658.99
1426.67	3825.67
1425.79	3683.24
1424.91	3693.94
1424.02	3718.8
1423.14	3825.85
1422.26	3726.01
1421.38	3691.37
1420.49	3679.4
1419.61	3766.55
1418.73	3797.04
1417.85	3680.31
1416.96	3818.37
1416.08	3854.49
1415.2	3811.38
1414.31	3904.07
1413.43	3818.54
1412.54	3747.17
1411.66	3887.9
1410.78	3918.32
1409.89	3838.49
1409.01	3866.09
1408.12	3803.25
1407.24	3864.74
1406.35	3833
1405.47	3801.27
1404.58	3763.9
1403.7	3698.31
1402.81	3799.28
1401.92	3660.33
1401.04	3851.57
1400.15	3760.62
1399.27	3697.91
1398.38	3674.71
1397.49	3674.07
1396.61	3817.21
1395.72	3830.64
1394.83	3694.69
1393.94	3809.58
1393.06	3676.5
1392.17	3794.17
1391.28	3756.89
1390.39	3668.95
1389.51	3727.43
1388.62	3625.45
1387.73	3731.76
1386.84	3694.53
1385.95	3710.77
1385.06	3681.99
1384.17	3816.34
1383.29	3675.09
1382.4	3761.6
1381.51	3780.62
1380.62	3673.16
1379.73	3714.67
1378.84	3711.21
1377.95	3741.46
1377.06	3743.62
1376.17	3768.24
1375.28	3756.35
1374.39	3834.29
1373.5	3726.98
1372.6	3869.43
1371.71	3826.67
1370.82	3663.32
1369.93	3710.35
1369.04	3762.98
1368.15	3779.15
1367.26	3792.5
1366.36	3724.58
1365.47	3967.71
1364.58	3863.36
1363.69	3848.68
1362.79	3752.79
1361.9	3796.93
1361.01	3706.68
1360.11	3764.82
1359.22	3730.57
1358.33	3788.68
1357.43	3799.21
1356.54	3706.24
1355.65	3786.7
1354.75	3808.41
1353.86	3754.62
1352.96	3801.49
1352.07	3800.82
1351.17	3833.69
1350.28	3673.77
1349.39	3664.75
1348.49	3814.92
1347.59	3808.67
1346.7	3752.17
1345.8	3838.04
1344.91	3644.81
1344.01	3825.54
1343.12	3763.49
1342.22	3826.99
1341.32	3656.2
1340.43	3781.04
1339.53	3749.71
1338.63	3852.19
1337.74	3770.69
1336.84	3781.18
1335.94	3908.67
1335.04	3885.7
1334.15	3729.07
1333.25	3725.63
1332.35	3816.85
1331.45	3905.25
1330.55	3818.3
1329.66	3800.93
1328.76	3811.39
1327.86	3766.22
1326.96	3924.08
1326.06	3878.91
1325.16	3864.33
1324.26	3930.36
1323.36	3918.56
1322.46	3865.08
1321.56	3931.07
1320.66	3997.05
1319.76	3832.5
1318.86	3909.57
1317.96	3853.36
1317.06	3894.32
1316.16	4076.81
1315.26	4017.82
1314.36	4061.51
1313.46	4082.98
1312.55	3940.83
1311.65	4062.14
1310.75	4103.02
1309.85	4254.75
1308.95	4143.15
1308.04	4062.07
1307.14	4166.63
1306.24	4232.38
1305.34	4201.17
1304.43	4228.12
1303.53	4163.71
1302.63	4270.93
1301.72	4173.32
1300.82	4349.67
1299.92	4290.81
1299.01	4326.02
1298.11	4427.58
1297.21	4346.62
1296.3	4442.61
1295.4	4660.19
1294.49	4499.09
1293.59	4595.01
1292.68	4724.04
1291.78	4731.5
1290.87	4816.28
1289.97	4682.9
1289.06	4704.16
1288.16	4741.98
1287.25	4790.82
1286.34	4712.72
1285.44	4706.38
1284.53	4766.23
1283.62	4580.62
1282.72	4590.85
1281.81	4521.12
1280.9	4589.24
1280	4610.48
1279.09	4444.35
1278.18	4402.24
1277.27	4423.5
1276.37	4309.82
1275.46	4292.54
1274.55	4286.28
1273.64	4139.65
1272.73	4257.25
1271.82	4102.42
1270.92	4107.2
1270.01	4136.74
1269.1	4100.26
1268.19	4149.03
1267.28	4079.57
1266.37	4059.62
1265.46	4006.69
1264.55	4011.48
1263.64	3975.06
1262.73	3979.85
1261.82	3830.86
1260.91	4000.42
1260	3996.97
1259.09	3927.65
1258.18	3948.91
1257.27	3890.6
1256.35	3862.48
1255.44	3812.43
1254.53	3825.47
1253.62	3857.7
1252.71	3843.31
1251.79	3864.56
1250.88	3704.94
1249.97	3923.48
1249.06	3991.27
1248.14	3952.23
1247.23	3828.3
1246.32	3885.12
1245.41	3950.14
1244.49	3812.59
1243.58	3809.18
1242.66	3896.07
1241.75	3980.18
1240.84	3785.29
1239.92	3965.1
1239.01	3964.41
1238.09	3895.37
1237.18	3845.48
1236.26	3893.99
1235.35	3937.02
1234.43	3837.99
1233.52	3818.19
1232.6	3787.48
1231.69	3833.23
1230.77	3829.82
1229.86	3911.02
1228.94	3891.23
1228.02	3713.21
1227.11	3715.28
1226.19	3829.17
1225.27	3872.13
1224.36	3852.36
1223.44	3816.24
1222.52	3761.06
1221.6	3814.89
1220.69	3735.21
1219.77	3772.69
1218.85	3883.68
1217.93	3809.48
1217.01	3871.42
1216.1	3767.3
1215.18	3785.69
1214.26	3744.2
1213.34	3833.32
1212.42	3821.76
1211.5	3706.86
1210.58	3801.38
1209.66	3754.49
1208.74	3832.66
1207.82	3802.08
1206.9	3844.89
1205.98	3817.04
1205.06	3843.53
1204.14	3889.02
1203.22	3771.57
1202.3	3800.77
1201.38	3903.24
1200.46	3804.85
1199.54	3831.31
1198.61	3811.65
1197.69	3873.36
1196.77	3780.47
1195.85	3861.14
1194.93	3879.44
1194	3816.41
1193.08	3880.78
1192.16	3847.57
1191.24	3876.69
1190.31	3957.27
1189.39	3826.58
1188.47	4039.8
1187.54	3930.8
1186.62	3984.24
1185.7	3959.18
1184.77	4009.89
1183.85	3984.83
1182.92	4051.74
1182	4072.66
1181.07	4028.68
1180.15	3990.12
1179.23	4021.85
1178.3	4021.13
1177.37	4044.74
1176.45	3968.38
1175.52	4040.61
1174.6	4053.39
1173.67	4006.77
1172.75	3981.77
1171.82	4024.25
1170.89	3942.58
1169.97	3995.84
1169.04	4003.23
1168.11	3821.81
1167.19	3829.22
1166.26	3925.61
1165.33	3852.13
1164.4	3891.87
1163.48	3821.12
1162.55	3903.96
1161.62	3887.11
1160.69	3856.79
1159.76	3804.95
1158.83	3920.04
1157.91	3884.35
1156.98	3767.93
1156.05	3904.5
1155.12	3755.84
1154.19	3978.43
1153.26	3778.71
1152.33	3942.07
1151.4	3785.43
1150.47	3792.83
1149.54	3853.97
1148.61	3928.52
1147.68	3863.34
1146.75	3857.29
1145.82	3910.31
1144.89	4054.62
1143.96	3895.5
1143.02	3918.97
1142.09	3953.16
1141.16	3869.28
1140.23	3884.69
1139.3	3908.14
1138.36	3843.08
1137.43	3938.93
1136.5	3975.76
1135.57	4044.75
1134.63	3987.75
1133.7	3987.04
1132.77	4085.45
1131.83	4001.69
1130.9	3939.39
1129.97	3968.14
1129.03	4138.77
1128.1	4036.32
1127.17	4123.92
1126.23	4093.75
1125.3	4117.1
1124.36	4097.65
1123.43	3987.27
1122.49	4264.63
1121.56	4181
1120.62	4150.86
1119.69	4216.93
1118.75	4189.46
1117.81	4188.72
1116.88	4214.68
1115.94	4219.27
1115.01	4277.26
1114.07	4308.53
1113.13	4214.35
1112.2	4232.28
1111.26	4196.84
1110.32	4174.75
1109.38	4139.34
1108.45	4202.6
1107.51	4148.53
1106.57	4185.11
1105.63	4264.32
1104.69	4375.48
1103.76	4132.25
1102.82	4216.76
1101.88	4184.05
1100.94	4191.29
1100	4326.33
1099.06	4397.43
1098.12	4439.23
1097.18	4353.28
1096.24	4347.19
1095.3	4404.93
1094.36	4502.55
1093.42	4334.23
1092.48	4322.82
1091.54	4351.29
1090.6	4183.08
1089.66	4291.28
1088.72	4131.12
1087.78	4194.13
1086.84	4095.12
1085.9	4274.95
1084.95	4229.05
1084.01	4257.5
1083.07	4102.81
1082.13	4041.06
1081.19	4077.47
1080.24	4090.01
1079.3	4044.2
1078.36	4128.32
1077.41	4042.75
1076.47	4065.89
1075.53	3945.91
1074.58	3910.76
1073.64	3994.83
1072.7	3994.12
1071.75	3972.22
1070.81	4011.23
1069.86	3936.39
1068.92	3927.75
1067.98	3979.97
1067.03	3926.35
1066.09	4012.94
1065.14	3895.85
1064.19	3834.33
1063.25	3928.83
1062.3	3872.62
1061.36	3959.14
1060.41	3932.01
1059.46	4044.91
1058.52	3914.75
1057.57	3990.65
1056.63	3921.28
1055.68	3814.97
1054.73	3983.23
1053.78	4051.13
1052.84	3981.8
1051.89	3912.5
1050.94	3932.9
1049.99	4074.61
1049.05	3928.86
1048.1	4052.06
1047.15	3890.55
1046.2	3953.1
1045.25	3860.17
1044.3	3975.4
1043.35	3943.08
1042.4	3929.21
1041.45	3881.11
1040.5	3904.11
1039.55	4019.22
1038.6	3997.45
1037.65	3852.02
1036.7	3914.47
1035.75	4050.54
1034.8	3973.55
1033.85	3817.71
1032.9	3924.81
1031.95	3981.93
1031	3931.29
1030.05	3991.01
1029.1	4006.06
1028.14	3968.57
1027.19	4023.01
1026.24	4009.16
1025.29	3961.19
1024.33	3881.74
1023.38	3881.05
1022.43	4045.64
1021.48	4063.28
1020.52	4049.44
1019.57	3909.73
1018.62	3940.49
1017.66	4055.13
1016.71	4064.88
1015.75	4108.7
1014.8	4058.18
1013.85	4026.02
1012.89	3933.64
1011.94	4095.28
1010.98	4005.53
1010.03	4078.11
1009.07	4043.35
1008.12	4079.26
1007.16	4112.54
1006.2	4195.5
1005.25	4105.83
1004.29	4136.47
1003.34	4167.1
1002.38	4166.35
1001.42	4241.39
1000.47	4277.21
999.508	4198.07
998.551	4017.1
997.594	4110.39
996.636	4140.98
995.679	4208.11
994.721	4084.68
993.763	4112.65
992.805	3960.59
991.846	4184.22
990.888	4055.67
989.929	4015.82
988.97	4041.17
988.011	4178.61
987.052	3940.68
986.093	4036.39
985.133	4009.61
984.173	4047.97
983.213	4042.03
982.253	4174.1
981.293	4123.89
980.333	3901.89
979.372	4088.57
978.411	4001.97
977.45	3899.79
976.489	4023.94
975.528	4083.03
974.566	3980.89
973.605	3912.58
972.643	4039.24
971.681	4074.9
970.719	3915.67
969.756	4050.05
968.794	4153.22
967.831	3905.76
966.868	3980.36
965.905	4054.93
964.942	3960.76
963.979	4152.08
963.015	3964.52
962.052	4049.41
961.088	4129.09
960.124	4079.07
959.159	4023.89
958.195	4017.98
957.23	4141.67
956.266	4034.68
955.301	3997.68
954.336	4103.16
953.37	4037.68
952.405	4065.43
951.439	4036.22
950.473	4089.85
949.507	4014.06
948.541	4044.39
947.575	3968.64
946.608	4073.97
945.642	4130.14
944.675	4157.83
943.708	4138.99
942.741	3897.86
941.773	4101.32
940.806	4017.89
939.838	3999.09
938.87	4031.94
937.902	4095.78
936.934	3991.76
935.965	4060.74
934.997	4023.87
934.028	4092.82
933.059	4037.9
932.09	4101.67
931.121	4028.71
930.151	4236.86
929.182	4027.25
928.212	4008.48
927.242	4167.55
926.272	4071.46
925.301	4016.62
924.331	4064.84
923.36	4131.07
922.389	4127.74
921.418	3980.25
920.447	4051.61
919.475	4079.18
918.504	4106.75
917.532	4116.3
916.56	4102.7
915.588	4104.53
914.616	4222.07
913.643	4036.2
912.671	4043.19
911.698	4032.18
910.725	4093.11
909.752	4058.98
908.779	4199.51
907.805	4121.71
906.831	4113.26
905.858	4115.09
904.883	4129.74
903.909	4190.59
902.935	4120.55
901.96	4309.64
900.986	4203.7
900.011	4182.43
899.036	4148.34
898.06	4183.48
897.085	4100.71
896.109	4069.22
895.133	4181.21
894.157	4211.19
893.181	4361.53
892.205	4345.38
891.229	4257.55
890.252	4307.97
889.275	4271.36
888.298	4303.85
887.321	4285.17
886.343	4263.93
885.366	4316.86
884.388	4318.64
883.41	4210.48
882.432	4345.19
881.454	4423.62
880.475	4371.72
879.497	4457.79
878.518	4385.46
877.539	4343.81
876.56	4457.92
875.58	4357.55
874.601	4369.52
873.621	4307.49
872.641	4457.24
871.661	4525.31
870.681	4325.55
869.701	4329.87
868.72	4533.04
867.739	4519.48
866.758	4416.71
865.777	4604.48
864.796	4720.83
863.815	4742.9
862.833	4976.34
861.851	5092.57
860.869	5292.77
859.887	5197.63
858.905	5443.54
857.922	5246.63
856.939	5352.53
855.956	5122.64
854.973	5060.68
853.99	4988.57
853.007	4847.84
852.023	4813.92
851.039	4734.27
850.055	4702.92
849.071	4643.64
848.087	4498.03
847.102	4710.52
846.118	4597.95
845.133	4462.58
844.148	4515.07
843.163	4653.81
842.177	4363.74
841.192	4352.8
840.206	4349.48
839.22	4488.15
838.234	4418.88
837.248	4314.15
836.261	4366.59
835.274	4416.47
834.288	4506.87
833.301	4336.35
832.313	4320.37
831.326	4549.99
830.339	4374.49
829.351	4419.25
828.363	4393.14
827.375	4518.85
826.387	4459.85
825.398	4441.33
824.409	4478.46
823.421	4475.11
822.432	4423.74
821.443	4395.14
820.453	4384.23
819.464	4509.76
818.474	4554.4
817.484	4444.98
816.494	4464.37
815.504	4473.65
814.513	4500.61
813.523	4426.6
812.532	4413.18
811.541	4447.69
810.55	4383.83
809.559	4425.9
808.567	4528.47
807.575	4494.87
806.583	4481.45
805.591	4422.68
804.599	4421.87
803.607	4393.36
802.614	4259.07
801.621	4364.05
800.628	4373.33
799.635	4402.74
798.642	4568.05
797.649	4516.89
796.655	4604.12
795.661	4459.9
794.667	4662.81
793.673	4604.12
792.678	4578.14
791.684	4522.01
790.689	4503.59
789.694	4450
788.699	4451.7
787.704	4420.75
786.708	4389.81
785.713	4429.18
784.717	4355.57
783.721	4404.98
782.724	4552.23
781.728	4393.33
780.731	4538.03
779.735	4391.73
778.738	4405.98
777.741	4327.45
776.743	4464.53
775.746	4416.1
774.748	4420.3
773.75	4437.03
772.752	4508.87
771.754	4508.04
770.756	4261.83
769.757	4388.73
768.758	4340.37
767.759	4327.06
766.76	4448.88
765.761	4363.01
764.761	4352.21
763.762	4396.43
762.762	4520.64
761.762	4464.82
760.762	4404.02
759.761	4450.69
758.761	4539.82
757.76	4399.1
756.759	4338.36
755.758	4397.5
754.756	4371.72
753.755	4480.76
752.753	4365.13
751.751	4511.56
750.749	4518.22
749.747	4420.11
748.745	4364.44
747.742	4366.13
746.739	4432.65
745.736	4451.78
744.733	4391.15
743.73	4430.21
742.726	4504.14
741.723	4573.06
740.719	4495.02
739.715	4484.24
738.71	4508.31
737.706	4457.71
736.701	4384.73
735.697	4488.42
734.692	4472.67
733.686	4469.37
732.681	4565.53
731.675	4542.32
730.67	4603.63
729.664	4630.13
728.658	4510.01
727.651	4586.2
726.645	4418.93
725.638	4604.38
724.631	4422.28
723.624	4575.39
722.617	4500.09
721.61	4536.49
720.602	4404.15
719.595	4378.54
718.587	4476.95
717.578	4659.63
716.57	4596.8
715.562	4529.02
714.553	4540.58
713.544	4594.27
712.535	4665.28
711.526	4627.26
710.516	4606.6
709.507	4677.57
708.497	4637.1
707.487	4665.95
706.477	4749.24
705.467	4681.56
704.456	4816.77
703.445	4805.99
702.434	4889.19
701.423	4873.46
700.412	4882.45
699.401	4807.4
698.389	4744.74
697.377	4674.69
696.365	4720.77
695.353	4608.76
694.34	4649.89
693.328	4508.31
692.315	4438.36
691.302	4595.5
690.289	4619.33
689.276	4736.91
688.262	4548.57
687.249	4621.72
686.235	4507.44
685.221	4560.85
684.206	4646.29
683.192	4537
682.177	4644.58
681.162	4596.92
680.147	4697.06
679.132	4686.35
678.117	4702.72
677.101	4679.7
676.086	4649.3
675.07	4582.01
674.054	4682.04
673.037	4636.9
672.021	4559.8
671.004	4740.93
669.987	4740.06
668.97	4608.91
667.953	4490.09
666.936	4676.01
665.918	4603.91
664.9	4676.75
663.882	4673.43
662.864	4608.73
661.846	4629.98
660.827	4594.76
659.808	4635.64
658.789	4745.19
657.77	4653.56
656.751	4687.04
655.731	4669.01
654.712	4673.05
653.692	4708.96
652.672	4739.95
651.652	4697.42
650.631	4591.21
649.611	4752.03
648.59	4640.95
647.569	4561.74
646.548	4744.51
645.526	4702.02
644.505	4718.29
643.483	4783.48
642.461	4687.19
641.439	4715.68
640.417	4707.48
639.394	4603.92
638.371	4818.19
637.348	4812.41
636.325	4933.71
635.302	4976.77
634.279	5317.84
633.255	5429.2
632.231	5716.34
631.207	5385.7
630.183	5355.41
629.159	5239.72
628.134	4987.43
627.109	5035.3
626.084	4778.26
625.059	4845.67
624.034	4822.83
623.008	4692.74
621.983	4813.74
620.957	4866.46
619.931	4782.72
618.904	4769.66
617.878	4827.23
616.851	4860.43
615.824	4803.54
614.797	4693.11
613.77	4903.98
612.743	4754.64
611.715	4651.58
610.687	4845.32
609.659	4676.62
608.631	4765.72
607.603	4667.6
606.574	4832.01
605.546	4699.89
604.517	4764.63
603.487	4673.86
602.458	4828.44
601.429	4715.85
600.399	4773.24
599.369	4711.68
598.339	4917.1
597.309	4821.55
596.278	4915.28
595.248	4783.39
594.217	4755.82
593.186	4716.15
592.155	4674.06
591.123	4765.3
590.091	4825.01
589.06	4773.23
588.028	4796.57
586.996	4764.2
585.963	4780.27
584.931	4706.75
583.898	4839.02
582.865	4804.24
581.832	4854.17
580.798	4756.49
579.765	4852.37
578.731	4911.93
577.697	4836.06
576.663	4914.95
575.629	4831.85
574.594	4838.21
573.56	4909.8
572.525	4879.9
571.49	4729.25
570.455	4887.75
569.419	4824.07
568.384	4864.22
567.348	4761.94
566.312	4843.11
565.276	4825.32
564.239	4841.31
563.203	4809.06
562.166	4728.6
561.129	4937.47
560.092	4936.55
559.054	4969.37
558.017	4932.31
556.979	5008.49
555.941	4925.66
554.903	4903.08
553.865	4890.13
552.826	4930.14
551.787	4859.43
550.749	4795.96
549.709	4746.95
548.67	4690.75
547.631	4670.64
546.591	4775.57
545.551	4755.45
544.511	4725.72
543.471	4847.41
542.43	4812.87
541.39	4886.45
540.349	4851.92
539.308	5028.73
538.267	4905.34
537.225	4964.45
536.184	4925.12
535.142	4907.41
534.1	4860.91
533.058	4814.43
532.015	4755.97
530.973	4855.8
529.93	4699.06
528.887	4643.06
527.844	4800.37
526.801	4734.78
525.757	4712.34
524.713	4685.12
523.669	4557.32
522.625	4736.05
521.581	4706.44
520.537	4928.16
519.492	4955.96
518.447	4835.41
517.402	4757.96
516.357	4833.61
515.311	4825.54
514.265	4970.48
513.22	4725.74
512.174	4638.82
511.127	4695.31
510.081	4680.1
509.034	4695.95
507.987	4535.07
506.94	4429.17
505.893	4514.28
504.846	4620.85
503.798	4567.49
502.75	4657.3
501.702	4530
500.654	4643.64
499.606	4959.93
