3.992094e+002,0.000000e+000
4.011380e+002,0.000000e+000
4.030665e+002,0.000000e+000
4.049951e+002,0.000000e+000
4.069236e+002,0.000000e+000
4.088522e+002,0.000000e+000
4.107807e+002,0.000000e+000
4.127093e+002,0.000000e+000
4.146378e+002,0.000000e+000
4.165664e+002,0.000000e+000
4.184949e+002,0.000000e+000
4.204235e+002,0.000000e+000
4.223520e+002,0.000000e+000
4.242806e+002,0.000000e+000
4.262091e+002,0.000000e+000
4.281377e+002,0.000000e+000
4.300662e+002,0.000000e+000
4.319948e+002,0.000000e+000
4.339233e+002,0.000000e+000
4.358519e+002,0.000000e+000
4.377804e+002,0.000000e+000
4.397090e+002,0.000000e+000
4.416375e+002,0.000000e+000
4.435660e+002,0.000000e+000
4.454946e+002,0.000000e+000
4.474232e+002,0.000000e+000
4.493517e+002,0.000000e+000
4.512802e+002,0.000000e+000
4.532088e+002,0.000000e+000
4.551373e+002,0.000000e+000
4.570659e+002,0.000000e+000
4.589944e+002,0.000000e+000
4.609230e+002,0.000000e+000
4.628515e+002,0.000000e+000
4.647801e+002,0.000000e+000
4.667086e+002,0.000000e+000
4.686372e+002,0.000000e+000
4.705657e+002,0.000000e+000
4.724943e+002,0.000000e+000
4.744228e+002,0.000000e+000
4.763514e+002,0.000000e+000
4.782799e+002,0.000000e+000
4.802085e+002,0.000000e+000
4.821370e+002,0.000000e+000
4.840656e+002,0.000000e+000
4.859941e+002,0.000000e+000
4.879226e+002,0.000000e+000
4.898512e+002,0.000000e+000
4.917798e+002,0.000000e+000
4.937083e+002,0.000000e+000
4.956368e+002,0.000000e+000
4.975654e+002,0.000000e+000
4.994939e+002,0.000000e+000
5.014225e+002,0.000000e+000
5.033510e+002,0.000000e+000
5.052796e+002,0.000000e+000
5.072081e+002,0.000000e+000
5.091367e+002,0.000000e+000
5.110652e+002,0.000000e+000
5.129938e+002,0.000000e+000
5.149223e+002,0.000000e+000
5.168509e+002,0.000000e+000
5.187794e+002,0.000000e+000
5.207079e+002,0.000000e+000
5.226365e+002,0.000000e+000
5.245651e+002,0.000000e+000
5.264936e+002,0.000000e+000
5.284221e+002,0.000000e+000
5.303507e+002,0.000000e+000
5.322792e+002,0.000000e+000
5.342078e+002,0.000000e+000
5.361364e+002,0.000000e+000
5.380649e+002,0.000000e+000
5.399934e+002,0.000000e+000
5.419220e+002,0.000000e+000
5.438505e+002,0.000000e+000
5.457791e+002,0.000000e+000
5.477076e+002,0.000000e+000
5.496362e+002,0.000000e+000
5.515647e+002,0.000000e+000
5.534933e+002,0.000000e+000
5.554218e+002,0.000000e+000
5.573503e+002,0.000000e+000
5.592789e+002,0.000000e+000
5.612075e+002,0.000000e+000
5.631360e+002,0.000000e+000
5.650646e+002,0.000000e+000
5.669931e+002,0.000000e+000
5.689216e+002,0.000000e+000
5.708502e+002,0.000000e+000
5.727787e+002,0.000000e+000
5.747073e+002,0.000000e+000
5.766359e+002,0.000000e+000
5.785644e+002,0.000000e+000
5.804929e+002,0.000000e+000
5.824215e+002,0.000000e+000
5.843500e+002,0.000000e+000
5.862786e+002,0.000000e+000
5.882072e+002,0.000000e+000
5.901357e+002,0.000000e+000
5.920642e+002,0.000000e+000
5.939928e+002,0.000000e+000
5.959213e+002,0.000000e+000
5.978499e+002,0.000000e+000
5.997784e+002,0.000000e+000
6.017070e+002,0.000000e+000
6.036355e+002,0.000000e+000
6.055641e+002,0.000000e+000
6.074926e+002,0.000000e+000
6.094211e+002,0.000000e+000
6.113497e+002,0.000000e+000
6.132783e+002,0.000000e+000
6.152068e+002,0.000000e+000
6.171354e+002,0.000000e+000
6.190639e+002,0.000000e+000
6.209924e+002,0.000000e+000
6.229210e+002,0.000000e+000
6.248495e+002,0.000000e+000
6.267781e+002,0.000000e+000
6.287067e+002,0.000000e+000
6.306352e+002,0.000000e+000
6.325637e+002,0.000000e+000
6.344923e+002,0.000000e+000
6.364208e+002,0.000000e+000
6.383494e+002,0.000000e+000
6.402780e+002,0.000000e+000
6.422065e+002,0.000000e+000
6.441350e+002,0.000000e+000
6.460636e+002,0.000000e+000
6.479921e+002,0.000000e+000
6.499207e+002,0.000000e+000
6.518492e+002,0.000000e+000
6.537778e+002,0.000000e+000
6.557063e+002,0.000000e+000
6.576349e+002,0.000000e+000
6.595634e+002,0.000000e+000
6.614919e+002,0.000000e+000
6.634205e+002,0.000000e+000
6.653491e+002,0.000000e+000
6.672776e+002,0.000000e+000
6.692062e+002,0.000000e+000
6.711347e+002,0.000000e+000
6.730632e+002,0.000000e+000
6.749918e+002,5.437018e-002
6.769203e+002,5.617060e-002
6.788489e+002,5.855673e-002
6.807775e+002,5.985470e-002
6.827060e+002,5.939804e-002
6.846345e+002,5.856488e-002
6.865631e+002,5.882083e-002
6.884916e+002,5.923445e-002
6.904202e+002,6.035158e-002
6.923488e+002,6.250993e-002
6.942773e+002,6.453711e-002
6.962058e+002,6.658623e-002
6.981344e+002,7.068969e-002
7.000629e+002,7.673987e-002
7.019915e+002,8.250224e-002
7.039200e+002,8.766669e-002
7.058486e+002,9.258206e-002
7.077771e+002,9.727858e-002
7.097057e+002,1.022016e-001
7.116342e+002,1.077679e-001
7.135627e+002,1.164899e-001
7.154913e+002,1.319236e-001
7.174199e+002,1.601985e-001
7.193484e+002,2.090265e-001
7.212770e+002,2.881521e-001
7.232055e+002,3.844386e-001
7.251340e+002,4.267766e-001
7.270626e+002,3.816321e-001
7.289911e+002,3.071485e-001
7.309197e+002,2.436826e-001
7.328483e+002,1.931518e-001
7.347768e+002,1.502330e-001
7.367053e+002,1.111694e-001
7.386339e+002,7.751424e-002
7.405624e+002,5.133474e-002
7.424910e+002,3.422078e-002
7.444196e+002,2.463804e-002
7.463481e+002,2.002709e-002
7.482766e+002,1.744405e-002
7.502052e+002,1.615448e-002
7.521337e+002,1.556060e-002
7.540623e+002,1.535606e-002
7.559908e+002,1.542067e-002
7.579194e+002,1.555572e-002
7.598479e+002,1.596936e-002
7.617765e+002,1.668781e-002
7.637050e+002,1.730024e-002
7.656335e+002,1.809505e-002
7.675621e+002,1.889544e-002
7.694907e+002,1.991077e-002
7.714192e+002,2.106906e-002
7.733478e+002,2.213715e-002
7.752763e+002,2.325995e-002
7.772048e+002,2.460950e-002
7.791334e+002,2.618569e-002
7.810620e+002,2.797882e-002
7.829905e+002,3.033482e-002
7.849191e+002,3.379236e-002
7.868476e+002,3.818994e-002
7.887761e+002,4.338829e-002
7.907047e+002,4.892718e-002
7.926332e+002,5.227592e-002
7.945618e+002,5.054083e-002
7.964904e+002,4.475043e-002
7.984189e+002,3.954060e-002
8.003474e+002,3.812118e-002
8.022760e+002,3.904046e-002
8.042045e+002,4.005702e-002
8.061331e+002,4.041089e-002
8.080616e+002,4.067342e-002
8.099902e+002,4.073266e-002
8.119187e+002,4.024045e-002
8.138473e+002,3.997135e-002
8.157758e+002,4.020039e-002
8.177043e+002,4.027273e-002
8.196329e+002,4.005579e-002
8.215615e+002,4.003668e-002
8.234900e+002,4.066007e-002
8.254186e+002,4.132057e-002
8.273471e+002,4.190534e-002
8.292756e+002,4.305401e-002
8.312042e+002,4.453939e-002
8.331328e+002,4.601251e-002
8.350613e+002,4.744131e-002
8.369899e+002,4.881835e-002
8.389184e+002,4.995867e-002
8.408469e+002,5.062485e-002
8.427755e+002,5.084617e-002
8.447040e+002,5.062619e-002
8.466326e+002,5.043003e-002
8.485612e+002,5.069332e-002
8.504896e+002,5.087716e-002
8.524182e+002,5.104307e-002
8.543468e+002,5.127676e-002
8.562753e+002,5.147815e-002
8.582039e+002,5.206026e-002
8.601324e+002,5.368640e-002
8.620609e+002,5.692944e-002
8.639895e+002,6.237152e-002
8.659181e+002,7.040355e-002
8.678466e+002,8.115351e-002
8.697751e+002,9.279851e-002
8.717037e+002,1.011196e-001
8.736322e+002,1.024013e-001
8.755608e+002,9.700993e-002
8.774894e+002,8.809794e-002
8.794178e+002,7.858940e-002
8.813464e+002,7.040862e-002
8.832750e+002,6.442856e-002
8.852035e+002,6.028328e-002
8.871321e+002,5.745558e-002
8.890607e+002,5.574507e-002
8.909891e+002,5.489888e-002
8.929177e+002,5.462799e-002
8.948463e+002,5.458538e-002
8.967748e+002,5.438926e-002
8.987034e+002,5.337977e-002
9.006320e+002,5.126923e-002
9.025604e+002,4.794742e-002
9.044890e+002,4.389384e-002
9.064176e+002,3.953211e-002
9.083461e+002,3.545604e-002
9.102747e+002,3.214135e-002
9.122032e+002,2.967039e-002
9.141317e+002,2.804155e-002
9.160603e+002,2.710644e-002
9.179889e+002,2.647042e-002
9.199174e+002,2.622792e-002
9.218459e+002,2.639221e-002
9.237745e+002,2.663146e-002
9.257030e+002,2.682989e-002
9.276316e+002,2.723720e-002
9.295602e+002,2.771358e-002
9.314886e+002,2.801759e-002
9.334172e+002,2.834852e-002
9.353458e+002,2.867481e-002
9.372743e+002,2.890452e-002
9.392029e+002,2.919845e-002
9.411315e+002,2.952649e-002
9.430599e+002,2.994582e-002
9.449885e+002,3.052168e-002
9.469171e+002,3.103933e-002
9.488456e+002,3.162730e-002
9.507742e+002,3.232071e-002
9.527028e+002,3.299013e-002
9.546312e+002,3.396166e-002
9.565598e+002,3.508319e-002
9.584884e+002,3.623274e-002
9.604169e+002,3.767733e-002
9.623455e+002,3.942503e-002
9.642740e+002,4.122314e-002
9.662025e+002,4.318344e-002
9.681311e+002,4.509296e-002
9.700597e+002,4.653902e-002
9.719882e+002,4.726324e-002
9.739167e+002,4.741396e-002
9.758453e+002,4.721241e-002
9.777738e+002,4.687902e-002
9.797024e+002,4.652485e-002
9.816310e+002,4.620717e-002
9.835594e+002,4.589406e-002
9.854880e+002,4.574052e-002
9.874166e+002,4.579339e-002
9.893451e+002,4.607065e-002
9.912737e+002,4.664569e-002
9.932023e+002,4.757187e-002
9.951307e+002,4.889006e-002
9.970593e+002,5.048801e-002
9.989879e+002,5.259000e-002
1.000916e+003,5.539731e-002
1.002845e+003,5.884021e-002
1.004774e+003,6.346642e-002
1.006702e+003,7.052974e-002
1.008631e+003,8.123324e-002
1.010559e+003,9.794984e-002
1.012488e+003,1.256985e-001
1.014416e+003,1.629308e-001
1.016345e+003,1.877076e-001
1.018273e+003,1.780099e-001
1.020202e+003,1.452909e-001
1.022130e+003,1.146241e-001
1.024059e+003,9.721665e-002
1.025988e+003,9.098851e-002
1.027916e+003,9.043701e-002
1.029845e+003,9.183994e-002
1.031773e+003,9.380920e-002
1.033702e+003,9.610622e-002
1.035630e+003,9.882353e-002
1.037559e+003,1.016126e-001
1.039487e+003,1.038391e-001
1.041416e+003,1.049206e-001
1.043344e+003,1.043114e-001
1.045273e+003,1.017144e-001
1.047202e+003,9.760008e-002
1.049130e+003,9.260027e-002
1.051059e+003,8.730364e-002
1.052987e+003,8.245640e-002
1.054916e+003,7.861850e-002
1.056844e+003,7.630612e-002
1.058773e+003,7.595082e-002
1.060701e+003,7.741040e-002
1.062630e+003,8.036920e-002
1.064558e+003,8.483255e-002
1.066487e+003,9.067444e-002
1.068416e+003,9.803508e-002
1.070344e+003,1.074487e-001
1.072273e+003,1.192181e-001
1.074201e+003,1.340462e-001
1.076130e+003,1.523907e-001
1.078058e+003,1.740370e-001
1.079987e+003,1.982152e-001
1.081915e+003,2.232932e-001
1.083844e+003,2.480534e-001
1.085773e+003,2.722327e-001
1.087701e+003,2.960288e-001
1.089630e+003,3.189631e-001
1.091558e+003,3.386682e-001
1.093487e+003,3.514043e-001
1.095415e+003,3.542794e-001
1.097344e+003,3.458803e-001
1.099272e+003,3.273134e-001
1.101201e+003,3.018311e-001
1.103129e+003,2.731835e-001
1.105058e+003,2.453094e-001
1.106987e+003,2.214392e-001
1.108915e+003,2.043551e-001
1.110844e+003,1.969712e-001
1.112772e+003,1.989282e-001
1.114701e+003,2.052980e-001
1.116629e+003,2.098569e-001
1.118558e+003,2.083598e-001
1.120486e+003,2.000358e-001
1.122415e+003,1.866084e-001
1.124344e+003,1.709095e-001
1.126272e+003,1.557207e-001
1.128201e+003,1.428350e-001
1.130129e+003,1.327882e-001
1.132058e+003,1.249508e-001
1.133986e+003,1.181723e-001
1.135915e+003,1.115357e-001
1.137843e+003,1.043881e-001
1.139772e+003,9.635289e-002
1.141700e+003,8.726875e-002
1.143629e+003,7.758015e-002
1.145557e+003,6.806183e-002
1.147486e+003,5.927858e-002
1.149415e+003,5.164631e-002
1.151343e+003,4.544232e-002
1.153272e+003,4.063438e-002
1.155200e+003,3.731903e-002
1.157129e+003,3.536811e-002
1.159057e+003,3.455113e-002
1.160986e+003,3.461646e-002
1.162914e+003,3.546924e-002
1.164843e+003,3.735023e-002
1.166771e+003,4.053561e-002
1.168700e+003,4.486798e-002
1.170629e+003,4.932867e-002
1.172557e+003,5.240218e-002
1.174486e+003,5.324071e-002
1.176414e+003,5.197185e-002
1.178343e+003,4.923703e-002
1.180271e+003,4.574472e-002
1.182200e+003,4.257477e-002
1.184128e+003,4.044955e-002
1.186057e+003,3.945376e-002
1.187986e+003,3.957497e-002
1.189914e+003,4.061794e-002
1.191843e+003,4.234677e-002
1.193771e+003,4.450404e-002
1.195700e+003,4.687890e-002
1.197628e+003,4.940789e-002
1.199557e+003,5.201827e-002
1.201485e+003,5.481132e-002
1.203414e+003,5.784872e-002
1.205343e+003,6.122477e-002
1.207271e+003,6.494825e-002
1.209200e+003,6.903631e-002
1.211128e+003,7.371090e-002
1.213057e+003,7.915392e-002
1.214985e+003,8.560810e-002
1.216914e+003,9.333901e-002
1.218842e+003,1.025084e-001
1.220771e+003,1.133357e-001
1.222699e+003,1.261611e-001
1.224628e+003,1.415478e-001
1.226557e+003,1.599657e-001
1.228485e+003,1.823019e-001
1.230414e+003,2.097670e-001
1.232342e+003,2.431424e-001
1.234271e+003,2.813028e-001
1.236199e+003,3.201392e-001
1.238128e+003,3.531790e-001
1.240056e+003,3.750461e-001
1.241985e+003,3.839709e-001
1.243913e+003,3.819874e-001
1.245842e+003,3.733115e-001
1.247771e+003,3.618180e-001
1.249699e+003,3.501892e-001
1.251628e+003,3.408549e-001
1.253556e+003,3.350365e-001
1.255485e+003,3.329820e-001
1.257413e+003,3.329114e-001
1.259342e+003,3.306926e-001
1.261270e+003,3.223244e-001
1.263199e+003,3.067688e-001
1.265127e+003,2.859585e-001
1.267056e+003,2.628621e-001
1.268985e+003,2.401466e-001
1.270913e+003,2.205003e-001
1.272842e+003,2.057416e-001
1.274770e+003,1.961809e-001
1.276699e+003,1.905009e-001
1.278627e+003,1.866869e-001
1.280556e+003,1.828828e-001
1.282484e+003,1.779642e-001
1.284413e+003,1.713862e-001
1.286342e+003,1.630523e-001
1.288270e+003,1.530667e-001
1.290199e+003,1.416871e-001
1.292127e+003,1.292743e-001
1.294056e+003,1.162386e-001
1.295984e+003,1.029380e-001
1.297913e+003,9.004974e-002
1.299841e+003,7.856963e-002
1.301770e+003,6.941371e-002
1.303698e+003,6.271779e-002
1.305627e+003,5.744113e-002
1.307556e+003,5.247901e-002
1.309484e+003,4.752063e-002
1.311413e+003,4.285755e-002
1.313341e+003,3.879029e-002
1.315270e+003,3.528796e-002
1.317198e+003,3.212101e-002
1.319127e+003,2.904822e-002
1.321055e+003,2.601574e-002
1.322984e+003,2.309827e-002
1.324912e+003,2.043842e-002
1.326841e+003,1.835255e-002
1.328770e+003,1.711432e-002
1.330698e+003,1.703465e-002
1.332627e+003,1.854010e-002
1.334555e+003,2.162947e-002
1.336484e+003,2.554592e-002
1.338412e+003,2.862056e-002
1.340341e+003,2.932201e-002
1.342269e+003,2.748912e-002
1.344198e+003,2.415693e-002
1.346126e+003,2.060391e-002
1.348055e+003,1.756420e-002
1.349984e+003,1.523388e-002
1.351912e+003,1.370699e-002
1.353841e+003,1.291139e-002
1.355769e+003,1.277467e-002
1.357698e+003,1.332057e-002
1.359626e+003,1.477890e-002
1.361555e+003,1.763407e-002
1.363483e+003,2.223943e-002
1.365412e+003,2.801123e-002
1.367341e+003,3.337489e-002
1.369269e+003,3.666840e-002
1.371198e+003,3.740140e-002
1.373126e+003,3.614598e-002
1.375055e+003,3.379476e-002
1.376983e+003,3.089063e-002
1.378912e+003,2.772442e-002
1.380840e+003,2.479686e-002
1.382769e+003,2.272844e-002
1.384698e+003,2.168868e-002
1.386626e+003,2.153855e-002
1.388555e+003,2.232610e-002
1.390483e+003,2.388095e-002
1.392412e+003,2.594799e-002
1.394340e+003,2.859883e-002
1.396269e+003,3.184014e-002
1.398197e+003,3.574023e-002
1.400126e+003,4.085929e-002
1.402054e+003,4.790850e-002
1.403983e+003,5.787241e-002
1.405911e+003,7.069530e-002
1.407840e+003,8.114868e-002
1.409769e+003,8.029373e-002
1.411697e+003,6.609999e-002
1.413626e+003,4.698334e-002
1.415554e+003,3.143137e-002
1.417483e+003,2.162968e-002
1.419411e+003,1.603265e-002
1.421340e+003,1.302353e-002
1.423268e+003,1.156461e-002
1.425197e+003,1.123014e-002
1.427125e+003,1.194787e-002
1.429054e+003,1.364900e-002
1.430983e+003,1.627403e-002
1.432911e+003,1.956631e-002
1.434840e+003,2.298901e-002
1.436768e+003,2.609898e-002
1.438697e+003,2.836405e-002
1.440625e+003,2.967235e-002
1.442554e+003,3.040730e-002
1.444482e+003,3.088988e-002
1.446411e+003,3.139601e-002
1.448340e+003,3.213332e-002
1.450268e+003,3.302781e-002
1.452197e+003,3.381772e-002
1.454125e+003,3.412048e-002
1.456054e+003,3.341933e-002
1.457982e+003,3.134778e-002
1.459911e+003,2.854267e-002
1.461839e+003,2.554603e-002
1.463768e+003,2.271587e-002
1.465697e+003,2.023425e-002
1.467625e+003,1.778582e-002
1.469554e+003,1.493731e-002
1.471482e+003,1.214678e-002
1.473411e+003,1.010647e-002
1.475339e+003,8.743970e-003
1.477268e+003,7.611226e-003
1.479196e+003,6.518864e-003
1.481125e+003,5.346581e-003
1.483053e+003,4.256782e-003
1.484982e+003,3.450800e-003
1.486911e+003,2.893438e-003
1.488839e+003,2.481659e-003
1.490768e+003,2.340656e-003
1.492696e+003,2.566210e-003
1.494625e+003,3.200451e-003
1.496553e+003,4.531813e-003
1.498482e+003,6.958227e-003
1.500410e+003,1.122779e-002
1.502339e+003,1.716120e-002
1.504267e+003,2.094394e-002
1.506196e+003,1.878205e-002
1.508125e+003,1.303022e-002
1.510053e+003,8.328095e-003
1.511982e+003,5.809641e-003
1.513910e+003,4.639871e-003
1.515839e+003,4.183677e-003
1.517767e+003,4.184313e-003
1.519696e+003,4.313601e-003
1.521624e+003,4.566367e-003
1.523553e+003,4.846084e-003
1.525481e+003,5.035501e-003
1.527410e+003,5.141975e-003
1.529339e+003,5.136242e-003
1.531267e+003,5.087226e-003
1.533196e+003,5.035936e-003
1.535124e+003,5.083940e-003
1.537053e+003,5.221311e-003
1.538981e+003,5.398813e-003
1.540910e+003,5.567931e-003
1.542838e+003,5.680947e-003
1.544767e+003,5.668527e-003
1.546696e+003,5.653253e-003
1.548624e+003,5.759643e-003
1.550553e+003,5.976937e-003
1.552481e+003,6.197767e-003
1.554410e+003,6.414675e-003
1.556338e+003,6.669509e-003
1.558267e+003,6.977149e-003
1.560195e+003,7.323893e-003
1.562124e+003,7.750950e-003
1.564052e+003,8.380382e-003
1.565981e+003,9.248677e-003
1.567910e+003,1.027424e-002
1.569838e+003,1.160807e-002
1.571767e+003,1.351088e-002
1.573695e+003,1.609516e-002
1.575624e+003,1.907270e-002
1.577552e+003,2.109519e-002
1.579481e+003,2.050097e-002
1.581409e+003,1.743035e-002
1.583338e+003,1.364671e-002
1.585266e+003,1.087415e-002
1.587195e+003,9.471516e-003
1.589124e+003,8.857038e-003
1.591052e+003,8.530661e-003
1.592981e+003,8.437406e-003
1.594909e+003,8.557728e-003
1.596838e+003,8.802461e-003
1.598766e+003,9.175844e-003
1.600695e+003,9.723406e-003
1.602623e+003,1.039344e-002
1.604552e+003,1.119536e-002
1.606480e+003,1.213322e-002
1.608409e+003,1.320418e-002
1.610338e+003,1.433300e-002
1.612266e+003,1.530379e-002
1.614195e+003,1.569606e-002
1.616123e+003,1.515520e-002
1.618052e+003,1.407329e-002
1.619980e+003,1.329761e-002
1.621909e+003,1.302056e-002
1.623837e+003,1.309251e-002
1.625766e+003,1.324927e-002
1.627695e+003,1.360517e-002
1.629623e+003,1.408773e-002
1.631552e+003,1.447274e-002
1.633480e+003,1.487068e-002
1.635409e+003,1.533660e-002
1.637337e+003,1.578422e-002
1.639266e+003,1.627919e-002
1.641194e+003,1.678606e-002
1.643123e+003,1.735924e-002
1.645052e+003,1.799800e-002
1.646980e+003,1.872026e-002
1.648909e+003,1.943770e-002
1.650837e+003,2.022564e-002
1.652766e+003,2.098563e-002
1.654694e+003,2.190779e-002
1.656623e+003,2.299831e-002
1.658551e+003,2.415959e-002
1.660480e+003,2.542315e-002
1.662408e+003,2.681547e-002
1.664337e+003,2.836981e-002
1.666266e+003,3.010673e-002
1.668194e+003,3.188624e-002
1.670123e+003,3.372106e-002
1.672051e+003,3.561991e-002
1.673980e+003,3.767585e-002
1.675908e+003,4.000510e-002
1.677837e+003,4.248041e-002
1.679765e+003,4.504896e-002
1.681694e+003,4.770202e-002
1.683622e+003,5.032498e-002
1.685551e+003,5.299443e-002
1.687479e+003,5.575102e-002
1.689408e+003,5.901201e-002
1.691337e+003,6.311492e-002
1.693265e+003,6.831688e-002
1.695194e+003,7.489815e-002
1.697122e+003,8.344959e-002
1.699051e+003,9.409995e-002
1.700979e+003,1.081677e-001
1.702908e+003,1.259050e-001
1.704836e+003,1.485444e-001
1.706765e+003,1.771210e-001
1.708694e+003,2.110801e-001
1.710622e+003,2.475126e-001
1.712551e+003,2.809019e-001
1.714479e+003,3.044764e-001
1.716408e+003,3.148858e-001
1.718336e+003,3.118939e-001
1.720265e+003,2.990972e-001
1.722193e+003,2.797118e-001
1.724122e+003,2.568928e-001
1.726051e+003,2.324976e-001
1.727979e+003,2.080903e-001
1.729908e+003,1.842716e-001
1.731836e+003,1.617639e-001
1.733765e+003,1.399106e-001
1.735693e+003,1.192631e-001
1.737622e+003,1.006008e-001
1.739550e+003,8.341824e-002
1.741479e+003,6.819555e-002
1.743407e+003,5.555035e-002
1.745336e+003,4.531240e-002
1.747265e+003,3.720777e-002
1.749193e+003,3.079565e-002
1.751122e+003,2.547744e-002
1.753050e+003,2.098094e-002
1.754979e+003,1.724062e-002
1.756907e+003,1.404355e-002
1.758836e+003,1.145060e-002
1.760764e+003,9.402302e-003
1.762693e+003,7.763869e-003
1.764621e+003,6.565855e-003
1.766550e+003,5.624620e-003
1.768479e+003,4.817706e-003
1.770407e+003,4.154874e-003
1.772336e+003,3.648964e-003
1.774264e+003,3.221213e-003
1.776193e+003,2.798119e-003
1.778121e+003,2.495356e-003
1.780050e+003,2.328397e-003
1.781978e+003,2.081224e-003
1.783907e+003,1.776997e-003
1.785835e+003,1.564688e-003
1.787764e+003,1.457558e-003
1.789693e+003,1.327189e-003
1.791621e+003,1.226729e-003
1.793550e+003,1.104635e-003
1.795478e+003,9.231670e-004
1.797407e+003,8.103527e-004
1.799335e+003,7.688266e-004
1.801264e+003,7.449616e-004
1.803192e+003,7.156219e-004
1.805121e+003,7.038400e-004
1.807049e+003,7.156219e-004
1.808978e+003,6.593375e-004
1.810907e+003,5.876651e-004
1.812835e+003,6.072743e-004
1.814764e+003,6.808415e-004
1.816692e+003,7.537573e-004
1.818621e+003,8.044770e-004
1.820549e+003,7.954148e-004
1.822478e+003,7.265410e-004
1.824406e+003,6.393277e-004
1.826335e+003,5.945000e-004
1.828264e+003,5.032662e-004
1.830192e+003,3.205244e-004
1.832121e+003,1.964299e-004
1.834049e+003,1.279162e-004
1.835978e+003,2.266428e-005
1.837906e+003,-8.163460e-005
1.839835e+003,-1.673609e-004
1.841763e+003,-3.137654e-004
1.843692e+003,-4.545930e-004
1.845620e+003,-5.137375e-004
1.847549e+003,-5.733704e-004
1.849478e+003,-6.698180e-004
1.851406e+003,-7.989216e-004
1.853335e+003,-8.745863e-004
1.855263e+003,-9.866704e-004
1.857192e+003,-1.080415e-003
1.859120e+003,-1.076251e-003
1.861049e+003,-1.064947e-003
1.862977e+003,-1.102427e-003
1.864906e+003,-1.135410e-003
1.866834e+003,-1.136831e-003
1.868763e+003,-1.054700e-003
1.870692e+003,-1.001679e-003
1.872620e+003,-9.908357e-004
1.874549e+003,-1.020521e-003
1.876477e+003,-1.040983e-003
1.878406e+003,-9.595612e-004
1.880334e+003,-8.693617e-004
1.882263e+003,-8.556714e-004
1.884191e+003,-8.007076e-004
1.886120e+003,-7.178518e-004
1.888048e+003,-6.430861e-004
1.889977e+003,-6.026212e-004
1.891906e+003,-5.157563e-004
1.893834e+003,-4.016638e-004
1.895763e+003,-3.557470e-004
1.897691e+003,-2.885679e-004
1.899620e+003,-2.033622e-004
1.901548e+003,-1.483158e-004
1.903477e+003,-2.726846e-005
1.905405e+003,1.208567e-004
1.907334e+003,2.291492e-004
1.909263e+003,3.046418e-004
1.911191e+003,3.620077e-004
1.913120e+003,3.950711e-004
1.915048e+003,4.834627e-004
1.916977e+003,6.280458e-004
1.918905e+003,7.166175e-004
1.920834e+003,7.733408e-004
1.922762e+003,8.840871e-004
1.924691e+003,1.023224e-003
1.926620e+003,1.169415e-003
1.928548e+003,1.247298e-003
1.930477e+003,1.401842e-003
1.932405e+003,1.583742e-003
1.934334e+003,1.727295e-003
1.936262e+003,1.922078e-003
1.938191e+003,2.145351e-003
1.940119e+003,2.242959e-003
1.942048e+003,2.319336e-003
1.943976e+003,2.507153e-003
1.945905e+003,2.669914e-003
1.947833e+003,2.770641e-003
1.949762e+003,2.807957e-003
1.951691e+003,2.763338e-003
1.953619e+003,2.717590e-003
1.955548e+003,2.711422e-003
1.957476e+003,2.638777e-003
1.959405e+003,2.464531e-003
1.961333e+003,2.336292e-003
1.963262e+003,2.261544e-003
1.965190e+003,2.134630e-003
1.967119e+003,1.993206e-003
1.969047e+003,1.887268e-003
1.970976e+003,1.839350e-003
1.972905e+003,1.779792e-003
1.974833e+003,1.685881e-003
1.976762e+003,1.699619e-003
1.978690e+003,1.694030e-003
1.980619e+003,1.579685e-003
1.982547e+003,1.482758e-003
1.984476e+003,1.484055e-003
1.986404e+003,1.507329e-003
1.988333e+003,1.478702e-003
1.990262e+003,1.381798e-003
1.992190e+003,1.274414e-003
1.994119e+003,1.162671e-003
1.996047e+003,1.128320e-003
1.997976e+003,1.152339e-003
1.999904e+003,1.151807e-003
2.001833e+003,1.104967e-003
2.003761e+003,1.049662e-003
2.005690e+003,9.744047e-004
2.007619e+003,9.157293e-004
2.009547e+003,8.915907e-004
2.011476e+003,8.469361e-004
2.013404e+003,7.648102e-004
2.015333e+003,7.275036e-004
2.017261e+003,6.926227e-004
2.019190e+003,6.853216e-004
2.021118e+003,6.813725e-004
2.023047e+003,6.171954e-004
2.024975e+003,5.917794e-004
2.026904e+003,5.803326e-004
2.028833e+003,4.820695e-004
2.030761e+003,4.604758e-004
2.032690e+003,4.636601e-004
2.034618e+003,4.291653e-004
2.036547e+003,4.653849e-004
2.038475e+003,5.443356e-004
2.040404e+003,5.582696e-004
2.042332e+003,5.600943e-004
2.044261e+003,5.882292e-004
2.046189e+003,6.857531e-004
2.048118e+003,7.598646e-004
2.050046e+003,7.693244e-004
2.051975e+003,7.667354e-004
2.053904e+003,8.270837e-004
2.055832e+003,9.115456e-004
2.057761e+003,9.433559e-004
2.059689e+003,9.774267e-004
2.061618e+003,1.005356e-003
2.063546e+003,1.066468e-003
2.065475e+003,1.155827e-003
2.067403e+003,1.191310e-003
2.069332e+003,1.193802e-003
2.071260e+003,1.157522e-003
2.073189e+003,1.147422e-003
2.075118e+003,1.230484e-003
2.077046e+003,1.308212e-003
2.078975e+003,1.376513e-003
2.080903e+003,1.414706e-003
2.082832e+003,1.388346e-003
2.084760e+003,1.388745e-003
2.086689e+003,1.440636e-003
2.088617e+003,1.536423e-003
2.090546e+003,1.577890e-003
2.092475e+003,1.584374e-003
2.094403e+003,1.569077e-003
2.096332e+003,1.594517e-003
2.098260e+003,1.716251e-003
2.100189e+003,1.755007e-003
2.102117e+003,1.704475e-003
2.104046e+003,1.710163e-003
2.105974e+003,1.765020e-003
2.107903e+003,1.808439e-003
2.109832e+003,1.782620e-003
2.111760e+003,1.721241e-003
2.113688e+003,1.732618e-003
2.115617e+003,1.812631e-003
2.117546e+003,1.834924e-003
2.119474e+003,1.823145e-003
2.121403e+003,1.804579e-003
2.123331e+003,1.808838e-003
2.125260e+003,1.770809e-003
2.127188e+003,1.718979e-003
2.129117e+003,1.720575e-003
2.131045e+003,1.746789e-003
2.132974e+003,1.763357e-003
2.134903e+003,1.723569e-003
2.136831e+003,1.677499e-003
2.138760e+003,1.693997e-003
2.140688e+003,1.679627e-003
2.142617e+003,1.614405e-003
2.144545e+003,1.601102e-003
2.146474e+003,1.605292e-003
2.148402e+003,1.483490e-003
2.150331e+003,1.337193e-003
2.152260e+003,1.308345e-003
2.154188e+003,1.276840e-003
2.156117e+003,1.287973e-003
2.158045e+003,1.271622e-003
2.159974e+003,1.185496e-003
2.161902e+003,1.150512e-003
2.163831e+003,1.142206e-003
2.165759e+003,1.081715e-003
2.167688e+003,9.619517e-004
2.169616e+003,9.378105e-004
2.171545e+003,9.825409e-004
2.173474e+003,9.531518e-004
2.175402e+003,9.075612e-004
2.177331e+003,9.215400e-004
2.179259e+003,8.787417e-004
2.181188e+003,8.416243e-004
2.183116e+003,7.990994e-004
2.185045e+003,8.145354e-004
2.186973e+003,9.069635e-004
2.188902e+003,9.521224e-004
2.190831e+003,8.783432e-004
2.192759e+003,8.931180e-004
2.194688e+003,9.670989e-004
2.196616e+003,1.010936e-003
2.198545e+003,1.081681e-003
2.200473e+003,1.116461e-003
2.202402e+003,1.107259e-003
2.204330e+003,1.152804e-003
2.206259e+003,1.217226e-003
2.208188e+003,1.257400e-003
2.210116e+003,1.318315e-003
2.212044e+003,1.375183e-003
2.213973e+003,1.419792e-003
2.215902e+003,1.486183e-003
2.217830e+003,1.521094e-003
2.219759e+003,1.567947e-003
2.221687e+003,1.677598e-003
2.223616e+003,1.740302e-003
2.225544e+003,1.654881e-003
2.227473e+003,1.530471e-003
2.229401e+003,1.516273e-003
2.231330e+003,1.582479e-003
2.233259e+003,1.663761e-003
2.235187e+003,1.695095e-003
2.237116e+003,1.657708e-003
2.239044e+003,1.709465e-003
2.240973e+003,1.814062e-003
2.242901e+003,1.848800e-003
2.244830e+003,1.873058e-003
2.246758e+003,1.905738e-003
2.248687e+003,1.887867e-003
2.250615e+003,1.946008e-003
2.252544e+003,1.993073e-003
2.254473e+003,2.024296e-003
2.256401e+003,2.054957e-003
2.258330e+003,2.106994e-003
2.260258e+003,2.158072e-003
2.262187e+003,2.137759e-003
2.264115e+003,2.138992e-003
2.266044e+003,2.190972e-003
2.267972e+003,2.262677e-003
2.269901e+003,2.312274e-003
2.271830e+003,2.328896e-003
2.273758e+003,2.327597e-003
2.275687e+003,2.391328e-003
2.277615e+003,2.520217e-003
2.279544e+003,2.618742e-003
2.281472e+003,2.714456e-003
2.283401e+003,2.792683e-003
2.285329e+003,2.855248e-003
2.287258e+003,2.880997e-003
2.289187e+003,2.868623e-003
2.291115e+003,2.885733e-003
2.293043e+003,2.913986e-003
2.294972e+003,2.899376e-003
2.296901e+003,2.896140e-003
2.298829e+003,2.850479e-003
2.300758e+003,2.802387e-003
2.302686e+003,2.798819e-003
2.304615e+003,2.854281e-003
2.306543e+003,2.926495e-003
2.308472e+003,2.931365e-003
2.310400e+003,2.914253e-003
2.312329e+003,2.913419e-003
2.314258e+003,2.984409e-003
2.316186e+003,3.044131e-003
2.318115e+003,3.075231e-003
2.320043e+003,3.077366e-003
2.321972e+003,3.032553e-003
2.323900e+003,3.020208e-003
2.325829e+003,2.998488e-003
2.327757e+003,2.969095e-003
2.329686e+003,3.014402e-003
2.331615e+003,3.126823e-003
2.333543e+003,3.155358e-003
2.335472e+003,3.101627e-003
2.337400e+003,3.050138e-003
2.339329e+003,3.007763e-003
2.341257e+003,2.961489e-003
2.343186e+003,2.897674e-003
2.345114e+003,2.891470e-003
2.347043e+003,3.027448e-003
2.348971e+003,3.142208e-003
2.350900e+003,3.190971e-003
2.352829e+003,3.208629e-003
2.354757e+003,3.254295e-003
2.356686e+003,3.260805e-003
2.358614e+003,3.346609e-003
2.360543e+003,3.407985e-003
2.362471e+003,3.400371e-003
2.364400e+003,3.492216e-003
2.366328e+003,3.578200e-003
2.368257e+003,3.604693e-003
2.370186e+003,3.630888e-003
2.372114e+003,3.686222e-003
2.374042e+003,3.739057e-003
2.375971e+003,3.759611e-003
2.377900e+003,3.764223e-003
2.379828e+003,3.747512e-003
2.381757e+003,3.722714e-003
2.383685e+003,3.763989e-003
2.385614e+003,3.847854e-003
2.387542e+003,3.830104e-003
2.389471e+003,3.752024e-003
2.391399e+003,3.737152e-003
2.393328e+003,3.724719e-003
2.395257e+003,3.698219e-003
2.397185e+003,3.665604e-003
2.399114e+003,3.609003e-003
2.401042e+003,3.539081e-003
2.402971e+003,3.514629e-003
2.404899e+003,3.450132e-003
2.406828e+003,3.443753e-003
2.408756e+003,3.493585e-003
2.410685e+003,3.462256e-003
2.412614e+003,3.408787e-003
2.414542e+003,3.428257e-003
2.416471e+003,3.406316e-003
2.418399e+003,3.310549e-003
2.420328e+003,3.262607e-003
2.422256e+003,3.223016e-003
2.424185e+003,3.188468e-003
2.426113e+003,3.143143e-003
2.428042e+003,3.080803e-003
2.429970e+003,3.083673e-003
2.431899e+003,3.110103e-003
2.433828e+003,3.087344e-003
2.435756e+003,3.051706e-003
2.437685e+003,2.960121e-003
2.439613e+003,2.870657e-003
2.441542e+003,2.854147e-003
2.443470e+003,2.791949e-003
2.445399e+003,2.717257e-003
2.447327e+003,2.681482e-003
2.449256e+003,2.698186e-003
2.451185e+003,2.714523e-003
2.453113e+003,2.649011e-003
2.455042e+003,2.594509e-003
2.456970e+003,2.560311e-003
2.458899e+003,2.533581e-003
2.460827e+003,2.515151e-003
2.462756e+003,2.511452e-003
2.464684e+003,2.507620e-003
2.466613e+003,2.506953e-003
2.468542e+003,2.480926e-003
2.470470e+003,2.422280e-003
2.472398e+003,2.458767e-003
2.474327e+003,2.523416e-003
2.476256e+003,2.512485e-003
2.478184e+003,2.552845e-003
2.480113e+003,2.570343e-003
2.482041e+003,2.592842e-003
2.483970e+003,2.663046e-003
2.485898e+003,2.703453e-003
2.487827e+003,2.744631e-003
2.489755e+003,2.793150e-003
2.491684e+003,2.822964e-003
2.493613e+003,2.869223e-003
2.495541e+003,2.937136e-003
2.497470e+003,2.986143e-003
2.499398e+003,2.979337e-003
2.501327e+003,3.011533e-003
2.503255e+003,3.097289e-003
2.505184e+003,3.138637e-003
2.507112e+003,3.201786e-003
2.509041e+003,3.312386e-003
2.510969e+003,3.375460e-003
2.512898e+003,3.386847e-003
2.514827e+003,3.443385e-003
2.516755e+003,3.477653e-003
2.518684e+003,3.461287e-003
2.520612e+003,3.443319e-003
2.522541e+003,3.452336e-003
2.524469e+003,3.565472e-003
2.526398e+003,3.653274e-003
2.528326e+003,3.645289e-003
2.530255e+003,3.577131e-003
2.532184e+003,3.527322e-003
2.534112e+003,3.556719e-003
2.536041e+003,3.628983e-003
2.537969e+003,3.728696e-003
2.539898e+003,3.744437e-003
2.541826e+003,3.689497e-003
2.543755e+003,3.708745e-003
2.545683e+003,3.745473e-003
2.547612e+003,3.812621e-003
2.549541e+003,3.873261e-003
2.551469e+003,3.914817e-003
2.553397e+003,3.926820e-003
2.555326e+003,3.894022e-003
2.557255e+003,3.820243e-003
2.559183e+003,3.843040e-003
2.561112e+003,3.878242e-003
2.563040e+003,3.884494e-003
2.564969e+003,3.923109e-003
2.566897e+003,3.948119e-003
2.568826e+003,4.017740e-003
2.570754e+003,4.072387e-003
2.572683e+003,4.045731e-003
2.574612e+003,4.025899e-003
2.576540e+003,4.020749e-003
2.578469e+003,4.094897e-003
2.580397e+003,4.150023e-003
2.582326e+003,4.183309e-003
2.584254e+003,4.233093e-003
2.586183e+003,4.273378e-003
2.588111e+003,4.299814e-003
2.590040e+003,4.330434e-003
2.591969e+003,4.291582e-003
2.593897e+003,4.284655e-003
2.595826e+003,4.391983e-003
2.597754e+003,4.447079e-003
2.599683e+003,4.436803e-003
2.601611e+003,4.472153e-003
2.603540e+003,4.545373e-003
2.605468e+003,4.605412e-003
2.607397e+003,4.614587e-003
2.609325e+003,4.595834e-003
2.611254e+003,4.598245e-003
2.613183e+003,4.679123e-003
2.615111e+003,4.716168e-003
2.617040e+003,4.716369e-003
2.618968e+003,4.727691e-003
2.620897e+003,4.719987e-003
2.622825e+003,4.738912e-003
2.624754e+003,4.820788e-003
2.626682e+003,4.907840e-003
2.628611e+003,4.969672e-003
2.630540e+003,4.988273e-003
2.632468e+003,4.929153e-003
2.634396e+003,4.887399e-003
2.636325e+003,4.881502e-003
2.638254e+003,4.929656e-003
2.640182e+003,4.957305e-003
2.642111e+003,4.945910e-003
2.644039e+003,4.940782e-003
2.645968e+003,4.911694e-003
2.647896e+003,4.927377e-003
2.649825e+003,4.981603e-003
2.651753e+003,5.013981e-003
2.653682e+003,4.997289e-003
2.655611e+003,4.948155e-003
2.657539e+003,4.923222e-003
2.659468e+003,4.934381e-003
2.661396e+003,5.006339e-003
2.663325e+003,5.072442e-003
2.665253e+003,5.065637e-003
2.667182e+003,5.106872e-003
2.669110e+003,5.108716e-003
2.671039e+003,5.022126e-003
2.672968e+003,4.949898e-003
2.674896e+003,4.884920e-003
2.676825e+003,4.916252e-003
2.678753e+003,4.989077e-003
2.680682e+003,4.978486e-003
2.682610e+003,4.939107e-003
2.684539e+003,4.949898e-003
2.686467e+003,4.992697e-003
2.688396e+003,5.029802e-003
2.690324e+003,5.016394e-003
2.692253e+003,4.992630e-003
2.694182e+003,5.024305e-003
2.696110e+003,5.033758e-003
2.698039e+003,5.031009e-003
2.699967e+003,5.118338e-003
2.701896e+003,5.183117e-003
2.703824e+003,5.133291e-003
2.705753e+003,5.054139e-003
2.707681e+003,5.093528e-003
2.709610e+003,5.151631e-003
2.711539e+003,5.115019e-003
2.713467e+003,5.176745e-003
2.715396e+003,5.238850e-003
2.717324e+003,5.206120e-003
2.719253e+003,5.229561e-003
2.721181e+003,5.282013e-003
2.723110e+003,5.301366e-003
2.725038e+003,5.312334e-003
2.726967e+003,5.220506e-003
2.728896e+003,5.103586e-003
2.730824e+003,5.141137e-003
2.732752e+003,5.179998e-003
2.734681e+003,5.117701e-003
2.736610e+003,5.086254e-003
2.738538e+003,5.095574e-003
2.740467e+003,5.055346e-003
2.742395e+003,5.083940e-003
2.744324e+003,5.190829e-003
2.746252e+003,5.246396e-003
2.748181e+003,5.240561e-003
2.750109e+003,5.293383e-003
2.752038e+003,5.412300e-003
2.753967e+003,5.519068e-003
2.755895e+003,5.524169e-003
2.757824e+003,5.456588e-003
2.759752e+003,5.455011e-003
2.761681e+003,5.504504e-003
2.763609e+003,5.569173e-003
2.765538e+003,5.547056e-003
2.767466e+003,5.475680e-003
2.769395e+003,5.512256e-003
2.771323e+003,5.602567e-003
2.773252e+003,5.671246e-003
2.775181e+003,5.727512e-003
2.777109e+003,5.723886e-003
2.779038e+003,5.660872e-003
2.780966e+003,5.698572e-003
2.782895e+003,5.764781e-003
2.784823e+003,5.802287e-003
2.786752e+003,5.847790e-003
2.788680e+003,5.875128e-003
2.790609e+003,5.911099e-003
2.792538e+003,5.957184e-003
2.794466e+003,6.036535e-003
2.796395e+003,6.101619e-003
2.798323e+003,6.062406e-003
2.800252e+003,6.000419e-003
2.802180e+003,6.023029e-003
2.804109e+003,6.132400e-003
2.806037e+003,6.161402e-003
2.807966e+003,6.151320e-003
2.809895e+003,6.144801e-003
2.811823e+003,6.112170e-003
2.813751e+003,6.160294e-003
2.815680e+003,6.292626e-003
2.817609e+003,6.422174e-003
2.819537e+003,6.606089e-003
2.821466e+003,6.830438e-003
2.823394e+003,7.029813e-003
2.825323e+003,7.314627e-003
2.827251e+003,7.732163e-003
2.829180e+003,8.151923e-003
2.831108e+003,8.455887e-003
2.833037e+003,8.930494e-003
2.834966e+003,9.573562e-003
2.836894e+003,1.019774e-002
2.838823e+003,1.097999e-002
2.840751e+003,1.203943e-002
2.842680e+003,1.341611e-002
2.844608e+003,1.533245e-002
2.846537e+003,1.777761e-002
2.848465e+003,2.045606e-002
2.850394e+003,2.305665e-002
2.852323e+003,2.515325e-002
2.854251e+003,2.606305e-002
2.856180e+003,2.564236e-002
2.858108e+003,2.426578e-002
2.860037e+003,2.237487e-002
2.861965e+003,2.048798e-002
2.863894e+003,1.897481e-002
2.865822e+003,1.790904e-002
2.867751e+003,1.729951e-002
2.869679e+003,1.699705e-002
2.871608e+003,1.672676e-002
2.873537e+003,1.631143e-002
2.875465e+003,1.583841e-002
2.877394e+003,1.540344e-002
2.879322e+003,1.512449e-002
2.881251e+003,1.499987e-002
2.883179e+003,1.510840e-002
2.885108e+003,1.546156e-002
2.887036e+003,1.596613e-002
2.888965e+003,1.646981e-002
2.890894e+003,1.693304e-002
2.892822e+003,1.746436e-002
2.894750e+003,1.804369e-002
2.896679e+003,1.858706e-002
2.898608e+003,1.906294e-002
2.900536e+003,1.964028e-002
2.902465e+003,2.044242e-002
2.904393e+003,2.136021e-002
2.906322e+003,2.238976e-002
2.908250e+003,2.356660e-002
2.910179e+003,2.492882e-002
2.912107e+003,2.665094e-002
2.914036e+003,2.873506e-002
2.915965e+003,3.110197e-002
2.917893e+003,3.368611e-002
2.919822e+003,3.595834e-002
2.921750e+003,3.763469e-002
2.923679e+003,3.882239e-002
2.925607e+003,3.919658e-002
2.927536e+003,3.870063e-002
2.929464e+003,3.759321e-002
2.931393e+003,3.598692e-002
2.933322e+003,3.414532e-002
2.935250e+003,3.230272e-002
2.937179e+003,3.049612e-002
2.939107e+003,2.886351e-002
2.941036e+003,2.747232e-002
2.942964e+003,2.650592e-002
2.944893e+003,2.601524e-002
2.946821e+003,2.595090e-002
2.948750e+003,2.617900e-002
2.950678e+003,2.658176e-002
2.952607e+003,2.706045e-002
2.954536e+003,2.737456e-002
2.956464e+003,2.746470e-002
2.958393e+003,2.723953e-002
2.960321e+003,2.653988e-002
2.962250e+003,2.546732e-002
2.964178e+003,2.425576e-002
2.966107e+003,2.289159e-002
2.968035e+003,2.142969e-002
2.969964e+003,2.007616e-002
2.971893e+003,1.882883e-002
2.973821e+003,1.768173e-002
2.975750e+003,1.672293e-002
2.977678e+003,1.593698e-002
2.979607e+003,1.525643e-002
2.981535e+003,1.460787e-002
2.983464e+003,1.403882e-002
2.985392e+003,1.359019e-002
2.987321e+003,1.310893e-002
2.989250e+003,1.265072e-002
2.991178e+003,1.235328e-002
2.993106e+003,1.219667e-002
2.995035e+003,1.210235e-002
2.996964e+003,1.207172e-002
2.998892e+003,1.209577e-002
3.000821e+003,1.221592e-002
3.002749e+003,1.234524e-002
3.004678e+003,1.248104e-002
3.006606e+003,1.256490e-002
3.008535e+003,1.252684e-002
3.010463e+003,1.233948e-002
3.012392e+003,1.194191e-002
3.014321e+003,1.148574e-002
3.016249e+003,1.103399e-002
3.018178e+003,1.054214e-002
3.020106e+003,1.002278e-002
3.022035e+003,9.562791e-003
3.023963e+003,9.277414e-003
3.025892e+003,9.031330e-003
3.027820e+003,8.723821e-003
3.029749e+003,8.568711e-003
3.031677e+003,8.539379e-003
3.033606e+003,8.477037e-003
3.035535e+003,8.489673e-003
3.037463e+003,8.493153e-003
3.039392e+003,8.380754e-003
3.041320e+003,8.317321e-003
3.043249e+003,8.420447e-003
3.045177e+003,8.551950e-003
3.047106e+003,8.854603e-003
3.049034e+003,9.161258e-003
3.050963e+003,9.284184e-003
3.052892e+003,9.371018e-003
3.054820e+003,9.395937e-003
3.056749e+003,9.300466e-003
3.058677e+003,9.258357e-003
3.060606e+003,9.191817e-003
3.062534e+003,9.124814e-003
3.064463e+003,9.166097e-003
3.066391e+003,9.182882e-003
3.068320e+003,9.148433e-003
3.070249e+003,9.140954e-003
3.072177e+003,9.078695e-003
3.074105e+003,8.965806e-003
3.076034e+003,8.961510e-003
3.077963e+003,9.076294e-003
3.079891e+003,9.087290e-003
3.081820e+003,9.043070e-003
3.083748e+003,8.950889e-003
3.085677e+003,8.726998e-003
3.087605e+003,8.574354e-003
3.089534e+003,8.416055e-003
3.091462e+003,8.325494e-003
3.093391e+003,8.356805e-003
3.095320e+003,8.374201e-003
3.097248e+003,8.363831e-003
3.099177e+003,8.437608e-003
3.101105e+003,8.530356e-003
3.103034e+003,8.666894e-003
3.104962e+003,8.661283e-003
3.106891e+003,8.519880e-003
3.108819e+003,8.412778e-003
3.110748e+003,8.329581e-003
3.112677e+003,8.212158e-003
3.114605e+003,8.081636e-003
3.116534e+003,7.938803e-003
3.118462e+003,7.875671e-003
3.120391e+003,7.906409e-003
3.122319e+003,7.968567e-003
3.124248e+003,7.919164e-003
3.126176e+003,7.862175e-003
3.128105e+003,7.959658e-003
3.130033e+003,7.912483e-003
3.131962e+003,7.793115e-003
3.133891e+003,7.724911e-003
3.135819e+003,7.697220e-003
3.137748e+003,7.744676e-003
3.139676e+003,7.718334e-003
3.141605e+003,7.593220e-003
3.143533e+003,7.455165e-003
3.145462e+003,7.466660e-003
3.147390e+003,7.478020e-003
3.149319e+003,7.443637e-003
3.151248e+003,7.376836e-003
3.153176e+003,7.328611e-003
3.155104e+003,7.261321e-003
3.157033e+003,7.301216e-003
3.158962e+003,7.343910e-003
3.160890e+003,7.371983e-003
3.162819e+003,7.433997e-003
3.164747e+003,7.488537e-003
3.166676e+003,7.511360e-003
3.168604e+003,7.523800e-003
3.170533e+003,7.617700e-003
3.172461e+003,7.653614e-003
3.174390e+003,7.518877e-003
3.176319e+003,7.362647e-003
3.178247e+003,7.391496e-003
3.180176e+003,7.498111e-003
3.182104e+003,7.580239e-003
3.184033e+003,7.674355e-003
3.185961e+003,7.694118e-003
3.187890e+003,7.597806e-003
3.189818e+003,7.519855e-003
3.191747e+003,7.483278e-003
3.193676e+003,7.504314e-003
3.195604e+003,7.490661e-003
3.197532e+003,7.454996e-003
3.199461e+003,7.510079e-003
3.201390e+003,7.526564e-003
3.203318e+003,7.440469e-003
3.205247e+003,7.522721e-003
3.207175e+003,7.629368e-003
3.209104e+003,7.534318e-003
3.211032e+003,7.422436e-003
3.212961e+003,7.335722e-003
3.214889e+003,7.295083e-003
3.216818e+003,7.390485e-003
3.218747e+003,7.441649e-003
3.220675e+003,7.530677e-003
3.222604e+003,7.531385e-003
3.224532e+003,7.472356e-003
3.226461e+003,7.541938e-003
3.228389e+003,7.534554e-003
3.230318e+003,7.524642e-003
3.232246e+003,7.559773e-003
3.234175e+003,7.646802e-003
3.236104e+003,7.692026e-003
3.238032e+003,7.639620e-003
3.239961e+003,7.546927e-003
3.241889e+003,7.439390e-003
3.243818e+003,7.447143e-003
3.245746e+003,7.484863e-003
3.247675e+003,7.456615e-003
3.249603e+003,7.416504e-003
3.251532e+003,7.439828e-003
3.253460e+003,7.541331e-003
3.255389e+003,7.581554e-003
3.257318e+003,7.516619e-003
3.259246e+003,7.421728e-003
3.261175e+003,7.456277e-003
3.263103e+003,7.531317e-003
3.265032e+003,7.629368e-003
3.266960e+003,7.749871e-003
3.268889e+003,7.758135e-003
3.270817e+003,7.762857e-003
3.272746e+003,7.665620e-003
3.274675e+003,7.600234e-003
3.276603e+003,7.692735e-003
3.278531e+003,7.660190e-003
3.280460e+003,7.572585e-003
3.282389e+003,7.574844e-003
3.284317e+003,7.642149e-003
3.286246e+003,7.760226e-003
3.288174e+003,7.745182e-003
3.290103e+003,7.646836e-003
3.292031e+003,7.642385e-003
3.293960e+003,7.772235e-003
3.295888e+003,7.874523e-003
3.297817e+003,7.831608e-003
3.299746e+003,7.765960e-003
3.301674e+003,7.773415e-003
3.303603e+003,7.727575e-003
3.305531e+003,7.697052e-003
3.307460e+003,7.711689e-003
3.309388e+003,7.723595e-003
3.311317e+003,7.705180e-003
3.313245e+003,7.681470e-003
3.315174e+003,7.565842e-003
3.317103e+003,7.487829e-003
3.319031e+003,7.540185e-003
3.320960e+003,7.678907e-003
3.322888e+003,7.629469e-003
3.324817e+003,7.538904e-003
3.326745e+003,7.599627e-003
3.328674e+003,7.640800e-003
3.330602e+003,7.588264e-003
3.332531e+003,7.573529e-003
3.334459e+003,7.567730e-003
3.336388e+003,7.569989e-003
3.338317e+003,7.545309e-003
3.340245e+003,7.451997e-003
3.342174e+003,7.409190e-003
3.344102e+003,7.470840e-003
3.346031e+003,7.443199e-003
3.347959e+003,7.403966e-003
3.349888e+003,7.484424e-003
3.351816e+003,7.379498e-003
3.353745e+003,7.156348e-003
3.355674e+003,7.104140e-003
3.357602e+003,7.185856e-003
3.359531e+003,7.187035e-003
3.361459e+003,7.231707e-003
3.363388e+003,7.173325e-003
3.365316e+003,7.056687e-003
3.367245e+003,7.058943e-003
3.369173e+003,7.093565e-003
3.371102e+003,7.116232e-003
3.373031e+003,7.083865e-003
3.374959e+003,7.094642e-003
3.376887e+003,7.045574e-003
3.378816e+003,6.967284e-003
3.380745e+003,6.822225e-003
3.382673e+003,6.750639e-003
3.384602e+003,6.800616e-003
3.386530e+003,6.959574e-003
3.388459e+003,7.067228e-003
3.390387e+003,7.044866e-003
3.392316e+003,6.949608e-003
3.394244e+003,6.802434e-003
3.396173e+003,6.790486e-003
3.398102e+003,6.916210e-003
3.400030e+003,6.997352e-003
3.401959e+003,6.862920e-003
3.403887e+003,6.785000e-003
3.405816e+003,6.735697e-003
3.407744e+003,6.653056e-003
3.409673e+003,6.693264e-003
3.411601e+003,6.851139e-003
3.413530e+003,6.967351e-003
3.415458e+003,6.899343e-003
3.417387e+003,6.844676e-003
3.419316e+003,6.841242e-003
3.421244e+003,6.783822e-003
3.423173e+003,6.754711e-003
3.425101e+003,6.861809e-003
3.427030e+003,6.924862e-003
3.428958e+003,7.086054e-003
3.430887e+003,7.180938e-003
3.432815e+003,7.138866e-003
3.434744e+003,7.217490e-003
3.436673e+003,7.260412e-003
3.438601e+003,7.137485e-003
3.440530e+003,7.020418e-003
3.442458e+003,6.920283e-003
3.444387e+003,6.854000e-003
3.446315e+003,6.702820e-003
3.448244e+003,6.598082e-003
3.450172e+003,6.657833e-003
3.452101e+003,6.623314e-003
3.454030e+003,6.485903e-003
3.455958e+003,6.387841e-003
3.457886e+003,6.563366e-003
3.459815e+003,6.643366e-003
3.461744e+003,6.535211e-003
3.463672e+003,6.649456e-003
3.465601e+003,6.849926e-003
3.467529e+003,7.018970e-003
3.469458e+003,7.078510e-003
3.471386e+003,7.114110e-003
3.473315e+003,7.176694e-003
3.475243e+003,7.158302e-003
3.477172e+003,7.132399e-003
3.479101e+003,7.165645e-003
3.481029e+003,7.179759e-003
3.482958e+003,7.258391e-003
3.484886e+003,7.365377e-003
3.486815e+003,7.378015e-003
3.488743e+003,7.552457e-003
3.490672e+003,7.727575e-003
3.492600e+003,7.632673e-003
3.494529e+003,7.586915e-003
3.496458e+003,7.681201e-003
3.498386e+003,7.777935e-003
3.500315e+003,7.741472e-003
3.502243e+003,7.627143e-003
3.504172e+003,7.620465e-003
3.506100e+003,7.732939e-003
3.508029e+003,7.799222e-003
3.509957e+003,7.703156e-003
3.511886e+003,7.626805e-003
3.513814e+003,7.598076e-003
3.515743e+003,7.686428e-003
3.517672e+003,7.740831e-003
3.519600e+003,7.729397e-003
3.521529e+003,7.821183e-003
3.523457e+003,7.907084e-003
3.525386e+003,7.865042e-003
3.527314e+003,7.876345e-003
3.529243e+003,8.058041e-003
3.531171e+003,7.920919e-003
3.533100e+003,7.829145e-003
3.535029e+003,7.953854e-003
3.536957e+003,8.023985e-003
3.538885e+003,8.040152e-003
3.540814e+003,8.023107e-003
3.542743e+003,7.966307e-003
3.544671e+003,7.858767e-003
3.546600e+003,7.753750e-003
3.548528e+003,7.733478e-003
3.550457e+003,7.754290e-003
3.552385e+003,7.753547e-003
3.554314e+003,7.577980e-003
3.556242e+003,7.533307e-003
3.558171e+003,7.751692e-003
3.560100e+003,7.642351e-003
3.562028e+003,7.415459e-003
3.563957e+003,7.499561e-003
3.565885e+003,7.586173e-003
3.567814e+003,7.402719e-003
3.569742e+003,7.202330e-003
3.571671e+003,7.177536e-003
3.573599e+003,7.169350e-003
3.575528e+003,7.097067e-003
3.577457e+003,7.056956e-003
3.579385e+003,7.040387e-003
3.581314e+003,6.962840e-003
3.583242e+003,6.838045e-003
3.585171e+003,6.792169e-003
3.587099e+003,6.909342e-003
3.589028e+003,6.890826e-003
3.590956e+003,6.803309e-003
3.592885e+003,6.806944e-003
3.594813e+003,6.783216e-003
3.596742e+003,6.725871e-003
3.598671e+003,6.651642e-003
3.600599e+003,6.734990e-003
3.602528e+003,6.775879e-003
3.604456e+003,6.707262e-003
3.606385e+003,6.668197e-003
3.608313e+003,6.714698e-003
3.610242e+003,6.654670e-003
3.612170e+003,6.607536e-003
3.614099e+003,6.687914e-003
3.616028e+003,6.757504e-003
3.617956e+003,6.768240e-003
3.619885e+003,6.593204e-003
3.621813e+003,6.471845e-003
3.623742e+003,6.521656e-003
3.625670e+003,6.550853e-003
3.627599e+003,6.560507e-003
3.629527e+003,6.610765e-003
3.631456e+003,6.652248e-003
3.633385e+003,6.590277e-003
3.635313e+003,6.549743e-003
3.637241e+003,6.471677e-003
3.639170e+003,6.395811e-003
3.641099e+003,6.330851e-003
3.643027e+003,6.258640e-003
3.644956e+003,6.292895e-003
3.646884e+003,6.275448e-003
3.648813e+003,6.117917e-003
3.650741e+003,6.069597e-003
3.652670e+003,6.014126e-003
3.654598e+003,5.929640e-003
3.656527e+003,5.907371e-003
3.658456e+003,5.850343e-003
3.660384e+003,5.762027e-003
3.662313e+003,5.798123e-003
3.664241e+003,5.798627e-003
3.666170e+003,5.637610e-003
3.668098e+003,5.510242e-003
3.670027e+003,5.600419e-003
3.671955e+003,5.535981e-003
3.673884e+003,5.246664e-003
3.675813e+003,5.208434e-003
3.677741e+003,5.263030e-003
3.679670e+003,5.252466e-003
3.681598e+003,5.196965e-003
3.683527e+003,5.186034e-003
3.685455e+003,5.186537e-003
3.687384e+003,5.130709e-003
3.689312e+003,5.050317e-003
3.691241e+003,4.994675e-003
3.693169e+003,4.955260e-003
3.695098e+003,4.870947e-003
3.697027e+003,4.826149e-003
3.698955e+003,4.805679e-003
3.700884e+003,4.765343e-003
3.702812e+003,4.812479e-003
3.704741e+003,4.843002e-003
3.706669e+003,4.830538e-003
3.708598e+003,4.784137e-003
3.710526e+003,4.780954e-003
3.712455e+003,4.780284e-003
3.714384e+003,4.677851e-003
3.716312e+003,4.588099e-003
3.718240e+003,4.600991e-003
3.720169e+003,4.682674e-003
3.722098e+003,4.694263e-003
3.724026e+003,4.666062e-003
3.725955e+003,4.652163e-003
3.727883e+003,4.685387e-003
3.729812e+003,4.765544e-003
3.731740e+003,4.818577e-003
3.733669e+003,4.711077e-003
3.735597e+003,4.667703e-003
3.737526e+003,4.735965e-003
3.739455e+003,4.770234e-003
3.741383e+003,4.821693e-003
3.743312e+003,4.847961e-003
3.745240e+003,4.780753e-003
3.747169e+003,4.666329e-003
3.749097e+003,4.683344e-003
3.751026e+003,4.780787e-003
3.752954e+003,4.716939e-003
3.754883e+003,4.586860e-003
3.756812e+003,4.577652e-003
3.758740e+003,4.652330e-003
3.760669e+003,4.821191e-003
3.762597e+003,4.838043e-003
3.764526e+003,4.708230e-003
3.766454e+003,4.639671e-003
3.768383e+003,4.640977e-003
3.770311e+003,4.607053e-003
3.772240e+003,4.580498e-003
3.774168e+003,4.723471e-003
3.776097e+003,4.799078e-003
3.778026e+003,4.717374e-003
3.779954e+003,4.677148e-003
3.781883e+003,4.716872e-003
3.783811e+003,4.770301e-003
3.785740e+003,4.693693e-003
3.787668e+003,4.578857e-003
3.789597e+003,4.746215e-003
3.791525e+003,4.867629e-003
3.793454e+003,4.712953e-003
3.795383e+003,4.680932e-003
3.797311e+003,4.682439e-003
3.799240e+003,4.616496e-003
3.801168e+003,4.497429e-003
3.803097e+003,4.476069e-003
3.805025e+003,4.624668e-003
3.806954e+003,4.675808e-003
3.808882e+003,4.606617e-003
3.810811e+003,4.547248e-003
3.812740e+003,4.516746e-003
3.814668e+003,4.530373e-003
3.816596e+003,4.569080e-003
3.818525e+003,4.579393e-003
3.820454e+003,4.630294e-003
3.822382e+003,4.642484e-003
3.824311e+003,4.614922e-003
3.826239e+003,4.556389e-003
3.828168e+003,4.558097e-003
3.830096e+003,4.474597e-003
3.832025e+003,4.393154e-003
3.833953e+003,4.419530e-003
3.835882e+003,4.410560e-003
3.837811e+003,4.506937e-003
3.839739e+003,4.568444e-003
3.841668e+003,4.503622e-003
3.843596e+003,4.439916e-003
3.845525e+003,4.443732e-003
3.847453e+003,4.410693e-003
3.849382e+003,4.457557e-003
3.851310e+003,4.594796e-003
3.853239e+003,4.566401e-003
3.855167e+003,4.599552e-003
3.857096e+003,4.587831e-003
3.859025e+003,4.483201e-003
3.860953e+003,4.471718e-003
3.862882e+003,4.514637e-003
3.864810e+003,4.533889e-003
3.866739e+003,4.555385e-003
3.868667e+003,4.522806e-003
3.870596e+003,4.507740e-003
3.872524e+003,4.532717e-003
3.874453e+003,4.492842e-003
3.876382e+003,4.593089e-003
3.878310e+003,4.613181e-003
3.880239e+003,4.477308e-003
3.882167e+003,4.393054e-003
3.884096e+003,4.328661e-003
3.886024e+003,4.331974e-003
3.887953e+003,4.555652e-003
3.889881e+003,4.644158e-003
3.891810e+003,4.456955e-003
3.893739e+003,4.301955e-003
3.895667e+003,4.303796e-003
3.897595e+003,4.383482e-003
3.899524e+003,4.420802e-003
3.901453e+003,4.398443e-003
3.903381e+003,4.394460e-003
3.905310e+003,4.442326e-003
3.907238e+003,4.517651e-003
3.909167e+003,4.496324e-003
3.911095e+003,4.430342e-003
3.913024e+003,4.443866e-003
3.914952e+003,4.443497e-003
3.916881e+003,4.335120e-003
3.918810e+003,4.354464e-003
3.920738e+003,4.566032e-003
3.922667e+003,4.662444e-003
3.924595e+003,4.629155e-003
3.926524e+003,4.508042e-003
3.928452e+003,4.423413e-003
3.930381e+003,4.494315e-003
3.932309e+003,4.431112e-003
3.934238e+003,4.416384e-003
3.936167e+003,4.521936e-003
3.938095e+003,4.547215e-003
3.940024e+003,4.555820e-003
3.941952e+003,4.517584e-003
3.943881e+003,4.434560e-003
3.945809e+003,4.336325e-003
3.947738e+003,4.420066e-003
3.949666e+003,4.515977e-003
3.951595e+003,4.475702e-003
3.953523e+003,4.551065e-003
3.955452e+003,4.655177e-003
3.957380e+003,4.553108e-003
3.959309e+003,4.481426e-003
3.961238e+003,4.442560e-003
3.963166e+003,4.294560e-003
3.965095e+003,4.263943e-003
3.967023e+003,4.388535e-003
3.968952e+003,4.510184e-003
3.970880e+003,4.382243e-003
3.972809e+003,4.365073e-003
3.974737e+003,4.537906e-003
3.976666e+003,4.532550e-003
3.978594e+003,4.518253e-003
3.980523e+003,4.460001e-003
3.982452e+003,4.391381e-003
3.984380e+003,4.487151e-003
3.986309e+003,4.650187e-003
3.988237e+003,4.693291e-003
3.990166e+003,4.642986e-003
3.992094e+003,4.650722e-003
3.994023e+003,4.508577e-003
3.995951e+003,4.363601e-003
3.997880e+003,4.357911e-003
3.999809e+003,4.373206e-003
4.001737e+003,0.000000e+000
