3.992094e+002,0.000000e+000
4.011380e+002,0.000000e+000
4.030665e+002,0.000000e+000
4.049951e+002,0.000000e+000
4.069236e+002,0.000000e+000
4.088522e+002,0.000000e+000
4.107807e+002,0.000000e+000
4.127093e+002,0.000000e+000
4.146378e+002,0.000000e+000
4.165664e+002,0.000000e+000
4.184949e+002,0.000000e+000
4.204235e+002,0.000000e+000
4.223520e+002,0.000000e+000
4.242806e+002,0.000000e+000
4.262091e+002,0.000000e+000
4.281377e+002,0.000000e+000
4.300662e+002,0.000000e+000
4.319948e+002,0.000000e+000
4.339233e+002,0.000000e+000
4.358519e+002,0.000000e+000
4.377804e+002,0.000000e+000
4.397090e+002,0.000000e+000
4.416375e+002,0.000000e+000
4.435660e+002,0.000000e+000
4.454946e+002,0.000000e+000
4.474232e+002,0.000000e+000
4.493517e+002,0.000000e+000
4.512802e+002,0.000000e+000
4.532088e+002,0.000000e+000
4.551373e+002,0.000000e+000
4.570659e+002,0.000000e+000
4.589944e+002,0.000000e+000
4.609230e+002,0.000000e+000
4.628515e+002,0.000000e+000
4.647801e+002,0.000000e+000
4.667086e+002,0.000000e+000
4.686372e+002,0.000000e+000
4.705657e+002,0.000000e+000
4.724943e+002,0.000000e+000
4.744228e+002,0.000000e+000
4.763514e+002,0.000000e+000
4.782799e+002,0.000000e+000
4.802085e+002,0.000000e+000
4.821370e+002,0.000000e+000
4.840656e+002,0.000000e+000
4.859941e+002,0.000000e+000
4.879226e+002,0.000000e+000
4.898512e+002,0.000000e+000
4.917798e+002,0.000000e+000
4.937083e+002,0.000000e+000
4.956368e+002,0.000000e+000
4.975654e+002,0.000000e+000
4.994939e+002,0.000000e+000
5.014225e+002,0.000000e+000
5.033510e+002,0.000000e+000
5.052796e+002,0.000000e+000
5.072081e+002,0.000000e+000
5.091367e+002,0.000000e+000
5.110652e+002,0.000000e+000
5.129938e+002,0.000000e+000
5.149223e+002,0.000000e+000
5.168509e+002,0.000000e+000
5.187794e+002,0.000000e+000
5.207079e+002,0.000000e+000
5.226365e+002,0.000000e+000
5.245651e+002,0.000000e+000
5.264936e+002,0.000000e+000
5.284221e+002,0.000000e+000
5.303507e+002,0.000000e+000
5.322792e+002,0.000000e+000
5.342078e+002,0.000000e+000
5.361364e+002,0.000000e+000
5.380649e+002,0.000000e+000
5.399934e+002,0.000000e+000
5.419220e+002,0.000000e+000
5.438505e+002,0.000000e+000
5.457791e+002,0.000000e+000
5.477076e+002,0.000000e+000
5.496362e+002,0.000000e+000
5.515647e+002,0.000000e+000
5.534933e+002,0.000000e+000
5.554218e+002,0.000000e+000
5.573503e+002,0.000000e+000
5.592789e+002,0.000000e+000
5.612075e+002,0.000000e+000
5.631360e+002,0.000000e+000
5.650646e+002,0.000000e+000
5.669931e+002,0.000000e+000
5.689216e+002,0.000000e+000
5.708502e+002,0.000000e+000
5.727787e+002,0.000000e+000
5.747073e+002,0.000000e+000
5.766359e+002,0.000000e+000
5.785644e+002,0.000000e+000
5.804929e+002,0.000000e+000
5.824215e+002,0.000000e+000
5.843500e+002,0.000000e+000
5.862786e+002,0.000000e+000
5.882072e+002,0.000000e+000
5.901357e+002,0.000000e+000
5.920642e+002,0.000000e+000
5.939928e+002,0.000000e+000
5.959213e+002,0.000000e+000
5.978499e+002,0.000000e+000
5.997784e+002,0.000000e+000
6.017070e+002,0.000000e+000
6.036355e+002,0.000000e+000
6.055641e+002,0.000000e+000
6.074926e+002,0.000000e+000
6.094211e+002,0.000000e+000
6.113497e+002,0.000000e+000
6.132783e+002,0.000000e+000
6.152068e+002,0.000000e+000
6.171354e+002,0.000000e+000
6.190639e+002,0.000000e+000
6.209924e+002,0.000000e+000
6.229210e+002,0.000000e+000
6.248495e+002,0.000000e+000
6.267781e+002,0.000000e+000
6.287067e+002,0.000000e+000
6.306352e+002,0.000000e+000
6.325637e+002,0.000000e+000
6.344923e+002,0.000000e+000
6.364208e+002,0.000000e+000
6.383494e+002,0.000000e+000
6.402780e+002,0.000000e+000
6.422065e+002,0.000000e+000
6.441350e+002,0.000000e+000
6.460636e+002,0.000000e+000
6.479921e+002,0.000000e+000
6.499207e+002,0.000000e+000
6.518492e+002,0.000000e+000
6.537778e+002,0.000000e+000
6.557063e+002,0.000000e+000
6.576349e+002,0.000000e+000
6.595634e+002,0.000000e+000
6.614919e+002,0.000000e+000
6.634205e+002,0.000000e+000
6.653491e+002,0.000000e+000
6.672776e+002,0.000000e+000
6.692062e+002,0.000000e+000
6.711347e+002,0.000000e+000
6.730632e+002,0.000000e+000
6.749918e+002,5.310960e-002
6.769203e+002,5.515300e-002
6.788489e+002,5.679551e-002
6.807775e+002,5.727000e-002
6.827060e+002,5.678233e-002
6.846345e+002,5.618915e-002
6.865631e+002,5.687304e-002
6.884916e+002,5.816583e-002
6.904202e+002,5.965311e-002
6.923488e+002,6.131225e-002
6.942773e+002,6.348437e-002
6.962058e+002,6.675969e-002
6.981344e+002,7.160929e-002
7.000629e+002,7.803001e-002
7.019915e+002,8.505992e-002
7.039200e+002,9.088168e-002
7.058486e+002,9.579884e-002
7.077771e+002,1.012076e-001
7.097057e+002,1.072769e-001
7.116342e+002,1.137955e-001
7.135627e+002,1.229710e-001
7.154913e+002,1.400790e-001
7.174199e+002,1.716275e-001
7.193484e+002,2.250820e-001
7.212770e+002,3.109946e-001
7.232055e+002,4.120578e-001
7.251340e+002,4.501745e-001
7.270626e+002,3.982187e-001
7.289911e+002,3.200381e-001
7.309197e+002,2.540038e-001
7.328483e+002,2.015585e-001
7.347768e+002,1.571544e-001
7.367053e+002,1.165240e-001
7.386339e+002,8.145214e-002
7.405624e+002,5.482809e-002
7.424910e+002,3.777451e-002
7.444196e+002,2.823281e-002
7.463481e+002,2.329505e-002
7.482766e+002,2.073839e-002
7.502052e+002,1.970265e-002
7.521337e+002,2.004107e-002
7.540623e+002,2.082643e-002
7.559908e+002,2.114792e-002
7.579194e+002,2.164901e-002
7.598479e+002,2.215497e-002
7.617765e+002,2.310770e-002
7.637050e+002,2.430180e-002
7.656335e+002,2.542488e-002
7.675621e+002,2.662565e-002
7.694907e+002,2.793734e-002
7.714192e+002,2.933073e-002
7.733478e+002,3.056860e-002
7.752763e+002,3.210617e-002
7.772048e+002,3.366287e-002
7.791334e+002,3.526226e-002
7.810620e+002,3.723481e-002
7.829905e+002,3.984401e-002
7.849191e+002,4.306828e-002
7.868476e+002,4.722113e-002
7.887761e+002,5.249464e-002
7.907047e+002,5.828298e-002
7.926332e+002,6.207934e-002
7.945618e+002,6.064115e-002
7.964904e+002,5.450393e-002
7.984189e+002,4.902417e-002
8.003474e+002,4.768745e-002
8.022760e+002,4.837474e-002
8.042045e+002,4.892848e-002
8.061331e+002,4.942018e-002
8.080616e+002,4.988916e-002
8.099902e+002,5.002600e-002
8.119187e+002,5.014034e-002
8.138473e+002,5.012320e-002
8.157758e+002,5.002570e-002
8.177043e+002,5.019430e-002
8.196329e+002,5.019799e-002
8.215615e+002,5.031301e-002
8.234900e+002,5.104114e-002
8.254186e+002,5.186894e-002
8.273471e+002,5.254486e-002
8.292756e+002,5.352284e-002
8.312042e+002,5.496404e-002
8.331328e+002,5.652955e-002
8.350613e+002,5.824475e-002
8.369899e+002,5.988193e-002
8.389184e+002,6.119497e-002
8.408469e+002,6.194232e-002
8.427755e+002,6.202766e-002
8.447040e+002,6.210667e-002
8.466326e+002,6.203916e-002
8.485612e+002,6.183064e-002
8.504896e+002,6.182987e-002
8.524182e+002,6.194863e-002
8.543468e+002,6.205059e-002
8.562753e+002,6.234838e-002
8.582039e+002,6.307036e-002
8.601324e+002,6.469999e-002
8.620609e+002,6.788463e-002
8.639895e+002,7.347782e-002
8.659181e+002,8.195448e-002
8.678466e+002,9.310423e-002
8.697751e+002,1.050770e-001
8.717037e+002,1.137930e-001
8.736322e+002,1.150107e-001
8.755608e+002,1.092156e-001
8.774894e+002,9.989006e-002
8.794178e+002,9.012435e-002
8.813464e+002,8.191130e-002
8.832750e+002,7.584104e-002
8.852035e+002,7.169850e-002
8.871321e+002,6.905546e-002
8.890607e+002,6.741110e-002
8.909891e+002,6.650034e-002
8.929177e+002,6.632768e-002
8.948463e+002,6.624647e-002
8.967748e+002,6.567234e-002
8.987034e+002,6.441204e-002
9.006320e+002,6.222469e-002
9.025604e+002,5.892225e-002
9.044890e+002,5.459537e-002
9.064176e+002,4.992072e-002
9.083461e+002,4.591192e-002
9.102747e+002,4.269681e-002
9.122032e+002,4.026615e-002
9.141317e+002,3.857452e-002
9.160603e+002,3.770787e-002
9.179889e+002,3.730828e-002
9.199174e+002,3.723116e-002
9.218459e+002,3.747367e-002
9.237745e+002,3.784370e-002
9.257030e+002,3.819837e-002
9.276316e+002,3.860371e-002
9.295602e+002,3.903839e-002
9.314886e+002,3.954129e-002
9.334172e+002,3.989583e-002
9.353458e+002,4.016492e-002
9.372743e+002,4.045675e-002
9.392029e+002,4.064377e-002
9.411315e+002,4.071465e-002
9.430599e+002,4.095365e-002
9.449885e+002,4.144322e-002
9.469171e+002,4.202337e-002
9.488456e+002,4.252788e-002
9.507742e+002,4.305112e-002
9.527028e+002,4.370509e-002
9.546312e+002,4.455778e-002
9.565598e+002,4.554011e-002
9.584884e+002,4.676343e-002
9.604169e+002,4.819729e-002
9.623455e+002,4.975252e-002
9.642740e+002,5.152169e-002
9.662025e+002,5.351700e-002
9.681311e+002,5.540292e-002
9.700597e+002,5.693741e-002
9.719882e+002,5.791168e-002
9.739167e+002,5.811651e-002
9.758453e+002,5.785879e-002
9.777738e+002,5.760958e-002
9.797024e+002,5.740018e-002
9.816310e+002,5.701727e-002
9.835594e+002,5.675178e-002
9.854880e+002,5.666804e-002
9.874166e+002,5.680620e-002
9.893451e+002,5.717232e-002
9.912737e+002,5.776212e-002
9.932023e+002,5.869951e-002
9.951307e+002,6.001190e-002
9.970593e+002,6.169817e-002
9.989879e+002,6.389364e-002
1.000916e+003,6.675795e-002
1.002845e+003,7.026634e-002
1.004774e+003,7.492028e-002
1.006702e+003,8.212686e-002
1.008631e+003,9.316918e-002
1.010559e+003,1.104213e-001
1.012488e+003,1.389886e-001
1.014416e+003,1.773107e-001
1.016345e+003,2.024257e-001
1.018273e+003,1.916751e-001
1.020202e+003,1.575045e-001
1.022130e+003,1.261012e-001
1.024059e+003,1.085325e-001
1.025988e+003,1.021909e-001
1.027916e+003,1.015887e-001
1.029845e+003,1.031176e-001
1.031773e+003,1.054080e-001
1.033702e+003,1.079161e-001
1.035630e+003,1.107340e-001
1.037559e+003,1.138856e-001
1.039487e+003,1.164924e-001
1.041416e+003,1.177215e-001
1.043344e+003,1.170772e-001
1.045273e+003,1.143380e-001
1.047202e+003,1.097080e-001
1.049130e+003,1.039453e-001
1.051059e+003,9.803521e-002
1.052987e+003,9.271663e-002
1.054916e+003,8.861275e-002
1.056844e+003,8.616239e-002
1.058773e+003,8.547520e-002
1.060701e+003,8.670978e-002
1.062630e+003,8.964257e-002
1.064558e+003,9.414518e-002
1.066487e+003,1.002614e-001
1.068416e+003,1.079539e-001
1.070344e+003,1.176083e-001
1.072273e+003,1.299091e-001
1.074201e+003,1.453826e-001
1.076130e+003,1.642167e-001
1.078058e+003,1.860999e-001
1.079987e+003,2.102288e-001
1.081915e+003,2.353814e-001
1.083844e+003,2.605808e-001
1.085773e+003,2.858719e-001
1.087701e+003,3.115451e-001
1.089630e+003,3.364785e-001
1.091558e+003,3.577174e-001
1.093487e+003,3.715473e-001
1.095415e+003,3.747371e-001
1.097344e+003,3.658715e-001
1.099272e+003,3.460462e-001
1.101201e+003,3.188697e-001
1.103129e+003,2.888294e-001
1.105058e+003,2.597858e-001
1.106987e+003,2.350178e-001
1.108915e+003,2.174821e-001
1.110844e+003,2.099806e-001
1.112772e+003,2.122324e-001
1.114701e+003,2.191748e-001
1.116629e+003,2.242716e-001
1.118558e+003,2.230701e-001
1.120486e+003,2.146328e-001
1.122415e+003,2.006662e-001
1.124344e+003,1.843885e-001
1.126272e+003,1.687813e-001
1.128201e+003,1.555253e-001
1.130129e+003,1.450053e-001
1.132058e+003,1.365134e-001
1.133986e+003,1.289436e-001
1.135915e+003,1.213845e-001
1.137843e+003,1.133052e-001
1.139772e+003,1.044074e-001
1.141700e+003,9.464423e-002
1.143629e+003,8.431222e-002
1.145557e+003,7.401392e-002
1.147486e+003,6.455168e-002
1.149415e+003,5.632998e-002
1.151343e+003,4.959036e-002
1.153272e+003,4.428849e-002
1.155200e+003,4.042748e-002
1.157129e+003,3.803281e-002
1.159057e+003,3.696060e-002
1.160986e+003,3.692521e-002
1.162914e+003,3.778044e-002
1.164843e+003,3.955864e-002
1.166771e+003,4.264783e-002
1.168700e+003,4.715291e-002
1.170629e+003,5.177060e-002
1.172557e+003,5.491888e-002
1.174486e+003,5.594271e-002
1.176414e+003,5.483576e-002
1.178343e+003,5.221497e-002
1.180271e+003,4.901059e-002
1.182200e+003,4.616099e-002
1.184128e+003,4.418423e-002
1.186057e+003,4.342711e-002
1.187986e+003,4.379990e-002
1.189914e+003,4.506267e-002
1.191843e+003,4.701620e-002
1.193771e+003,4.939679e-002
1.195700e+003,5.209799e-002
1.197628e+003,5.488425e-002
1.199557e+003,5.770565e-002
1.201485e+003,6.074327e-002
1.203414e+003,6.408338e-002
1.205343e+003,6.771956e-002
1.207271e+003,7.170562e-002
1.209200e+003,7.620545e-002
1.211128e+003,8.134024e-002
1.213057e+003,8.732316e-002
1.214985e+003,9.442557e-002
1.216914e+003,1.029627e-001
1.218842e+003,1.131491e-001
1.220771e+003,1.252692e-001
1.222699e+003,1.395961e-001
1.224628e+003,1.565913e-001
1.226557e+003,1.766054e-001
1.228485e+003,2.003166e-001
1.230414e+003,2.288243e-001
1.232342e+003,2.632030e-001
1.234271e+003,3.026272e-001
1.236199e+003,3.428795e-001
1.238128e+003,3.772352e-001
1.240056e+003,4.001358e-001
1.241985e+003,4.095924e-001
1.243913e+003,4.078198e-001
1.245842e+003,3.990586e-001
1.247771e+003,3.871501e-001
1.249699e+003,3.752237e-001
1.251628e+003,3.655550e-001
1.253556e+003,3.594996e-001
1.255485e+003,3.572479e-001
1.257413e+003,3.568598e-001
1.259342e+003,3.542613e-001
1.261270e+003,3.452333e-001
1.263199e+003,3.286674e-001
1.265127e+003,3.066483e-001
1.267056e+003,2.823114e-001
1.268985e+003,2.584581e-001
1.270913e+003,2.377741e-001
1.272842e+003,2.221081e-001
1.274770e+003,2.116967e-001
1.276699e+003,2.053404e-001
1.278627e+003,2.010105e-001
1.280556e+003,1.967550e-001
1.282484e+003,1.913668e-001
1.284413e+003,1.842218e-001
1.286342e+003,1.753097e-001
1.288270e+003,1.647670e-001
1.290199e+003,1.528579e-001
1.292127e+003,1.397955e-001
1.294056e+003,1.260260e-001
1.295984e+003,1.121363e-001
1.297913e+003,9.870315e-002
1.299841e+003,8.666880e-002
1.301770e+003,7.712752e-002
1.303698e+003,7.017473e-002
1.305627e+003,6.475525e-002
1.307556e+003,5.957724e-002
1.309484e+003,5.437383e-002
1.311413e+003,4.946971e-002
1.313341e+003,4.510127e-002
1.315270e+003,4.134149e-002
1.317198e+003,3.806359e-002
1.319127e+003,3.488894e-002
1.321055e+003,3.169248e-002
1.322984e+003,2.861928e-002
1.324912e+003,2.590585e-002
1.326841e+003,2.375337e-002
1.328770e+003,2.247071e-002
1.330698e+003,2.242175e-002
1.332627e+003,2.397555e-002
1.334555e+003,2.714622e-002
1.336484e+003,3.122486e-002
1.338412e+003,3.461327e-002
1.340341e+003,3.559563e-002
1.342269e+003,3.380701e-002
1.344198e+003,3.026806e-002
1.346126e+003,2.634254e-002
1.348055e+003,2.294496e-002
1.349984e+003,2.049444e-002
1.351912e+003,1.894095e-002
1.353841e+003,1.820263e-002
1.355769e+003,1.816459e-002
1.357698e+003,1.876987e-002
1.359626e+003,2.037872e-002
1.361555e+003,2.347796e-002
1.363483e+003,2.838477e-002
1.365412e+003,3.454510e-002
1.367341e+003,4.028163e-002
1.369269e+003,4.372177e-002
1.371198e+003,4.423515e-002
1.373126e+003,4.246857e-002
1.375055e+003,3.938410e-002
1.376983e+003,3.594556e-002
1.378912e+003,3.271695e-002
1.380840e+003,3.008588e-002
1.382769e+003,2.836553e-002
1.384698e+003,2.752351e-002
1.386626e+003,2.759973e-002
1.388555e+003,2.860173e-002
1.390483e+003,3.031257e-002
1.392412e+003,3.248982e-002
1.394340e+003,3.514682e-002
1.396269e+003,3.841243e-002
1.398197e+003,4.246126e-002
1.400126e+003,4.775298e-002
1.402054e+003,5.505144e-002
1.403983e+003,6.558944e-002
1.405911e+003,7.921026e-002
1.407840e+003,9.033925e-002
1.409769e+003,8.941385e-002
1.411697e+003,7.408540e-002
1.413626e+003,5.353723e-002
1.415554e+003,3.700642e-002
1.417483e+003,2.671341e-002
1.419411e+003,2.091602e-002
1.421340e+003,1.783267e-002
1.423268e+003,1.651083e-002
1.425197e+003,1.635123e-002
1.427125e+003,1.704409e-002
1.429054e+003,1.860899e-002
1.430983e+003,2.115060e-002
1.432911e+003,2.450715e-002
1.434840e+003,2.800324e-002
1.436768e+003,3.102403e-002
1.438697e+003,3.320435e-002
1.440625e+003,3.447077e-002
1.442554e+003,3.507400e-002
1.444482e+003,3.544486e-002
1.446411e+003,3.579740e-002
1.448340e+003,3.633079e-002
1.450268e+003,3.703695e-002
1.452197e+003,3.747252e-002
1.454125e+003,3.708451e-002
1.456054e+003,3.567922e-002
1.457982e+003,3.321720e-002
1.459911e+003,3.006230e-002
1.461839e+003,2.675112e-002
1.463768e+003,2.363086e-002
1.465697e+003,2.087402e-002
1.467625e+003,1.868602e-002
1.469554e+003,1.708451e-002
1.471482e+003,1.592121e-002
1.473411e+003,1.498642e-002
1.475339e+003,1.410224e-002
1.477268e+003,1.326933e-002
1.479196e+003,1.244585e-002
1.481125e+003,1.160949e-002
1.483053e+003,1.089100e-002
1.484982e+003,1.030369e-002
1.486911e+003,9.932387e-003
1.488839e+003,9.772338e-003
1.490768e+003,9.788198e-003
1.492696e+003,1.005889e-002
1.494625e+003,1.080342e-002
1.496553e+003,1.237537e-002
1.498482e+003,1.506391e-002
1.500410e+003,1.956454e-002
1.502339e+003,2.579093e-002
1.504267e+003,2.975200e-002
1.506196e+003,2.741592e-002
1.508125e+003,2.124085e-002
1.510053e+003,1.622969e-002
1.511982e+003,1.358120e-002
1.513910e+003,1.240364e-002
1.515839e+003,1.191105e-002
1.517767e+003,1.185275e-002
1.519696e+003,1.200257e-002
1.521624e+003,1.219425e-002
1.523553e+003,1.236000e-002
1.525481e+003,1.247353e-002
1.527410e+003,1.249976e-002
1.529339e+003,1.244039e-002
1.531267e+003,1.229690e-002
1.533196e+003,1.206811e-002
1.535124e+003,1.182562e-002
1.537053e+003,1.165313e-002
1.538981e+003,1.170810e-002
1.540910e+003,1.189321e-002
1.542838e+003,1.198261e-002
1.544767e+003,1.210824e-002
1.546696e+003,1.235028e-002
1.548624e+003,1.262264e-002
1.550553e+003,1.291907e-002
1.552481e+003,1.318813e-002
1.554410e+003,1.345965e-002
1.556338e+003,1.370744e-002
1.558267e+003,1.399906e-002
1.560195e+003,1.447285e-002
1.562124e+003,1.495329e-002
1.564052e+003,1.544841e-002
1.565981e+003,1.622037e-002
1.567910e+003,1.723773e-002
1.569838e+003,1.853619e-002
1.571767e+003,2.045752e-002
1.573695e+003,2.305124e-002
1.575624e+003,2.607769e-002
1.577552e+003,2.823443e-002
1.579481e+003,2.776871e-002
1.581409e+003,2.470541e-002
1.583338e+003,2.099676e-002
1.585266e+003,1.838134e-002
1.587195e+003,1.704702e-002
1.589124e+003,1.649331e-002
1.591052e+003,1.624562e-002
1.592981e+003,1.618715e-002
1.594909e+003,1.626729e-002
1.596838e+003,1.647597e-002
1.598766e+003,1.693255e-002
1.600695e+003,1.761978e-002
1.602623e+003,1.843229e-002
1.604552e+003,1.935697e-002
1.606480e+003,2.033813e-002
1.608409e+003,2.138687e-002
1.610338e+003,2.249178e-002
1.612266e+003,2.338067e-002
1.614195e+003,2.369384e-002
1.616123e+003,2.308111e-002
1.618052e+003,2.200391e-002
1.619980e+003,2.125849e-002
1.621909e+003,2.097791e-002
1.623837e+003,2.104468e-002
1.625766e+003,2.122495e-002
1.627695e+003,2.156787e-002
1.629623e+003,2.197683e-002
1.631552e+003,2.235558e-002
1.633480e+003,2.266755e-002
1.635409e+003,2.309470e-002
1.637337e+003,2.350241e-002
1.639266e+003,2.390917e-002
1.641194e+003,2.439263e-002
1.643123e+003,2.485506e-002
1.645052e+003,2.539491e-002
1.646980e+003,2.604638e-002
1.648909e+003,2.660296e-002
1.650837e+003,2.711864e-002
1.652766e+003,2.787522e-002
1.654694e+003,2.886557e-002
1.656623e+003,2.987678e-002
1.658551e+003,3.099449e-002
1.660480e+003,3.222720e-002
1.662408e+003,3.366807e-002
1.664337e+003,3.529231e-002
1.666266e+003,3.700357e-002
1.668194e+003,3.880453e-002
1.670123e+003,4.070923e-002
1.672051e+003,4.260715e-002
1.673980e+003,4.472038e-002
1.675908e+003,4.707029e-002
1.677837e+003,4.952883e-002
1.679765e+003,5.200528e-002
1.681694e+003,5.448684e-002
1.683622e+003,5.697243e-002
1.685551e+003,5.954957e-002
1.687479e+003,6.222852e-002
1.689408e+003,6.546657e-002
1.691337e+003,6.956598e-002
1.693265e+003,7.470618e-002
1.695194e+003,8.149291e-002
1.697122e+003,9.032962e-002
1.699051e+003,1.013503e-001
1.700979e+003,1.161879e-001
1.702908e+003,1.350193e-001
1.704836e+003,1.594441e-001
1.706765e+003,1.910428e-001
1.708694e+003,2.291656e-001
1.710622e+003,2.706141e-001
1.712551e+003,3.090297e-001
1.714479e+003,3.361968e-001
1.716408e+003,3.477575e-001
1.718336e+003,3.432022e-001
1.720265e+003,3.272417e-001
1.722193e+003,3.041133e-001
1.724122e+003,2.775783e-001
1.726051e+003,2.498843e-001
1.727979e+003,2.226321e-001
1.729908e+003,1.961369e-001
1.731836e+003,1.710367e-001
1.733765e+003,1.466705e-001
1.735693e+003,1.235019e-001
1.737622e+003,1.023831e-001
1.739550e+003,8.283604e-002
1.741479e+003,6.560589e-002
1.743407e+003,5.143376e-002
1.745336e+003,4.030047e-002
1.747265e+003,3.199006e-002
1.749193e+003,2.600244e-002
1.751122e+003,2.176166e-002
1.753050e+003,1.860145e-002
1.754979e+003,1.624559e-002
1.756907e+003,1.453249e-002
1.758836e+003,1.317249e-002
1.760764e+003,1.210961e-002
1.762693e+003,1.126618e-002
1.764621e+003,1.059640e-002
1.766550e+003,1.005546e-002
1.768479e+003,9.626135e-003
1.770407e+003,9.210702e-003
1.772336e+003,8.931610e-003
1.774264e+003,8.711413e-003
1.776193e+003,8.443926e-003
1.778121e+003,8.216042e-003
1.780050e+003,8.127548e-003
1.781978e+003,7.988513e-003
1.783907e+003,7.794060e-003
1.785835e+003,7.673882e-003
1.787764e+003,7.606877e-003
1.789693e+003,7.566786e-003
1.791621e+003,7.561728e-003
1.793550e+003,7.531284e-003
1.795478e+003,7.456581e-003
1.797407e+003,7.405651e-003
1.799335e+003,7.318502e-003
1.801264e+003,7.234301e-003
1.803192e+003,7.288041e-003
1.805121e+003,7.338720e-003
1.807049e+003,7.322680e-003
1.808978e+003,7.299699e-003
1.810907e+003,7.323826e-003
1.812835e+003,7.423346e-003
1.814764e+003,7.470705e-003
1.816692e+003,7.530205e-003
1.818621e+003,7.595952e-003
1.820549e+003,7.588837e-003
1.822478e+003,7.566415e-003
1.824406e+003,7.563245e-003
1.826335e+003,7.533677e-003
1.828264e+003,7.423751e-003
1.830192e+003,7.292522e-003
1.832121e+003,7.171405e-003
1.834049e+003,7.094474e-003
1.835978e+003,6.994019e-003
1.837906e+003,6.909173e-003
1.839835e+003,6.810478e-003
1.841763e+003,6.643433e-003
1.843692e+003,6.516812e-003
1.845620e+003,6.475376e-003
1.847549e+003,6.373114e-003
1.849478e+003,6.285398e-003
1.851406e+003,6.199481e-003
1.853335e+003,6.081391e-003
1.855263e+003,6.028237e-003
1.857192e+003,5.995313e-003
1.859120e+003,5.918522e-003
1.861049e+003,5.908983e-003
1.862977e+003,5.921075e-003
1.864906e+003,5.896824e-003
1.866834e+003,5.917682e-003
1.868763e+003,6.013253e-003
1.870692e+003,6.085389e-003
1.872620e+003,6.060256e-003
1.874549e+003,5.979456e-003
1.876477e+003,5.964743e-003
1.878406e+003,6.048261e-003
1.880334e+003,6.137878e-003
1.882263e+003,6.182542e-003
1.884191e+003,6.293500e-003
1.886120e+003,6.387135e-003
1.888048e+003,6.428059e-003
1.889977e+003,6.501946e-003
1.891906e+003,6.560607e-003
1.893834e+003,6.585198e-003
1.895763e+003,6.660525e-003
1.897691e+003,6.751446e-003
1.899620e+003,6.802333e-003
1.901548e+003,6.825254e-003
1.903477e+003,6.904562e-003
1.905405e+003,7.021631e-003
1.907334e+003,7.206338e-003
1.909263e+003,7.352099e-003
1.911191e+003,7.440031e-003
1.913120e+003,7.482874e-003
1.915048e+003,7.510180e-003
1.916977e+003,7.615644e-003
1.918905e+003,7.771290e-003
1.920834e+003,7.847700e-003
1.922762e+003,7.915824e-003
1.924691e+003,8.033941e-003
1.926620e+003,8.200881e-003
1.928548e+003,8.352852e-003
1.930477e+003,8.481902e-003
1.932405e+003,8.545292e-003
1.934334e+003,8.636947e-003
1.936262e+003,8.810576e-003
1.938191e+003,9.015295e-003
1.940119e+003,9.219637e-003
1.942048e+003,9.359845e-003
1.943976e+003,9.477646e-003
1.945905e+003,9.640364e-003
1.947833e+003,9.791824e-003
1.949762e+003,9.841950e-003
1.951691e+003,9.787384e-003
1.953619e+003,9.784911e-003
1.955548e+003,9.721408e-003
1.957476e+003,9.570750e-003
1.959405e+003,9.441446e-003
1.961333e+003,9.311738e-003
1.963262e+003,9.179126e-003
1.965190e+003,9.080793e-003
1.967119e+003,8.958973e-003
1.969047e+003,8.872898e-003
1.970976e+003,8.833130e-003
1.972905e+003,8.777982e-003
1.974833e+003,8.718716e-003
1.976762e+003,8.662094e-003
1.978690e+003,8.552422e-003
1.980619e+003,8.499168e-003
1.982547e+003,8.463725e-003
1.984476e+003,8.427001e-003
1.986404e+003,8.417541e-003
1.988333e+003,8.380450e-003
1.990262e+003,8.328737e-003
1.992190e+003,8.299589e-003
1.994119e+003,8.207398e-003
1.996047e+003,8.110195e-003
1.997976e+003,8.040693e-003
1.999904e+003,7.963033e-003
2.001833e+003,7.896522e-003
2.003761e+003,7.914878e-003
2.005690e+003,7.932088e-003
2.007619e+003,7.855528e-003
2.009547e+003,7.740359e-003
2.011476e+003,7.660561e-003
2.013404e+003,7.653445e-003
2.015333e+003,7.548950e-003
2.017261e+003,7.481053e-003
2.019190e+003,7.513551e-003
2.021118e+003,7.453345e-003
2.023047e+003,7.402112e-003
2.024975e+003,7.373398e-003
2.026904e+003,7.324264e-003
2.028833e+003,7.303136e-003
2.030761e+003,7.239624e-003
2.032690e+003,7.170799e-003
2.034618e+003,7.200780e-003
2.036547e+003,7.315570e-003
2.038475e+003,7.454289e-003
2.040404e+003,7.482166e-003
2.042332e+003,7.485402e-003
2.044261e+003,7.493290e-003
2.046189e+003,7.517967e-003
2.048118e+003,7.595985e-003
2.050046e+003,7.642924e-003
2.051975e+003,7.613452e-003
2.053904e+003,7.617667e-003
2.055832e+003,7.637124e-003
2.057761e+003,7.621747e-003
2.059689e+003,7.663630e-003
2.061618e+003,7.786504e-003
2.063546e+003,7.822532e-003
2.065475e+003,7.789540e-003
2.067403e+003,7.834711e-003
2.069332e+003,7.899154e-003
2.071260e+003,7.853706e-003
2.073189e+003,7.876143e-003
2.075118e+003,7.925811e-003
2.077046e+003,7.985442e-003
2.078975e+003,8.007481e-003
2.080903e+003,8.000325e-003
2.082832e+003,8.061249e-003
2.084760e+003,8.112863e-003
2.086689e+003,8.062700e-003
2.088617e+003,8.007548e-003
2.090546e+003,8.042110e-003
2.092475e+003,8.117521e-003
2.094403e+003,8.166610e-003
2.096332e+003,8.174443e-003
2.098260e+003,8.178360e-003
2.100189e+003,8.220060e-003
2.102117e+003,8.222593e-003
2.104046e+003,8.238802e-003
2.105974e+003,8.311376e-003
2.107903e+003,8.337788e-003
2.109832e+003,8.358392e-003
2.111760e+003,8.394537e-003
2.113688e+003,8.352144e-003
2.115617e+003,8.313369e-003
2.117546e+003,8.307864e-003
2.119474e+003,8.294118e-003
2.121403e+003,8.249675e-003
2.123331e+003,8.222086e-003
2.125260e+003,8.263723e-003
2.127188e+003,8.293374e-003
2.129117e+003,8.244441e-003
2.131045e+003,8.231373e-003
2.132974e+003,8.216549e-003
2.134903e+003,8.228029e-003
2.136831e+003,8.274429e-003
2.138760e+003,8.228468e-003
2.140688e+003,8.165225e-003
2.142617e+003,8.067898e-003
2.144545e+003,8.018821e-003
2.146474e+003,8.058548e-003
2.148402e+003,8.031140e-003
2.150331e+003,7.907050e-003
2.152260e+003,7.767715e-003
2.154188e+003,7.739380e-003
2.156117e+003,7.771492e-003
2.158045e+003,7.778070e-003
2.159974e+003,7.713983e-003
2.161902e+003,7.675737e-003
2.163831e+003,7.612305e-003
2.165759e+003,7.489852e-003
2.167688e+003,7.418223e-003
2.169616e+003,7.411853e-003
2.171545e+003,7.381149e-003
2.173474e+003,7.356177e-003
2.175402e+003,7.329049e-003
2.177331e+003,7.312268e-003
2.179259e+003,7.290433e-003
2.181188e+003,7.263410e-003
2.183116e+003,7.239792e-003
2.185045e+003,7.187069e-003
2.186973e+003,7.179187e-003
2.188902e+003,7.237299e-003
2.190831e+003,7.271800e-003
2.192759e+003,7.290736e-003
2.194688e+003,7.306203e-003
2.196616e+003,7.320153e-003
2.198545e+003,7.289119e-003
2.200473e+003,7.358435e-003
2.202402e+003,7.464098e-003
2.204330e+003,7.518473e-003
2.206259e+003,7.606202e-003
2.208188e+003,7.651861e-003
2.210116e+003,7.652535e-003
2.212044e+003,7.741337e-003
2.213973e+003,7.823410e-003
2.215902e+003,7.858429e-003
2.217830e+003,7.865042e-003
2.219759e+003,7.889268e-003
2.221687e+003,7.857687e-003
2.223616e+003,7.755639e-003
2.225544e+003,7.727711e-003
2.227473e+003,7.806913e-003
2.229401e+003,7.859847e-003
2.231330e+003,7.883026e-003
2.233259e+003,7.907084e-003
2.235187e+003,7.903879e-003
2.237116e+003,7.885050e-003
2.239044e+003,7.827154e-003
2.240973e+003,7.796523e-003
2.242901e+003,7.916870e-003
2.244830e+003,8.009235e-003
2.246758e+003,8.076439e-003
2.248687e+003,8.110736e-003
2.250615e+003,8.114888e-003
2.252544e+003,8.177820e-003
2.254473e+003,8.261697e-003
2.256401e+003,8.240489e-003
2.258330e+003,8.139972e-003
2.260258e+003,8.081333e-003
2.262187e+003,8.152396e-003
2.264115e+003,8.253626e-003
2.266044e+003,8.260448e-003
2.267972e+003,8.227996e-003
2.269901e+003,8.226274e-003
2.271830e+003,8.245724e-003
2.273758e+003,8.339477e-003
2.275687e+003,8.436697e-003
2.277615e+003,8.513326e-003
2.279544e+003,8.575807e-003
2.281472e+003,8.593212e-003
2.283401e+003,8.606021e-003
2.285329e+003,8.717397e-003
2.287258e+003,8.794244e-003
2.289187e+003,8.795699e-003
2.291115e+003,8.768616e-003
2.293043e+003,8.748094e-003
2.294972e+003,8.738966e-003
2.296901e+003,8.711617e-003
2.298829e+003,8.637217e-003
2.300758e+003,8.646546e-003
2.302686e+003,8.719730e-003
2.304615e+003,8.721150e-003
2.306543e+003,8.702996e-003
2.308472e+003,8.707796e-003
2.310400e+003,8.648574e-003
2.312329e+003,8.569285e-003
2.314258e+003,8.607711e-003
2.316186e+003,8.760773e-003
2.318115e+003,8.778996e-003
2.320043e+003,8.767974e-003
2.321972e+003,8.853690e-003
2.323900e+003,8.855686e-003
2.325829e+003,8.829039e-003
2.327757e+003,8.876551e-003
2.329686e+003,8.892411e-003
2.331615e+003,8.895962e-003
2.333543e+003,8.860487e-003
2.335472e+003,8.789443e-003
2.337400e+003,8.749649e-003
2.339329e+003,8.771794e-003
2.341257e+003,8.806924e-003
2.343186e+003,8.767940e-003
2.345114e+003,8.736025e-003
2.347043e+003,8.779773e-003
2.348971e+003,8.837289e-003
2.350900e+003,8.858154e-003
2.352829e+003,8.879087e-003
2.354757e+003,8.881962e-003
2.356686e+003,8.871613e-003
2.358614e+003,8.903234e-003
2.360543e+003,8.961408e-003
2.362471e+003,8.982043e-003
2.364400e+003,9.035052e-003
2.366328e+003,9.080421e-003
2.368257e+003,9.149888e-003
2.370186e+003,9.194457e-003
2.372114e+003,9.163458e-003
2.374042e+003,9.178652e-003
2.375971e+003,9.257071e-003
2.377900e+003,9.280054e-003
2.379828e+003,9.300974e-003
2.381757e+003,9.390926e-003
2.383685e+003,9.390587e-003
2.385614e+003,9.237135e-003
2.387542e+003,9.136115e-003
2.389471e+003,9.121735e-003
2.391399e+003,9.100654e-003
2.393328e+003,9.013536e-003
2.395257e+003,8.922207e-003
2.397185e+003,8.996960e-003
2.399114e+003,9.055959e-003
2.401042e+003,8.973924e-003
2.402971e+003,8.914056e-003
2.404899e+003,8.927247e-003
2.406828e+003,8.900867e-003
2.408756e+003,8.771760e-003
2.410685e+003,8.720778e-003
2.412614e+003,8.703064e-003
2.414542e+003,8.673891e-003
2.416471e+003,8.652630e-003
2.418399e+003,8.556511e-003
2.420328e+003,8.504979e-003
2.422256e+003,8.469705e-003
2.424185e+003,8.393287e-003
2.426113e+003,8.312693e-003
2.428042e+003,8.245285e-003
2.429970e+003,8.187476e-003
2.431899e+003,8.179542e-003
2.433828e+003,8.144226e-003
2.435756e+003,8.045485e-003
2.437685e+003,7.905970e-003
2.439613e+003,7.857990e-003
2.441542e+003,7.866560e-003
2.443470e+003,7.796725e-003
2.445399e+003,7.707709e-003
2.447327e+003,7.649365e-003
2.449256e+003,7.646836e-003
2.451185e+003,7.640496e-003
2.453113e+003,7.619589e-003
2.455042e+003,7.589005e-003
2.456970e+003,7.546186e-003
2.458899e+003,7.489953e-003
2.460827e+003,7.414853e-003
2.462756e+003,7.369455e-003
2.464684e+003,7.366253e-003
2.466613e+003,7.361501e-003
2.468542e+003,7.394394e-003
2.470470e+003,7.391058e-003
2.472398e+003,7.343303e-003
2.474327e+003,7.316379e-003
2.476256e+003,7.335182e-003
2.478184e+003,7.345561e-003
2.480113e+003,7.312200e-003
2.482041e+003,7.345292e-003
2.483970e+003,7.382834e-003
2.485898e+003,7.389710e-003
2.487827e+003,7.390013e-003
2.489755e+003,7.453345e-003
2.491684e+003,7.500336e-003
2.493613e+003,7.537251e-003
2.495541e+003,7.608866e-003
2.497470e+003,7.665822e-003
2.499398e+003,7.668756e-003
2.501327e+003,7.707507e-003
2.503255e+003,7.785829e-003
2.505184e+003,7.811434e-003
2.507112e+003,7.794128e-003
2.509041e+003,7.875603e-003
2.510969e+003,7.999853e-003
2.512898e+003,8.039072e-003
2.514827e+003,7.950108e-003
2.516755e+003,7.922774e-003
2.518684e+003,7.991212e-003
2.520612e+003,8.040220e-003
2.522541e+003,8.106415e-003
2.524469e+003,8.185923e-003
2.526398e+003,8.167252e-003
2.528326e+003,8.087983e-003
2.530255e+003,8.087173e-003
2.532184e+003,8.090515e-003
2.534112e+003,8.059425e-003
2.536041e+003,8.081131e-003
2.537969e+003,8.084000e-003
2.539898e+003,8.073603e-003
2.541826e+003,8.086802e-003
2.543755e+003,8.126906e-003
2.545683e+003,8.228603e-003
2.547612e+003,8.296617e-003
2.549541e+003,8.298947e-003
2.551469e+003,8.268046e-003
2.553397e+003,8.255652e-003
2.555326e+003,8.265783e-003
2.557255e+003,8.262102e-003
2.559183e+003,8.256732e-003
2.561112e+003,8.223403e-003
2.563040e+003,8.213408e-003
2.564969e+003,8.244238e-003
2.566897e+003,8.245116e-003
2.568826e+003,8.300873e-003
2.570754e+003,8.299488e-003
2.572683e+003,8.266290e-003
2.574612e+003,8.318604e-003
2.576540e+003,8.285304e-003
2.578469e+003,8.258928e-003
2.580397e+003,8.355082e-003
2.582326e+003,8.444535e-003
2.584254e+003,8.474604e-003
2.586183e+003,8.497647e-003
2.588111e+003,8.483186e-003
2.590040e+003,8.460245e-003
2.591969e+003,8.510082e-003
2.593897e+003,8.597977e-003
2.595826e+003,8.660134e-003
2.597754e+003,8.711650e-003
2.599683e+003,8.754754e-003
2.601611e+003,8.687311e-003
2.603540e+003,8.632823e-003
2.605468e+003,8.659391e-003
2.607397e+003,8.749885e-003
2.609325e+003,8.827720e-003
2.611254e+003,8.926841e-003
2.613183e+003,8.862414e-003
2.615111e+003,8.803543e-003
2.617040e+003,8.867284e-003
2.618968e+003,8.888455e-003
2.620897e+003,8.894001e-003
2.622825e+003,8.938950e-003
2.624754e+003,8.955354e-003
2.626682e+003,8.953764e-003
2.628611e+003,8.954373e-003
2.630540e+003,8.975277e-003
2.632468e+003,8.964419e-003
2.634396e+003,8.963439e-003
2.636325e+003,8.932252e-003
2.638254e+003,8.919299e-003
2.640182e+003,8.946695e-003
2.642111e+003,8.967429e-003
2.644039e+003,8.899244e-003
2.645968e+003,8.826469e-003
2.647896e+003,8.850646e-003
2.649825e+003,8.877126e-003
2.651753e+003,8.951769e-003
2.653682e+003,9.019659e-003
2.655611e+003,8.989924e-003
2.657539e+003,8.920178e-003
2.659468e+003,8.784709e-003
2.661396e+003,8.731934e-003
2.663325e+003,8.759487e-003
2.665253e+003,8.796713e-003
2.667182e+003,8.834787e-003
2.669110e+003,8.848347e-003
2.671039e+003,8.850545e-003
2.672968e+003,8.761516e-003
2.674896e+003,8.667063e-003
2.676825e+003,8.685688e-003
2.678753e+003,8.726592e-003
2.680682e+003,8.701407e-003
2.682610e+003,8.677103e-003
2.684539e+003,8.748669e-003
2.686467e+003,8.775717e-003
2.688396e+003,8.761449e-003
2.690324e+003,8.793535e-003
2.692253e+003,8.813721e-003
2.694182e+003,8.844492e-003
2.696110e+003,8.923831e-003
2.698039e+003,8.929209e-003
2.699967e+003,8.913685e-003
2.701896e+003,8.931678e-003
2.703824e+003,8.969425e-003
2.705753e+003,8.899920e-003
2.707681e+003,8.849903e-003
2.709610e+003,8.938679e-003
2.711539e+003,8.967632e-003
2.713467e+003,8.936785e-003
2.715396e+003,8.932287e-003
2.717324e+003,8.955117e-003
2.719253e+003,8.936852e-003
2.721181e+003,8.895388e-003
2.723110e+003,8.844594e-003
2.725038e+003,8.868231e-003
2.726967e+003,8.920618e-003
2.728896e+003,8.873067e-003
2.730824e+003,8.803171e-003
2.732752e+003,8.782648e-003
2.734681e+003,8.719932e-003
2.736610e+003,8.675649e-003
2.738538e+003,8.754383e-003
2.740467e+003,8.834923e-003
2.742395e+003,8.822275e-003
2.744324e+003,8.861502e-003
2.746252e+003,8.900529e-003
2.748181e+003,8.919367e-003
2.750109e+003,8.958871e-003
2.752038e+003,9.012250e-003
2.753967e+003,9.078966e-003
2.755895e+003,9.153712e-003
2.757824e+003,9.186267e-003
2.759752e+003,9.070745e-003
2.761681e+003,9.028286e-003
2.763609e+003,9.111550e-003
2.765538e+003,9.172223e-003
2.767466e+003,9.212461e-003
2.769395e+003,9.198654e-003
2.771323e+003,9.171512e-003
2.773252e+003,9.192866e-003
2.775181e+003,9.198078e-003
2.777109e+003,9.168703e-003
2.779038e+003,9.221228e-003
2.780966e+003,9.258661e-003
2.782895e+003,9.209686e-003
2.784823e+003,9.204509e-003
2.786752e+003,9.224003e-003
2.788680e+003,9.219501e-003
2.790609e+003,9.186910e-003
2.792538e+003,9.183796e-003
2.794466e+003,9.219603e-003
2.796395e+003,9.277245e-003
2.798323e+003,9.342072e-003
2.800252e+003,9.296167e-003
2.802180e+003,9.189414e-003
2.804109e+003,9.117031e-003
2.806037e+003,9.120516e-003
2.807966e+003,9.135642e-003
2.809895e+003,9.076665e-003
2.811823e+003,9.002576e-003
2.813751e+003,8.944125e-003
2.815680e+003,8.930731e-003
2.817609e+003,8.919232e-003
2.819537e+003,8.957080e-003
2.821466e+003,9.089725e-003
2.823394e+003,9.219569e-003
2.825323e+003,9.357847e-003
2.827251e+003,9.523129e-003
2.829180e+003,9.724931e-003
2.831108e+003,9.935438e-003
2.833037e+003,1.005238e-002
2.834966e+003,1.010006e-002
2.836894e+003,1.029439e-002
2.838823e+003,1.061904e-002
2.840751e+003,1.091291e-002
2.842680e+003,1.118757e-002
2.844608e+003,1.172362e-002
2.846537e+003,1.259276e-002
2.848465e+003,1.369749e-002
2.850394e+003,1.457378e-002
2.852323e+003,1.493097e-002
2.854251e+003,1.492284e-002
2.856180e+003,1.466634e-002
2.858108e+003,1.426301e-002
2.860037e+003,1.381059e-002
2.861965e+003,1.340760e-002
2.863894e+003,1.309056e-002
2.865822e+003,1.295795e-002
2.867751e+003,1.289548e-002
2.869679e+003,1.284084e-002
2.871608e+003,1.278439e-002
2.873537e+003,1.278996e-002
2.875465e+003,1.284087e-002
2.877394e+003,1.282732e-002
2.879322e+003,1.277617e-002
2.881251e+003,1.284964e-002
2.883179e+003,1.301332e-002
2.885108e+003,1.317727e-002
2.887036e+003,1.340589e-002
2.888965e+003,1.360363e-002
2.890894e+003,1.365064e-002
2.892822e+003,1.365960e-002
2.894750e+003,1.362335e-002
2.896679e+003,1.353690e-002
2.898608e+003,1.356640e-002
2.900536e+003,1.362332e-002
2.902465e+003,1.369000e-002
2.904393e+003,1.382960e-002
2.906322e+003,1.394688e-002
2.908250e+003,1.413332e-002
2.910179e+003,1.440287e-002
2.912107e+003,1.468347e-002
2.914036e+003,1.520921e-002
2.915965e+003,1.615706e-002
2.917893e+003,1.711150e-002
2.919822e+003,1.785363e-002
2.921750e+003,1.826749e-002
2.923679e+003,1.829628e-002
2.925607e+003,1.826307e-002
2.927536e+003,1.823446e-002
2.929464e+003,1.799841e-002
2.931393e+003,1.777409e-002
2.933322e+003,1.753763e-002
2.935250e+003,1.729238e-002
2.937179e+003,1.707800e-002
2.939107e+003,1.694485e-002
2.941036e+003,1.709830e-002
2.942964e+003,1.747129e-002
2.944893e+003,1.796861e-002
2.946821e+003,1.851202e-002
2.948750e+003,1.905962e-002
2.950678e+003,1.966673e-002
2.952607e+003,2.021002e-002
2.954536e+003,2.063650e-002
2.956464e+003,2.087795e-002
2.958393e+003,2.085740e-002
2.960321e+003,2.071934e-002
2.962250e+003,2.048198e-002
2.964178e+003,2.010354e-002
2.966107e+003,1.954482e-002
2.968035e+003,1.882623e-002
2.969964e+003,1.811264e-002
2.971893e+003,1.747578e-002
2.973821e+003,1.690114e-002
2.975750e+003,1.638333e-002
2.977678e+003,1.584120e-002
2.979607e+003,1.541583e-002
2.981535e+003,1.496286e-002
2.983464e+003,1.444233e-002
2.985392e+003,1.404413e-002
2.987321e+003,1.376089e-002
2.989250e+003,1.350566e-002
2.991178e+003,1.327722e-002
2.993106e+003,1.304016e-002
2.995035e+003,1.282337e-002
2.996964e+003,1.272676e-002
2.998892e+003,1.262711e-002
3.000821e+003,1.246549e-002
3.002749e+003,1.218665e-002
3.004678e+003,1.194889e-002
3.006606e+003,1.180522e-002
3.008535e+003,1.174159e-002
3.010463e+003,1.167464e-002
3.012392e+003,1.143883e-002
3.014321e+003,1.113926e-002
3.016249e+003,1.102193e-002
3.018178e+003,1.098363e-002
3.020106e+003,1.085835e-002
3.022035e+003,1.077635e-002
3.023963e+003,1.073484e-002
3.025892e+003,1.056095e-002
3.027820e+003,1.032269e-002
3.029749e+003,1.016070e-002
3.031677e+003,1.014422e-002
3.033606e+003,1.017430e-002
3.035535e+003,1.015785e-002
3.037463e+003,1.020371e-002
3.039392e+003,1.017579e-002
3.041320e+003,1.010854e-002
3.043249e+003,1.022925e-002
3.045177e+003,1.047670e-002
3.047106e+003,1.071511e-002
3.049034e+003,1.104494e-002
3.050963e+003,1.130175e-002
3.052892e+003,1.139484e-002
3.054820e+003,1.145199e-002
3.056749e+003,1.145036e-002
3.058677e+003,1.128070e-002
3.060606e+003,1.116962e-002
3.062534e+003,1.125867e-002
3.064463e+003,1.138576e-002
3.066391e+003,1.139831e-002
3.068320e+003,1.130556e-002
3.070249e+003,1.119661e-002
3.072177e+003,1.125363e-002
3.074105e+003,1.135069e-002
3.076034e+003,1.130964e-002
3.077963e+003,1.123102e-002
3.079891e+003,1.125013e-002
3.081820e+003,1.120899e-002
3.083748e+003,1.104980e-002
3.085677e+003,1.087245e-002
3.087605e+003,1.079652e-002
3.089534e+003,1.073834e-002
3.091462e+003,1.064512e-002
3.093391e+003,1.047561e-002
3.095320e+003,1.046801e-002
3.097248e+003,1.064661e-002
3.099177e+003,1.071117e-002
3.101105e+003,1.074608e-002
3.103034e+003,1.075345e-002
3.104962e+003,1.073077e-002
3.106891e+003,1.073719e-002
3.108819e+003,1.067341e-002
3.110748e+003,1.047334e-002
3.112677e+003,1.031723e-002
3.114605e+003,1.019387e-002
3.116534e+003,1.006025e-002
3.118462e+003,1.004234e-002
3.120391e+003,1.009043e-002
3.122319e+003,1.012763e-002
3.124248e+003,1.017040e-002
3.126176e+003,1.009555e-002
3.128105e+003,9.991141e-003
3.130033e+003,1.000277e-002
3.131962e+003,9.990056e-003
3.133891e+003,9.876387e-003
3.135819e+003,9.796332e-003
3.137748e+003,9.759833e-003
3.139676e+003,9.678919e-003
3.141605e+003,9.618344e-003
3.143533e+003,9.681223e-003
3.145462e+003,9.628371e-003
3.147390e+003,9.473582e-003
3.149319e+003,9.426682e-003
3.151248e+003,9.484927e-003
3.153176e+003,9.422009e-003
3.155104e+003,9.304359e-003
3.157033e+003,9.319356e-003
3.158962e+003,9.369020e-003
3.160890e+003,9.395056e-003
3.162819e+003,9.389707e-003
3.164747e+003,9.458919e-003
3.166676e+003,9.517811e-003
3.168604e+003,9.479373e-003
3.170533e+003,9.566179e-003
3.172461e+003,9.569295e-003
3.174390e+003,9.488381e-003
3.176319e+003,9.539217e-003
3.178247e+003,9.536609e-003
3.180176e+003,9.450453e-003
3.182104e+003,9.497254e-003
3.184033e+003,9.623290e-003
3.185961e+003,9.614754e-003
3.187890e+003,9.499760e-003
3.189818e+003,9.441141e-003
3.191747e+003,9.392382e-003
3.193676e+003,9.413205e-003
3.195604e+003,9.474157e-003
3.197532e+003,9.540808e-003
3.199461e+003,9.573935e-003
3.201390e+003,9.530851e-003
3.203318e+003,9.470365e-003
3.205247e+003,9.438906e-003
3.207175e+003,9.485807e-003
3.209104e+003,9.481473e-003
3.211032e+003,9.336113e-003
3.212961e+003,9.315428e-003
3.214889e+003,9.414797e-003
3.216818e+003,9.480592e-003
3.218747e+003,9.518827e-003
3.220675e+003,9.412088e-003
3.222604e+003,9.296607e-003
3.224532e+003,9.283371e-003
3.226461e+003,9.325280e-003
3.228389e+003,9.390587e-003
3.230318e+003,9.439684e-003
3.232246e+003,9.404842e-003
3.234175e+003,9.382800e-003
3.236104e+003,9.378161e-003
3.238032e+003,9.398307e-003
3.239961e+003,9.472464e-003
3.241889e+003,9.532578e-003
3.243818e+003,9.516356e-003
3.245746e+003,9.383680e-003
3.247675e+003,9.340649e-003
3.249603e+003,9.369460e-003
3.251532e+003,9.334792e-003
3.253460e+003,9.310181e-003
3.255389e+003,9.362418e-003
3.257318e+003,9.435926e-003
3.259246e+003,9.512596e-003
3.261175e+003,9.641448e-003
3.263103e+003,9.711751e-003
3.265032e+003,9.545652e-003
3.266960e+003,9.347962e-003
3.268889e+003,9.228741e-003
3.270817e+003,9.291157e-003
3.272746e+003,9.363603e-003
3.274675e+003,9.395294e-003
3.276603e+003,9.359913e-003
3.278531e+003,9.309809e-003
3.280460e+003,9.409210e-003
3.282389e+003,9.496644e-003
3.284317e+003,9.530140e-003
3.286246e+003,9.591007e-003
3.288174e+003,9.602456e-003
3.290103e+003,9.531359e-003
3.292031e+003,9.409514e-003
3.293960e+003,9.400745e-003
3.295888e+003,9.472193e-003
3.297817e+003,9.493529e-003
3.299746e+003,9.438465e-003
3.301674e+003,9.353853e-003
3.303603e+003,9.356900e-003
3.305531e+003,9.411851e-003
3.307460e+003,9.390756e-003
3.309388e+003,9.307033e-003
3.311317e+003,9.270035e-003
3.313245e+003,9.267665e-003
3.315174e+003,9.227117e-003
3.317103e+003,9.143154e-003
3.319031e+003,9.098556e-003
3.320960e+003,9.147892e-003
3.322888e+003,9.284319e-003
3.324817e+003,9.400610e-003
3.326745e+003,9.301414e-003
3.328674e+003,9.240418e-003
3.330602e+003,9.195810e-003
3.332531e+003,9.100350e-003
3.334459e+003,9.029063e-003
3.336388e+003,9.030756e-003
3.338317e+003,9.104004e-003
3.340245e+003,9.062218e-003
3.342174e+003,9.041040e-003
3.344102e+003,9.042190e-003
3.346031e+003,8.996588e-003
3.347959e+003,8.961578e-003
3.349888e+003,8.896808e-003
3.351816e+003,8.913921e-003
3.353745e+003,8.966111e-003
3.355674e+003,8.937732e-003
3.357602e+003,8.859236e-003
3.359531e+003,8.717972e-003
3.361459e+003,8.602675e-003
3.363388e+003,8.730074e-003
3.365316e+003,8.885411e-003
3.367245e+003,8.918386e-003
3.369173e+003,8.889571e-003
3.371102e+003,8.775817e-003
3.373031e+003,8.659661e-003
3.374959e+003,8.594902e-003
3.376887e+003,8.479401e-003
3.378816e+003,8.514001e-003
3.380745e+003,8.623461e-003
3.382673e+003,8.547590e-003
3.384602e+003,8.398523e-003
3.386530e+003,8.404637e-003
3.388459e+003,8.442879e-003
3.390387e+003,8.459602e-003
3.392316e+003,8.425346e-003
3.394244e+003,8.373965e-003
3.396173e+003,8.317321e-003
3.398102e+003,8.318773e-003
3.400030e+003,8.403184e-003
3.401959e+003,8.276725e-003
3.403887e+003,8.149628e-003
3.405816e+003,8.200206e-003
3.407744e+003,8.317354e-003
3.409673e+003,8.300974e-003
3.411601e+003,8.344037e-003
3.413530e+003,8.477543e-003
3.415458e+003,8.407035e-003
3.417387e+003,8.384200e-003
3.419316e+003,8.408826e-003
3.421244e+003,8.469468e-003
3.423173e+003,8.492579e-003
3.425101e+003,8.519036e-003
3.427030e+003,8.535087e-003
3.428958e+003,8.528125e-003
3.430887e+003,8.500621e-003
3.432815e+003,8.703740e-003
3.434744e+003,8.794346e-003
3.436673e+003,8.578409e-003
3.438601e+003,8.320495e-003
3.440530e+003,8.234276e-003
3.442458e+003,8.415211e-003
3.444387e+003,8.427069e-003
3.446315e+003,8.296651e-003
3.448244e+003,8.145036e-003
3.450172e+003,8.127784e-003
3.452101e+003,8.220364e-003
3.454030e+003,8.205000e-003
3.455958e+003,8.144091e-003
3.457886e+003,8.077890e-003
3.459815e+003,8.122821e-003
3.461744e+003,8.154287e-003
3.463672e+003,8.042279e-003
3.465601e+003,8.244407e-003
3.467529e+003,8.510319e-003
3.469458e+003,8.450210e-003
3.471386e+003,8.403150e-003
3.473315e+003,8.470786e-003
3.475243e+003,8.577328e-003
3.477172e+003,8.661655e-003
3.479101e+003,8.719494e-003
3.481029e+003,8.714288e-003
3.482958e+003,8.692618e-003
3.484886e+003,8.750292e-003
3.486815e+003,8.740994e-003
3.488743e+003,8.683762e-003
3.490672e+003,8.714118e-003
3.492600e+003,8.931576e-003
3.494529e+003,9.083906e-003
3.496458e+003,9.046520e-003
3.498386e+003,9.068037e-003
3.500315e+003,9.217098e-003
3.502243e+003,9.310113e-003
3.504172e+003,9.351483e-003
3.506100e+003,9.279039e-003
3.508029e+003,9.182408e-003
3.509957e+003,9.116760e-003
3.511886e+003,9.083805e-003
3.513814e+003,9.247188e-003
3.515743e+003,9.343797e-003
3.517672e+003,9.342342e-003
3.519600e+003,9.382089e-003
3.521529e+003,9.387270e-003
3.523457e+003,9.337738e-003
3.525386e+003,9.365398e-003
3.527314e+003,9.365770e-003
3.529243e+003,9.229892e-003
3.531171e+003,9.228707e-003
3.533100e+003,9.400982e-003
3.535029e+003,9.506567e-003
3.536957e+003,9.640601e-003
3.538885e+003,9.564349e-003
3.540814e+003,9.221938e-003
3.542743e+003,9.200887e-003
3.544671e+003,9.359066e-003
3.546600e+003,9.283168e-003
3.548528e+003,9.198958e-003
3.550457e+003,9.226609e-003
3.552385e+003,9.158551e-003
3.554314e+003,9.108132e-003
3.556242e+003,9.115068e-003
3.558171e+003,9.144203e-003
3.560100e+003,9.108707e-003
3.562028e+003,9.006128e-003
3.563957e+003,8.897992e-003
3.565885e+003,8.732238e-003
3.567814e+003,8.654050e-003
3.569742e+003,8.780585e-003
3.571671e+003,8.775006e-003
3.573599e+003,8.579424e-003
3.575528e+003,8.575706e-003
3.577457e+003,8.465347e-003
3.579385e+003,8.318266e-003
3.581314e+003,8.402036e-003
3.583242e+003,8.413589e-003
3.585171e+003,8.328602e-003
3.587099e+003,8.212800e-003
3.589028e+003,8.127413e-003
3.590956e+003,8.047746e-003
3.592885e+003,7.989796e-003
3.594813e+003,8.032322e-003
3.596742e+003,8.086464e-003
3.598671e+003,8.109892e-003
3.600599e+003,8.148581e-003
3.602528e+003,8.116812e-003
3.604456e+003,8.045350e-003
3.606385e+003,8.120729e-003
3.608313e+003,8.259164e-003
3.610242e+003,8.243563e-003
3.612170e+003,8.209356e-003
3.614099e+003,8.186430e-003
3.616028e+003,8.123091e-003
3.617956e+003,8.058109e-003
3.619885e+003,8.221951e-003
3.621813e+003,8.326845e-003
3.623742e+003,8.203278e-003
3.625670e+003,8.039679e-003
3.627599e+003,7.907253e-003
3.629527e+003,7.824624e-003
3.631456e+003,7.820575e-003
3.633385e+003,7.902866e-003
3.635313e+003,7.924597e-003
3.637241e+003,7.686900e-003
3.639170e+003,7.668891e-003
3.641099e+003,7.774326e-003
3.643027e+003,7.675906e-003
3.644956e+003,7.573158e-003
3.646884e+003,7.438076e-003
3.648813e+003,7.425807e-003
3.650741e+003,7.489717e-003
3.652670e+003,7.376128e-003
3.654598e+003,7.258256e-003
3.656527e+003,7.161569e-003
3.658456e+003,7.067261e-003
3.660384e+003,7.070427e-003
3.662313e+003,7.043149e-003
3.664241e+003,6.924121e-003
3.666170e+003,6.854269e-003
3.668098e+003,6.741754e-003
3.670027e+003,6.698177e-003
3.671955e+003,6.760230e-003
3.673884e+003,6.763258e-003
3.675813e+003,6.751850e-003
3.677741e+003,6.616081e-003
3.679670e+003,6.414944e-003
3.681598e+003,6.373820e-003
3.683527e+003,6.443562e-003
3.685455e+003,6.461655e-003
3.687384e+003,6.410304e-003
3.689312e+003,6.426142e-003
3.691241e+003,6.494379e-003
3.693169e+003,6.480825e-003
3.695098e+003,6.357445e-003
3.697027e+003,6.266405e-003
3.698955e+003,6.165436e-003
3.700884e+003,6.000352e-003
3.702812e+003,5.956580e-003
3.704741e+003,6.006096e-003
3.706669e+003,6.000419e-003
3.708598e+003,6.070907e-003
3.710526e+003,6.217127e-003
3.712455e+003,6.183517e-003
3.714384e+003,6.075477e-003
3.716312e+003,6.000318e-003
3.718240e+003,6.006366e-003
3.720169e+003,5.947812e-003
3.722098e+003,5.909084e-003
3.724026e+003,5.950130e-003
3.725955e+003,5.922351e-003
3.727883e+003,5.889435e-003
3.729812e+003,5.911972e-003
3.731740e+003,5.952616e-003
3.733669e+003,5.943547e-003
3.735597e+003,5.812462e-003
3.737526e+003,5.760281e-003
3.739455e+003,5.739901e-003
3.741383e+003,5.708341e-003
3.743312e+003,5.699915e-003
3.745240e+003,5.691858e-003
3.747169e+003,5.719689e-003
3.749097e+003,5.844398e-003
3.751026e+003,5.911838e-003
3.752954e+003,5.837615e-003
3.754883e+003,5.862634e-003
3.756812e+003,5.843223e-003
3.758740e+003,5.750678e-003
3.760669e+003,5.747757e-003
3.762597e+003,5.634791e-003
3.764526e+003,5.633683e-003
3.766454e+003,5.863709e-003
3.768383e+003,5.855582e-003
3.770311e+003,5.828480e-003
3.772240e+003,5.766459e-003
3.774168e+003,5.654729e-003
3.776097e+003,5.595049e-003
3.778026e+003,5.581657e-003
3.779954e+003,5.687729e-003
3.781883e+003,5.664565e-003
3.783811e+003,5.602970e-003
3.785740e+003,5.649023e-003
3.787668e+003,5.705991e-003
3.789597e+003,5.688165e-003
3.791525e+003,5.625929e-003
3.793454e+003,5.572898e-003
3.795383e+003,5.639423e-003
3.797311e+003,5.668661e-003
3.799240e+003,5.566857e-003
3.801168e+003,5.523028e-003
3.803097e+003,5.533263e-003
3.805025e+003,5.487256e-003
3.806954e+003,5.487894e-003
3.808882e+003,5.571321e-003
3.810811e+003,5.657113e-003
3.812740e+003,5.641873e-003
3.814668e+003,5.577496e-003
3.816596e+003,5.525377e-003
3.818525e+003,5.531686e-003
3.820454e+003,5.563165e-003
3.822382e+003,5.629722e-003
3.824311e+003,5.729795e-003
3.826239e+003,5.664532e-003
3.828168e+003,5.594177e-003
3.830096e+003,5.528733e-003
3.832025e+003,5.536350e-003
3.833953e+003,5.578838e-003
3.835882e+003,5.507255e-003
3.837811e+003,5.384924e-003
3.839739e+003,5.469674e-003
3.841668e+003,5.598842e-003
3.843596e+003,5.454742e-003
3.845525e+003,5.405556e-003
3.847453e+003,5.490310e-003
3.849382e+003,5.331722e-003
3.851310e+003,5.194718e-003
3.853239e+003,5.371137e-003
3.855167e+003,5.462090e-003
3.857096e+003,5.230064e-003
3.859025e+003,5.220104e-003
3.860953e+003,5.403611e-003
3.862882e+003,5.367111e-003
3.864810e+003,5.293752e-003
3.866739e+003,5.222451e-003
3.868667e+003,5.234222e-003
3.870596e+003,5.516820e-003
3.872524e+003,5.562192e-003
3.874453e+003,5.516383e-003
3.876382e+003,5.489605e-003
3.878310e+003,5.462325e-003
3.880239e+003,5.419983e-003
3.882167e+003,5.294490e-003
3.884096e+003,5.198374e-003
3.886024e+003,5.274232e-003
3.887953e+003,5.217991e-003
3.889881e+003,5.089908e-003
3.891810e+003,5.192573e-003
3.893739e+003,5.344502e-003
3.895667e+003,5.211988e-003
3.897595e+003,5.156258e-003
3.899524e+003,5.240561e-003
3.901453e+003,5.229695e-003
3.903381e+003,5.238011e-003
3.905310e+003,5.283757e-003
3.907238e+003,5.389722e-003
3.909167e+003,5.354800e-003
3.911095e+003,5.148882e-003
3.913024e+003,5.109554e-003
3.914952e+003,5.194953e-003
3.916881e+003,5.247670e-003
3.918810e+003,5.185396e-003
3.920738e+003,5.181171e-003
3.922667e+003,5.198005e-003
3.924595e+003,5.332560e-003
3.926524e+003,5.398109e-003
3.928452e+003,5.358221e-003
3.930381e+003,5.196027e-003
3.932309e+003,5.066844e-003
3.934238e+003,5.124171e-003
3.936167e+003,5.131044e-003
3.938095e+003,5.159477e-003
3.940024e+003,5.249615e-003
3.941952e+003,5.274299e-003
3.943881e+003,5.274937e-003
3.945809e+003,5.215141e-003
3.947738e+003,5.217086e-003
3.949666e+003,5.199983e-003
3.951595e+003,5.104894e-003
3.953523e+003,5.071369e-003
3.955452e+003,5.135906e-003
3.957380e+003,5.186369e-003
3.959309e+003,5.102279e-003
3.961238e+003,5.001043e-003
3.963166e+003,4.930360e-003
3.965095e+003,5.044317e-003
3.967023e+003,5.126619e-003
3.968952e+003,5.188716e-003
3.970880e+003,5.253405e-003
3.972809e+003,5.168061e-003
3.974737e+003,4.954791e-003
3.976666e+003,4.945809e-003
3.978594e+003,5.008216e-003
3.980523e+003,4.891320e-003
3.982452e+003,4.850139e-003
3.984380e+003,5.005769e-003
3.986309e+003,5.272253e-003
3.988237e+003,5.360402e-003
3.990166e+003,5.209004e-003
3.992094e+003,5.104659e-003
3.994023e+003,5.126015e-003
3.995951e+003,5.147071e-003
3.997880e+003,5.050082e-003
3.999809e+003,5.002652e-003
4.001737e+003,0.000000e+000
