3.992094e+002,0.000000e+000
4.011380e+002,0.000000e+000
4.030665e+002,0.000000e+000
4.049951e+002,0.000000e+000
4.069236e+002,0.000000e+000
4.088522e+002,0.000000e+000
4.107807e+002,0.000000e+000
4.127093e+002,0.000000e+000
4.146378e+002,0.000000e+000
4.165664e+002,0.000000e+000
4.184949e+002,0.000000e+000
4.204235e+002,0.000000e+000
4.223520e+002,0.000000e+000
4.242806e+002,0.000000e+000
4.262091e+002,0.000000e+000
4.281377e+002,0.000000e+000
4.300662e+002,0.000000e+000
4.319948e+002,0.000000e+000
4.339233e+002,0.000000e+000
4.358519e+002,0.000000e+000
4.377804e+002,0.000000e+000
4.397090e+002,0.000000e+000
4.416375e+002,0.000000e+000
4.435660e+002,0.000000e+000
4.454946e+002,0.000000e+000
4.474232e+002,0.000000e+000
4.493517e+002,0.000000e+000
4.512802e+002,0.000000e+000
4.532088e+002,0.000000e+000
4.551373e+002,0.000000e+000
4.570659e+002,0.000000e+000
4.589944e+002,0.000000e+000
4.609230e+002,0.000000e+000
4.628515e+002,0.000000e+000
4.647801e+002,0.000000e+000
4.667086e+002,0.000000e+000
4.686372e+002,0.000000e+000
4.705657e+002,0.000000e+000
4.724943e+002,0.000000e+000
4.744228e+002,0.000000e+000
4.763514e+002,0.000000e+000
4.782799e+002,0.000000e+000
4.802085e+002,0.000000e+000
4.821370e+002,0.000000e+000
4.840656e+002,0.000000e+000
4.859941e+002,0.000000e+000
4.879226e+002,0.000000e+000
4.898512e+002,0.000000e+000
4.917798e+002,0.000000e+000
4.937083e+002,0.000000e+000
4.956368e+002,0.000000e+000
4.975654e+002,0.000000e+000
4.994939e+002,0.000000e+000
5.014225e+002,0.000000e+000
5.033510e+002,0.000000e+000
5.052796e+002,0.000000e+000
5.072081e+002,0.000000e+000
5.091367e+002,0.000000e+000
5.110652e+002,0.000000e+000
5.129938e+002,0.000000e+000
5.149223e+002,0.000000e+000
5.168509e+002,0.000000e+000
5.187794e+002,0.000000e+000
5.207079e+002,0.000000e+000
5.226365e+002,0.000000e+000
5.245651e+002,0.000000e+000
5.264936e+002,0.000000e+000
5.284221e+002,0.000000e+000
5.303507e+002,0.000000e+000
5.322792e+002,0.000000e+000
5.342078e+002,0.000000e+000
5.361364e+002,0.000000e+000
5.380649e+002,0.000000e+000
5.399934e+002,0.000000e+000
5.419220e+002,0.000000e+000
5.438505e+002,0.000000e+000
5.457791e+002,0.000000e+000
5.477076e+002,0.000000e+000
5.496362e+002,0.000000e+000
5.515647e+002,0.000000e+000
5.534933e+002,0.000000e+000
5.554218e+002,0.000000e+000
5.573503e+002,0.000000e+000
5.592789e+002,0.000000e+000
5.612075e+002,0.000000e+000
5.631360e+002,0.000000e+000
5.650646e+002,0.000000e+000
5.669931e+002,0.000000e+000
5.689216e+002,0.000000e+000
5.708502e+002,0.000000e+000
5.727787e+002,0.000000e+000
5.747073e+002,0.000000e+000
5.766359e+002,0.000000e+000
5.785644e+002,0.000000e+000
5.804929e+002,0.000000e+000
5.824215e+002,0.000000e+000
5.843500e+002,0.000000e+000
5.862786e+002,0.000000e+000
5.882072e+002,0.000000e+000
5.901357e+002,0.000000e+000
5.920642e+002,0.000000e+000
5.939928e+002,0.000000e+000
5.959213e+002,0.000000e+000
5.978499e+002,0.000000e+000
5.997784e+002,0.000000e+000
6.017070e+002,0.000000e+000
6.036355e+002,0.000000e+000
6.055641e+002,0.000000e+000
6.074926e+002,0.000000e+000
6.094211e+002,0.000000e+000
6.113497e+002,0.000000e+000
6.132783e+002,0.000000e+000
6.152068e+002,0.000000e+000
6.171354e+002,0.000000e+000
6.190639e+002,0.000000e+000
6.209924e+002,0.000000e+000
6.229210e+002,0.000000e+000
6.248495e+002,0.000000e+000
6.267781e+002,0.000000e+000
6.287067e+002,0.000000e+000
6.306352e+002,0.000000e+000
6.325637e+002,0.000000e+000
6.344923e+002,0.000000e+000
6.364208e+002,0.000000e+000
6.383494e+002,0.000000e+000
6.402780e+002,0.000000e+000
6.422065e+002,0.000000e+000
6.441350e+002,0.000000e+000
6.460636e+002,0.000000e+000
6.479921e+002,0.000000e+000
6.499207e+002,0.000000e+000
6.518492e+002,0.000000e+000
6.537778e+002,0.000000e+000
6.557063e+002,0.000000e+000
6.576349e+002,0.000000e+000
6.595634e+002,0.000000e+000
6.614919e+002,0.000000e+000
6.634205e+002,0.000000e+000
6.653491e+002,0.000000e+000
6.672776e+002,0.000000e+000
6.692062e+002,0.000000e+000
6.711347e+002,0.000000e+000
6.730632e+002,0.000000e+000
6.749918e+002,2.815074e-002
6.769203e+002,3.126474e-002
6.788489e+002,3.351388e-002
6.807775e+002,3.410381e-002
6.827060e+002,3.434359e-002
6.846345e+002,3.464108e-002
6.865631e+002,3.496517e-002
6.884916e+002,3.640050e-002
6.904202e+002,3.875084e-002
6.923488e+002,4.108224e-002
6.942773e+002,4.409954e-002
6.962058e+002,4.876226e-002
6.981344e+002,5.505829e-002
7.000629e+002,6.311595e-002
7.019915e+002,7.216927e-002
7.039200e+002,8.104724e-002
7.058486e+002,8.935633e-002
7.077771e+002,9.796562e-002
7.097057e+002,1.086593e-001
7.116342e+002,1.219587e-001
7.135627e+002,1.389146e-001
7.154913e+002,1.648763e-001
7.174199e+002,2.082567e-001
7.193484e+002,2.723667e-001
7.212770e+002,3.467362e-001
7.232055e+002,4.057643e-001
7.251340e+002,4.116611e-001
7.270626e+002,3.602683e-001
7.289911e+002,2.894774e-001
7.309197e+002,2.270068e-001
7.328483e+002,1.751823e-001
7.347768e+002,1.303140e-001
7.367053e+002,8.986282e-002
7.386339e+002,5.618798e-002
7.405624e+002,3.182958e-002
7.424910e+002,1.723042e-002
7.444196e+002,9.479035e-003
7.463481e+002,5.796612e-003
7.482766e+002,3.437808e-003
7.502052e+002,1.979558e-003
7.521337e+002,1.384889e-003
7.540623e+002,1.116095e-003
7.559908e+002,9.781905e-004
7.579194e+002,6.329567e-004
7.598479e+002,6.648129e-004
7.617765e+002,1.173037e-003
7.637050e+002,1.713822e-003
7.656335e+002,2.600442e-003
7.675621e+002,3.645790e-003
7.694907e+002,4.671956e-003
7.714192e+002,5.652279e-003
7.733478e+002,6.646596e-003
7.752763e+002,7.504044e-003
7.772048e+002,8.058143e-003
7.791334e+002,8.861975e-003
7.810620e+002,1.020069e-002
7.829905e+002,1.160718e-002
7.849191e+002,1.319226e-002
7.868476e+002,1.555558e-002
7.887761e+002,1.881257e-002
7.907047e+002,2.318651e-002
7.926332e+002,2.641975e-002
7.945618e+002,2.515711e-002
7.964904e+002,1.975594e-002
7.984189e+002,1.469006e-002
8.003474e+002,1.288606e-002
8.022760e+002,1.309807e-002
8.042045e+002,1.369954e-002
8.061331e+002,1.440396e-002
8.080616e+002,1.507807e-002
8.099902e+002,1.537518e-002
8.119187e+002,1.543942e-002
8.138473e+002,1.565041e-002
8.157758e+002,1.587250e-002
8.177043e+002,1.641988e-002
8.196329e+002,1.685666e-002
8.215615e+002,1.722028e-002
8.234900e+002,1.784327e-002
8.254186e+002,1.898342e-002
8.273471e+002,2.025803e-002
8.292756e+002,2.160635e-002
8.312042e+002,2.351808e-002
8.331328e+002,2.577788e-002
8.350613e+002,2.831556e-002
8.369899e+002,3.113628e-002
8.389184e+002,3.388893e-002
8.408469e+002,3.664205e-002
8.427755e+002,3.945932e-002
8.447040e+002,4.210977e-002
8.466326e+002,4.377655e-002
8.485612e+002,4.386099e-002
8.504896e+002,4.227270e-002
8.524182e+002,4.034595e-002
8.543468e+002,3.928482e-002
8.562753e+002,3.898648e-002
8.582039e+002,3.883054e-002
8.601324e+002,3.929846e-002
8.620609e+002,4.066302e-002
8.639895e+002,4.372290e-002
8.659181e+002,4.979328e-002
8.678466e+002,6.099451e-002
8.697751e+002,7.795519e-002
8.717037e+002,9.473368e-002
8.736322e+002,9.938262e-002
8.755608e+002,8.982904e-002
8.774894e+002,7.506067e-002
8.794178e+002,6.020875e-002
8.813464e+002,4.676335e-002
8.832750e+002,3.611793e-002
8.852035e+002,2.895453e-002
8.871321e+002,2.456973e-002
8.890607e+002,2.218196e-002
8.909891e+002,2.120480e-002
8.929177e+002,2.112020e-002
8.948463e+002,2.129412e-002
8.967748e+002,2.134678e-002
8.987034e+002,2.102267e-002
9.006320e+002,2.012297e-002
9.025604e+002,1.862227e-002
9.044890e+002,1.675641e-002
9.064176e+002,1.467216e-002
9.083461e+002,1.283302e-002
9.102747e+002,1.135124e-002
9.122032e+002,1.024862e-002
9.141317e+002,9.498405e-003
9.160603e+002,9.031060e-003
9.179889e+002,8.862888e-003
9.199174e+002,8.923831e-003
9.218459e+002,9.201936e-003
9.237745e+002,9.559539e-003
9.257030e+002,9.895979e-003
9.276316e+002,1.030277e-002
9.295602e+002,1.080481e-002
9.314886e+002,1.125374e-002
9.334172e+002,1.162124e-002
9.353458e+002,1.212037e-002
9.372743e+002,1.251258e-002
9.392029e+002,1.283405e-002
9.411315e+002,1.321426e-002
9.430599e+002,1.363204e-002
9.449885e+002,1.427681e-002
9.469171e+002,1.512349e-002
9.488456e+002,1.598411e-002
9.507742e+002,1.701104e-002
9.527028e+002,1.834214e-002
9.546312e+002,1.997088e-002
9.565598e+002,2.197700e-002
9.584884e+002,2.439694e-002
9.604169e+002,2.710164e-002
9.623455e+002,3.029285e-002
9.642740e+002,3.392150e-002
9.662025e+002,3.768560e-002
9.681311e+002,4.121203e-002
9.700597e+002,4.407900e-002
9.719882e+002,4.585322e-002
9.739167e+002,4.630005e-002
9.758453e+002,4.516516e-002
9.777738e+002,4.274821e-002
9.797024e+002,3.972718e-002
9.816310e+002,3.662950e-002
9.835594e+002,3.375200e-002
9.854880e+002,3.140384e-002
9.874166e+002,2.990361e-002
9.893451e+002,2.909888e-002
9.912737e+002,2.867758e-002
9.932023e+002,2.879238e-002
9.951307e+002,2.942787e-002
9.970593e+002,3.051375e-002
9.989879e+002,3.208633e-002
1.000916e+003,3.410270e-002
1.002845e+003,3.663841e-002
1.004774e+003,4.015819e-002
1.006702e+003,4.581180e-002
1.008631e+003,5.520515e-002
1.010559e+003,7.108980e-002
1.012488e+003,9.889721e-002
1.014416e+003,1.414564e-001
1.016345e+003,1.824766e-001
1.018273e+003,1.909134e-001
1.020202e+003,1.619233e-001
1.022130e+003,1.204207e-001
1.024059e+003,8.571788e-002
1.025988e+003,6.305346e-002
1.027916e+003,5.156359e-002
1.029845e+003,4.774832e-002
1.031773e+003,4.770627e-002
1.033702e+003,4.906160e-002
1.035630e+003,5.112373e-002
1.037559e+003,5.349676e-002
1.039487e+003,5.586556e-002
1.041416e+003,5.785182e-002
1.043344e+003,5.883759e-002
1.045273e+003,5.870474e-002
1.047202e+003,5.764647e-002
1.049130e+003,5.613440e-002
1.051059e+003,5.459642e-002
1.052987e+003,5.339940e-002
1.054916e+003,5.284828e-002
1.056844e+003,5.320236e-002
1.058773e+003,5.474731e-002
1.060701e+003,5.745297e-002
1.062630e+003,6.112097e-002
1.064558e+003,6.582781e-002
1.066487e+003,7.168537e-002
1.068416e+003,7.905282e-002
1.070344e+003,8.843733e-002
1.072273e+003,1.002512e-001
1.074201e+003,1.151792e-001
1.076130e+003,1.335588e-001
1.078058e+003,1.548100e-001
1.079987e+003,1.779734e-001
1.081915e+003,2.017596e-001
1.083844e+003,2.251969e-001
1.085773e+003,2.486734e-001
1.087701e+003,2.737036e-001
1.089630e+003,3.014854e-001
1.091558e+003,3.309945e-001
1.093487e+003,3.588435e-001
1.095415e+003,3.811121e-001
1.097344e+003,3.937787e-001
1.099272e+003,3.942508e-001
1.101201e+003,3.821135e-001
1.103129e+003,3.591914e-001
1.105058e+003,3.289123e-001
1.106987e+003,2.963255e-001
1.108915e+003,2.683254e-001
1.110844e+003,2.515617e-001
1.112772e+003,2.484787e-001
1.114701e+003,2.545175e-001
1.116629e+003,2.600316e-001
1.118558e+003,2.577540e-001
1.120486e+003,2.466665e-001
1.122415e+003,2.291698e-001
1.124344e+003,2.084030e-001
1.126272e+003,1.868193e-001
1.128201e+003,1.658329e-001
1.130129e+003,1.461966e-001
1.132058e+003,1.284308e-001
1.133986e+003,1.125438e-001
1.135915e+003,9.862427e-002
1.137843e+003,8.667750e-002
1.139772e+003,7.640535e-002
1.141700e+003,6.724253e-002
1.143629e+003,5.897322e-002
1.145557e+003,5.155683e-002
1.147486e+003,4.503632e-002
1.149415e+003,3.925856e-002
1.151343e+003,3.417780e-002
1.153272e+003,2.985679e-002
1.155200e+003,2.638831e-002
1.157129e+003,2.376229e-002
1.159057e+003,2.182824e-002
1.160986e+003,2.046391e-002
1.162914e+003,1.959168e-002
1.164843e+003,1.945225e-002
1.166771e+003,2.062622e-002
1.168700e+003,2.335913e-002
1.170629e+003,2.674622e-002
1.172557e+003,2.921475e-002
1.174486e+003,2.990830e-002
1.176414e+003,2.878650e-002
1.178343e+003,2.622943e-002
1.180271e+003,2.309261e-002
1.182200e+003,2.023814e-002
1.184128e+003,1.826345e-002
1.186057e+003,1.735548e-002
1.187986e+003,1.744273e-002
1.189914e+003,1.848491e-002
1.191843e+003,2.016830e-002
1.193771e+003,2.231895e-002
1.195700e+003,2.496500e-002
1.197628e+003,2.781375e-002
1.199557e+003,3.081550e-002
1.201485e+003,3.413084e-002
1.203414e+003,3.780224e-002
1.205343e+003,4.194735e-002
1.207271e+003,4.668653e-002
1.209200e+003,5.206392e-002
1.211128e+003,5.829185e-002
1.213057e+003,6.561776e-002
1.214985e+003,7.420126e-002
1.216914e+003,8.418664e-002
1.218842e+003,9.552961e-002
1.220771e+003,1.083006e-001
1.222699e+003,1.228697e-001
1.224628e+003,1.399214e-001
1.226557e+003,1.600236e-001
1.228485e+003,1.839020e-001
1.230414e+003,2.126045e-001
1.232342e+003,2.475410e-001
1.234271e+003,2.892291e-001
1.236199e+003,3.361850e-001
1.238128e+003,3.841447e-001
1.240056e+003,4.267074e-001
1.241985e+003,4.566727e-001
1.243913e+003,4.693338e-001
1.245842e+003,4.647709e-001
1.247771e+003,4.480459e-001
1.249699e+003,4.258347e-001
1.251628e+003,4.040579e-001
1.253556e+003,3.866395e-001
1.255485e+003,3.752377e-001
1.257413e+003,3.685552e-001
1.259342e+003,3.621787e-001
1.261270e+003,3.504670e-001
1.263199e+003,3.306910e-001
1.265127e+003,3.042856e-001
1.267056e+003,2.748825e-001
1.268985e+003,2.456797e-001
1.270913e+003,2.191354e-001
1.272842e+003,1.968549e-001
1.274770e+003,1.794072e-001
1.276699e+003,1.662156e-001
1.278627e+003,1.561647e-001
1.280556e+003,1.478876e-001
1.282484e+003,1.403370e-001
1.284413e+003,1.327343e-001
1.286342e+003,1.247727e-001
1.288270e+003,1.163688e-001
1.290199e+003,1.074682e-001
1.292127e+003,9.799933e-002
1.294056e+003,8.808365e-002
1.295984e+003,7.801843e-002
1.297913e+003,6.824522e-002
1.299841e+003,5.942813e-002
1.301770e+003,5.231752e-002
1.303698e+003,4.698991e-002
1.305627e+003,4.266735e-002
1.307556e+003,3.841548e-002
1.309484e+003,3.403902e-002
1.311413e+003,2.980881e-002
1.313341e+003,2.606942e-002
1.315270e+003,2.293480e-002
1.317198e+003,2.030619e-002
1.319127e+003,1.802832e-002
1.321055e+003,1.603973e-002
1.322984e+003,1.436934e-002
1.324912e+003,1.344328e-002
1.326841e+003,1.422699e-002
1.328770e+003,1.797831e-002
1.330698e+003,2.642806e-002
1.332627e+003,4.096771e-002
1.334555e+003,6.003401e-002
1.336484e+003,7.733283e-002
1.338412e+003,8.528269e-002
1.340341e+003,8.089708e-002
1.342269e+003,6.744435e-002
1.344198e+003,5.121681e-002
1.346126e+003,3.684095e-002
1.348055e+003,2.591700e-002
1.349984e+003,1.823857e-002
1.351912e+003,1.303214e-002
1.353841e+003,9.683797e-003
1.355769e+003,7.635539e-003
1.357698e+003,6.508168e-003
1.359626e+003,6.294441e-003
1.361555e+003,6.971560e-003
1.363483e+003,8.713002e-003
1.365412e+003,1.142229e-002
1.367341e+003,1.424897e-002
1.369269e+003,1.624259e-002
1.371198e+003,1.702472e-002
1.373126e+003,1.674091e-002
1.375055e+003,1.582367e-002
1.376983e+003,1.456199e-002
1.378912e+003,1.316088e-002
1.380840e+003,1.187513e-002
1.382769e+003,1.074687e-002
1.384698e+003,9.856999e-003
1.386626e+003,9.408533e-003
1.388555e+003,9.432472e-003
1.390483e+003,9.965747e-003
1.392412e+003,1.117893e-002
1.394340e+003,1.323250e-002
1.396269e+003,1.617879e-002
1.398197e+003,2.038091e-002
1.400126e+003,2.662840e-002
1.402054e+003,3.568066e-002
1.403983e+003,4.849876e-002
1.405911e+003,6.381434e-002
1.407840e+003,7.509552e-002
1.409769e+003,7.423514e-002
1.411697e+003,6.029832e-002
1.413626e+003,4.108384e-002
1.415554e+003,2.452570e-002
1.417483e+003,1.332132e-002
1.419411e+003,6.429370e-003
1.421340e+003,2.466364e-003
1.423268e+003,3.459909e-004
1.425197e+003,-6.765337e-004
1.427125e+003,-8.857299e-004
1.429054e+003,-3.426033e-004
1.430983e+003,9.296088e-004
1.432911e+003,2.770274e-003
1.434840e+003,4.769296e-003
1.436768e+003,6.556605e-003
1.438697e+003,7.847363e-003
1.440625e+003,8.753469e-003
1.442554e+003,9.435723e-003
1.444482e+003,1.004414e-002
1.446411e+003,1.089735e-002
1.448340e+003,1.208940e-002
1.450268e+003,1.333831e-002
1.452197e+003,1.450227e-002
1.454125e+003,1.529799e-002
1.456054e+003,1.545778e-002
1.457982e+003,1.493614e-002
1.459911e+003,1.389539e-002
1.461839e+003,1.251122e-002
1.463768e+003,1.107311e-002
1.465697e+003,9.910353e-003
1.467625e+003,9.179803e-003
1.469554e+003,8.920279e-003
1.471482e+003,8.919840e-003
1.473411e+003,8.661553e-003
1.475339e+003,7.800267e-003
1.477268e+003,6.399644e-003
1.479196e+003,4.500040e-003
1.481125e+003,2.233534e-003
1.483053e+003,-1.617634e-004
1.484982e+003,-2.460838e-003
1.486911e+003,-4.328329e-003
1.488839e+003,-5.677716e-003
1.490768e+003,-6.568240e-003
1.492696e+003,-7.036292e-003
1.494625e+003,-6.809651e-003
1.496553e+003,-5.695801e-003
1.498482e+003,-3.451440e-003
1.500410e+003,8.513848e-004
1.502339e+003,7.672499e-003
1.504267e+003,1.339397e-002
1.506196e+003,1.241308e-002
1.508125e+003,5.608307e-003
1.510053e+003,-7.454060e-004
1.511982e+003,-4.307693e-003
1.513910e+003,-5.915113e-003
1.515839e+003,-6.500709e-003
1.517767e+003,-6.592684e-003
1.519696e+003,-6.527703e-003
1.521624e+003,-6.386187e-003
1.523553e+003,-6.271895e-003
1.525481e+003,-6.184850e-003
1.527410e+003,-6.156724e-003
1.529339e+003,-6.273855e-003
1.531267e+003,-6.523786e-003
1.533196e+003,-6.765190e-003
1.535124e+003,-6.957519e-003
1.537053e+003,-7.068468e-003
1.538981e+003,-6.947182e-003
1.540910e+003,-6.744866e-003
1.542838e+003,-6.670935e-003
1.544767e+003,-6.566510e-003
1.546696e+003,-6.427226e-003
1.548624e+003,-6.182793e-003
1.550553e+003,-5.913086e-003
1.552481e+003,-5.717875e-003
1.554410e+003,-5.481908e-003
1.556338e+003,-5.141208e-003
1.558267e+003,-4.768027e-003
1.560195e+003,-4.484848e-003
1.562124e+003,-4.254641e-003
1.564052e+003,-3.830286e-003
1.565981e+003,-3.263833e-003
1.567910e+003,-2.489962e-003
1.569838e+003,-1.263979e-003
1.571767e+003,4.478386e-004
1.573695e+003,2.468663e-003
1.575624e+003,4.833185e-003
1.577552e+003,6.483683e-003
1.579481e+003,6.099368e-003
1.581409e+003,4.094562e-003
1.583338e+003,1.749085e-003
1.585266e+003,6.673708e-005
1.587195e+003,-7.889665e-004
1.589124e+003,-1.202094e-003
1.591052e+003,-1.460608e-003
1.592981e+003,-1.540648e-003
1.594909e+003,-1.462424e-003
1.596838e+003,-1.261236e-003
1.598766e+003,-8.790174e-004
1.600695e+003,-2.365789e-004
1.602623e+003,5.718391e-004
1.604552e+003,1.483590e-003
1.606480e+003,2.531382e-003
1.608409e+003,3.603223e-003
1.610338e+003,4.617066e-003
1.612266e+003,5.347319e-003
1.614195e+003,5.533230e-003
1.616123e+003,5.155051e-003
1.618052e+003,4.268928e-003
1.619980e+003,3.540383e-003
1.621909e+003,3.306777e-003
1.623837e+003,3.383941e-003
1.625766e+003,3.643451e-003
1.627695e+003,3.979617e-003
1.629623e+003,4.333881e-003
1.631552e+003,4.712116e-003
1.633480e+003,5.130843e-003
1.635409e+003,5.553432e-003
1.637337e+003,5.861425e-003
1.639266e+003,6.238169e-003
1.641194e+003,6.711569e-003
1.643123e+003,7.182016e-003
1.645052e+003,7.739313e-003
1.646980e+003,8.339105e-003
1.648909e+003,8.922309e-003
1.650837e+003,9.587484e-003
1.652766e+003,1.047082e-002
1.654694e+003,1.132501e-002
1.656623e+003,1.215428e-002
1.658551e+003,1.322372e-002
1.660480e+003,1.447185e-002
1.662408e+003,1.596386e-002
1.664337e+003,1.755609e-002
1.666266e+003,1.923570e-002
1.668194e+003,2.106889e-002
1.670123e+003,2.291041e-002
1.672051e+003,2.469300e-002
1.673980e+003,2.660797e-002
1.675908e+003,2.874862e-002
1.677837e+003,3.103406e-002
1.679765e+003,3.346517e-002
1.681694e+003,3.593178e-002
1.683622e+003,3.828666e-002
1.685551e+003,4.052277e-002
1.687479e+003,4.265273e-002
1.689408e+003,4.519127e-002
1.691337e+003,4.850439e-002
1.693265e+003,5.283503e-002
1.695194e+003,5.877124e-002
1.697122e+003,6.673183e-002
1.699051e+003,7.702618e-002
1.700979e+003,9.133843e-002
1.702908e+003,1.102018e-001
1.704836e+003,1.360803e-001
1.706765e+003,1.721311e-001
1.708694e+003,2.204442e-001
1.710622e+003,2.799908e-001
1.712551e+003,3.419710e-001
1.714479e+003,3.888311e-001
1.716408e+003,4.067949e-001
1.718336e+003,3.950490e-001
1.720265e+003,3.664885e-001
1.722193e+003,3.309411e-001
1.724122e+003,2.939249e-001
1.726051e+003,2.580567e-001
1.727979e+003,2.248756e-001
1.729908e+003,1.941962e-001
1.731836e+003,1.666276e-001
1.733765e+003,1.411843e-001
1.735693e+003,1.176643e-001
1.737622e+003,9.650315e-002
1.739550e+003,7.688967e-002
1.741479e+003,5.897048e-002
1.743407e+003,4.350555e-002
1.745336e+003,3.094770e-002
1.747265e+003,2.141315e-002
1.749193e+003,1.442914e-002
1.751122e+003,9.402946e-003
1.753050e+003,5.828178e-003
1.754979e+003,3.252058e-003
1.756907e+003,1.326923e-003
1.758836e+003,-2.619781e-004
1.760764e+003,-1.530214e-003
1.762693e+003,-2.492169e-003
1.764621e+003,-3.298066e-003
1.766550e+003,-3.939180e-003
1.768479e+003,-4.455431e-003
1.770407e+003,-5.014012e-003
1.772336e+003,-5.446014e-003
1.774264e+003,-5.831135e-003
1.776193e+003,-6.193017e-003
1.778121e+003,-6.487065e-003
1.780050e+003,-6.750347e-003
1.781978e+003,-6.946139e-003
1.783907e+003,-7.135291e-003
1.785835e+003,-7.346743e-003
1.787764e+003,-7.492115e-003
1.789693e+003,-7.584759e-003
1.791621e+003,-7.663255e-003
1.793550e+003,-7.785480e-003
1.795478e+003,-7.936920e-003
1.797407e+003,-8.071070e-003
1.799335e+003,-8.171004e-003
1.801264e+003,-8.268283e-003
1.803192e+003,-8.366254e-003
1.805121e+003,-8.360534e-003
1.807049e+003,-8.320197e-003
1.808978e+003,-8.334303e-003
1.810907e+003,-8.398104e-003
1.812835e+003,-8.495072e-003
1.814764e+003,-8.554334e-003
1.816692e+003,-8.585554e-003
1.818621e+003,-8.573761e-003
1.820549e+003,-8.631031e-003
1.822478e+003,-8.702615e-003
1.824406e+003,-8.751392e-003
1.826335e+003,-8.818476e-003
1.828264e+003,-9.016227e-003
1.830192e+003,-9.218559e-003
1.832121e+003,-9.348194e-003
1.834049e+003,-9.524731e-003
1.835978e+003,-9.665423e-003
1.837906e+003,-9.780801e-003
1.839835e+003,-9.994045e-003
1.841763e+003,-1.022667e-002
1.843692e+003,-1.039405e-002
1.845620e+003,-1.048265e-002
1.847549e+003,-1.060641e-002
1.849478e+003,-1.075829e-002
1.851406e+003,-1.088469e-002
1.853335e+003,-1.098844e-002
1.855263e+003,-1.113405e-002
1.857192e+003,-1.130754e-002
1.859120e+003,-1.141351e-002
1.861049e+003,-1.144817e-002
1.862977e+003,-1.151042e-002
1.864906e+003,-1.158037e-002
1.866834e+003,-1.163666e-002
1.868763e+003,-1.166195e-002
1.870692e+003,-1.168272e-002
1.872620e+003,-1.171504e-002
1.874549e+003,-1.172098e-002
1.876477e+003,-1.171114e-002
1.878406e+003,-1.170475e-002
1.880334e+003,-1.164160e-002
1.882263e+003,-1.165666e-002
1.884191e+003,-1.175197e-002
1.886120e+003,-1.170869e-002
1.888048e+003,-1.162805e-002
1.889977e+003,-1.166847e-002
1.891906e+003,-1.171920e-002
1.893834e+003,-1.169669e-002
1.895763e+003,-1.161114e-002
1.897691e+003,-1.148980e-002
1.899620e+003,-1.141564e-002
1.901548e+003,-1.140370e-002
1.903477e+003,-1.131399e-002
1.905405e+003,-1.123748e-002
1.907334e+003,-1.123415e-002
1.909263e+003,-1.121442e-002
1.911191e+003,-1.114958e-002
1.913120e+003,-1.106858e-002
1.915048e+003,-1.103402e-002
1.916977e+003,-1.098091e-002
1.918905e+003,-1.085328e-002
1.920834e+003,-1.077326e-002
1.922762e+003,-1.070967e-002
1.924691e+003,-1.057239e-002
1.926620e+003,-1.041876e-002
1.928548e+003,-1.031549e-002
1.930477e+003,-1.017812e-002
1.932405e+003,-1.007133e-002
1.934334e+003,-9.944241e-003
1.936262e+003,-9.720864e-003
1.938191e+003,-9.511700e-003
1.940119e+003,-9.299484e-003
1.942048e+003,-9.106470e-003
1.943976e+003,-8.946123e-003
1.945905e+003,-8.720250e-003
1.947833e+003,-8.500921e-003
1.949762e+003,-8.400997e-003
1.951691e+003,-8.374737e-003
1.953619e+003,-8.414712e-003
1.955548e+003,-8.434275e-003
1.957476e+003,-8.482497e-003
1.959405e+003,-8.596501e-003
1.961333e+003,-8.731161e-003
1.963262e+003,-8.892789e-003
1.965190e+003,-9.057635e-003
1.967119e+003,-9.160912e-003
1.969047e+003,-9.213076e-003
1.970976e+003,-9.285051e-003
1.972905e+003,-9.418850e-003
1.974833e+003,-9.582783e-003
1.976762e+003,-9.674432e-003
1.978690e+003,-9.705700e-003
1.980619e+003,-9.799882e-003
1.982547e+003,-9.906253e-003
1.984476e+003,-9.891420e-003
1.986404e+003,-9.920536e-003
1.988333e+003,-9.969921e-003
1.990262e+003,-9.979830e-003
1.992190e+003,-1.001312e-002
1.994119e+003,-1.008541e-002
1.996047e+003,-1.019942e-002
1.997976e+003,-1.033015e-002
1.999904e+003,-1.040223e-002
2.001833e+003,-1.039476e-002
2.003761e+003,-1.041265e-002
2.005690e+003,-1.052631e-002
2.007619e+003,-1.061844e-002
2.009547e+003,-1.068042e-002
2.011476e+003,-1.075244e-002
2.013404e+003,-1.072713e-002
2.015333e+003,-1.069290e-002
2.017261e+003,-1.076763e-002
2.019190e+003,-1.085809e-002
2.021118e+003,-1.089555e-002
2.023047e+003,-1.095099e-002
2.024975e+003,-1.099096e-002
2.026904e+003,-1.104642e-002
2.028833e+003,-1.116466e-002
2.030761e+003,-1.123341e-002
2.032690e+003,-1.120965e-002
2.034618e+003,-1.117371e-002
2.036547e+003,-1.116260e-002
2.038475e+003,-1.110330e-002
2.040404e+003,-1.104045e-002
2.042332e+003,-1.100485e-002
2.044261e+003,-1.095936e-002
2.046189e+003,-1.086375e-002
2.048118e+003,-1.077284e-002
2.050046e+003,-1.072260e-002
2.051975e+003,-1.066532e-002
2.053904e+003,-1.057365e-002
2.055832e+003,-1.046276e-002
2.057761e+003,-1.038315e-002
2.059689e+003,-1.034827e-002
2.061618e+003,-1.030802e-002
2.063546e+003,-1.025113e-002
2.065475e+003,-1.020851e-002
2.067403e+003,-1.015919e-002
2.069332e+003,-1.014776e-002
2.071260e+003,-1.009571e-002
2.073189e+003,-1.002833e-002
2.075118e+003,-9.953665e-003
2.077046e+003,-9.884294e-003
2.078975e+003,-9.908131e-003
2.080903e+003,-9.950685e-003
2.082832e+003,-9.897412e-003
2.084760e+003,-9.766158e-003
2.086689e+003,-9.743933e-003
2.088617e+003,-9.772994e-003
2.090546e+003,-9.711630e-003
2.092475e+003,-9.640244e-003
2.094403e+003,-9.637392e-003
2.096332e+003,-9.622226e-003
2.098260e+003,-9.540517e-003
2.100189e+003,-9.439568e-003
2.102117e+003,-9.434056e-003
2.104046e+003,-9.481519e-003
2.105974e+003,-9.507875e-003
2.107903e+003,-9.420828e-003
2.109832e+003,-9.323289e-003
2.111760e+003,-9.307041e-003
2.113688e+003,-9.392262e-003
2.115617e+003,-9.472247e-003
2.117546e+003,-9.474939e-003
2.119474e+003,-9.482492e-003
2.121403e+003,-9.524180e-003
2.123331e+003,-9.542559e-003
2.125260e+003,-9.585765e-003
2.127188e+003,-9.641702e-003
2.129117e+003,-9.645720e-003
2.131045e+003,-9.632855e-003
2.132974e+003,-9.642868e-003
2.134903e+003,-9.707774e-003
2.136831e+003,-9.737809e-003
2.138760e+003,-9.757280e-003
2.140688e+003,-9.776946e-003
2.142617e+003,-9.829490e-003
2.144545e+003,-9.894659e-003
2.146474e+003,-9.938833e-003
2.148402e+003,-1.004980e-002
2.150331e+003,-1.015559e-002
2.152260e+003,-1.019754e-002
2.154188e+003,-1.021356e-002
2.156117e+003,-1.021579e-002
2.158045e+003,-1.028961e-002
2.159974e+003,-1.038425e-002
2.161902e+003,-1.044480e-002
2.163831e+003,-1.051657e-002
2.165759e+003,-1.061585e-002
2.167688e+003,-1.070699e-002
2.169616e+003,-1.072784e-002
2.171545e+003,-1.075108e-002
2.173474e+003,-1.082820e-002
2.175402e+003,-1.085703e-002
2.177331e+003,-1.081773e-002
2.179259e+003,-1.082203e-002
2.181188e+003,-1.082962e-002
2.183116e+003,-1.082497e-002
2.185045e+003,-1.085283e-002
2.186973e+003,-1.094104e-002
2.188902e+003,-1.096107e-002
2.190831e+003,-1.092886e-002
2.192759e+003,-1.098198e-002
2.194688e+003,-1.103160e-002
2.196616e+003,-1.104865e-002
2.198545e+003,-1.102433e-002
2.200473e+003,-1.096240e-002
2.202402e+003,-1.089619e-002
2.204330e+003,-1.081172e-002
2.206259e+003,-1.072574e-002
2.208188e+003,-1.068921e-002
2.210116e+003,-1.066167e-002
2.212044e+003,-1.059997e-002
2.213973e+003,-1.054468e-002
2.215902e+003,-1.053013e-002
2.217830e+003,-1.054138e-002
2.219759e+003,-1.046136e-002
2.221687e+003,-1.035199e-002
2.223616e+003,-1.039829e-002
2.225544e+003,-1.048426e-002
2.227473e+003,-1.051337e-002
2.229401e+003,-1.048362e-002
2.231330e+003,-1.044704e-002
2.233259e+003,-1.044218e-002
2.235187e+003,-1.043471e-002
2.237116e+003,-1.045101e-002
2.239044e+003,-1.041381e-002
2.240973e+003,-1.033429e-002
2.242901e+003,-1.025382e-002
2.244830e+003,-1.020625e-002
2.246758e+003,-1.019689e-002
2.248687e+003,-1.017589e-002
2.250615e+003,-1.010008e-002
2.252544e+003,-9.979927e-003
2.254473e+003,-9.902399e-003
2.256401e+003,-9.877363e-003
2.258330e+003,-9.896019e-003
2.260258e+003,-9.869558e-003
2.262187e+003,-9.735314e-003
2.264115e+003,-9.604206e-003
2.266044e+003,-9.584176e-003
2.267972e+003,-9.622582e-003
2.269901e+003,-9.612049e-003
2.271830e+003,-9.540291e-003
2.273758e+003,-9.442907e-003
2.275687e+003,-9.355977e-003
2.277615e+003,-9.297051e-003
2.279544e+003,-9.251027e-003
2.281472e+003,-9.229393e-003
2.283401e+003,-9.242691e-003
2.285329e+003,-9.202728e-003
2.287258e+003,-9.169444e-003
2.289187e+003,-9.175835e-003
2.291115e+003,-9.180734e-003
2.293043e+003,-9.181382e-003
2.294972e+003,-9.245611e-003
2.296901e+003,-9.321666e-003
2.298829e+003,-9.345535e-003
2.300758e+003,-9.351437e-003
2.302686e+003,-9.354615e-003
2.304615e+003,-9.400531e-003
2.306543e+003,-9.416483e-003
2.308472e+003,-9.343687e-003
2.310400e+003,-9.349297e-003
2.312329e+003,-9.415932e-003
2.314258e+003,-9.387853e-003
2.316186e+003,-9.288489e-003
2.318115e+003,-9.231922e-003
2.320043e+003,-9.221121e-003
2.321972e+003,-9.194327e-003
2.323900e+003,-9.119708e-003
2.325829e+003,-9.099948e-003
2.327757e+003,-9.106762e-003
2.329686e+003,-9.078241e-003
2.331615e+003,-9.060426e-003
2.333543e+003,-9.029111e-003
2.335472e+003,-9.001006e-003
2.337400e+003,-9.010223e-003
2.339329e+003,-9.061042e-003
2.341257e+003,-9.063184e-003
2.343186e+003,-9.051956e-003
2.345114e+003,-9.068246e-003
2.347043e+003,-9.076261e-003
2.348971e+003,-9.056921e-003
2.350900e+003,-8.981241e-003
2.352829e+003,-8.875519e-003
2.354757e+003,-8.847567e-003
2.356686e+003,-8.823899e-003
2.358614e+003,-8.698458e-003
2.360543e+003,-8.606571e-003
2.362471e+003,-8.525256e-003
2.364400e+003,-8.494162e-003
2.366328e+003,-8.449906e-003
2.368257e+003,-8.420691e-003
2.370186e+003,-8.418969e-003
2.372114e+003,-8.403077e-003
2.374042e+003,-8.394497e-003
2.375971e+003,-8.395407e-003
2.377900e+003,-8.383122e-003
2.379828e+003,-8.413184e-003
2.381757e+003,-8.465016e-003
2.383685e+003,-8.459914e-003
2.385614e+003,-8.402557e-003
2.387542e+003,-8.392709e-003
2.389471e+003,-8.401420e-003
2.391399e+003,-8.399112e-003
2.393328e+003,-8.437395e-003
2.395257e+003,-8.468851e-003
2.397185e+003,-8.526037e-003
2.399114e+003,-8.649383e-003
2.401042e+003,-8.647466e-003
2.402971e+003,-8.615375e-003
2.404899e+003,-8.597183e-003
2.406828e+003,-8.602446e-003
2.408756e+003,-8.637332e-003
2.410685e+003,-8.702843e-003
2.412614e+003,-8.770616e-003
2.414542e+003,-8.800392e-003
2.416471e+003,-8.813022e-003
2.418399e+003,-8.829873e-003
2.420328e+003,-8.896491e-003
2.422256e+003,-9.014896e-003
2.424185e+003,-9.086126e-003
2.426113e+003,-9.108352e-003
2.428042e+003,-9.120000e-003
2.429970e+003,-9.113673e-003
2.431899e+003,-9.157830e-003
2.433828e+003,-9.232377e-003
2.435756e+003,-9.307300e-003
2.437685e+003,-9.423713e-003
2.439613e+003,-9.478569e-003
2.441542e+003,-9.438271e-003
2.443470e+003,-9.473512e-003
2.445399e+003,-9.558668e-003
2.447327e+003,-9.593706e-003
2.449256e+003,-9.603072e-003
2.451185e+003,-9.644911e-003
2.453113e+003,-9.629291e-003
2.455042e+003,-9.721091e-003
2.456970e+003,-9.888278e-003
2.458899e+003,-9.929636e-003
2.460827e+003,-9.888019e-003
2.462756e+003,-9.910108e-003
2.464684e+003,-1.002565e-002
2.466613e+003,-1.008855e-002
2.468542e+003,-1.008344e-002
2.470470e+003,-1.007725e-002
2.472398e+003,-1.006579e-002
2.474327e+003,-1.006913e-002
2.476256e+003,-1.010752e-002
2.478184e+003,-1.010892e-002
2.480113e+003,-1.012895e-002
2.482041e+003,-1.014129e-002
2.483970e+003,-1.010594e-002
2.485898e+003,-1.007337e-002
2.487827e+003,-1.004504e-002
2.489755e+003,-1.009956e-002
2.491684e+003,-1.009558e-002
2.493613e+003,-9.950362e-003
2.495541e+003,-9.904796e-003
2.497470e+003,-9.887468e-003
2.499398e+003,-9.814557e-003
2.501327e+003,-9.769948e-003
2.503255e+003,-9.731038e-003
2.505184e+003,-9.673751e-003
2.507112e+003,-9.647016e-003
2.509041e+003,-9.593770e-003
2.510969e+003,-9.529755e-003
2.512898e+003,-9.444690e-003
2.514827e+003,-9.306133e-003
2.516755e+003,-9.240551e-003
2.518684e+003,-9.230657e-003
2.520612e+003,-9.181837e-003
2.522541e+003,-9.189395e-003
2.524469e+003,-9.183816e-003
2.526398e+003,-9.138623e-003
2.528326e+003,-9.111402e-003
2.530255e+003,-9.123310e-003
2.532184e+003,-9.182096e-003
2.534112e+003,-9.249828e-003
2.536041e+003,-9.189395e-003
2.537969e+003,-9.151698e-003
2.539898e+003,-9.092518e-003
2.541826e+003,-8.993444e-003
2.543755e+003,-8.958651e-003
2.545683e+003,-8.942065e-003
2.547612e+003,-8.955665e-003
2.549541e+003,-8.941708e-003
2.551469e+003,-8.839873e-003
2.553397e+003,-8.786462e-003
2.555326e+003,-8.868442e-003
2.557255e+003,-8.870065e-003
2.559183e+003,-8.764025e-003
2.561112e+003,-8.723692e-003
2.563040e+003,-8.721516e-003
2.564969e+003,-8.632395e-003
2.566897e+003,-8.570317e-003
2.568826e+003,-8.585651e-003
2.570754e+003,-8.552385e-003
2.572683e+003,-8.518271e-003
2.574612e+003,-8.543223e-003
2.576540e+003,-8.543775e-003
2.578469e+003,-8.525289e-003
2.580397e+003,-8.480808e-003
2.582326e+003,-8.412567e-003
2.584254e+003,-8.387639e-003
2.586183e+003,-8.342592e-003
2.588111e+003,-8.336513e-003
2.590040e+003,-8.391799e-003
2.591969e+003,-8.350685e-003
2.593897e+003,-8.265551e-003
2.595826e+003,-8.201080e-003
2.597754e+003,-8.222312e-003
2.599683e+003,-8.270331e-003
2.601611e+003,-8.280733e-003
2.603540e+003,-8.295914e-003
2.605468e+003,-8.302025e-003
2.607397e+003,-8.201243e-003
2.609325e+003,-8.145055e-003
2.611254e+003,-8.168728e-003
2.613183e+003,-8.158745e-003
2.615111e+003,-8.149055e-003
2.617040e+003,-8.135689e-003
2.618968e+003,-8.026444e-003
2.620897e+003,-7.927485e-003
2.622825e+003,-7.880633e-003
2.624754e+003,-7.883853e-003
2.626682e+003,-7.931779e-003
2.628611e+003,-7.901684e-003
2.630540e+003,-7.913853e-003
2.632468e+003,-7.922182e-003
2.634396e+003,-7.925273e-003
2.636325e+003,-7.970331e-003
2.638254e+003,-8.014604e-003
2.640182e+003,-8.013628e-003
2.642111e+003,-8.010180e-003
2.644039e+003,-8.004032e-003
2.645968e+003,-8.020199e-003
2.647896e+003,-8.057182e-003
2.649825e+003,-8.055197e-003
2.651753e+003,-7.987442e-003
2.653682e+003,-7.987898e-003
2.655611e+003,-8.060597e-003
2.657539e+003,-8.102779e-003
2.659468e+003,-8.144437e-003
2.661396e+003,-8.144697e-003
2.663325e+003,-8.213696e-003
2.665253e+003,-8.289315e-003
2.667182e+003,-8.340707e-003
2.669110e+003,-8.436549e-003
2.671039e+003,-8.492636e-003
2.672968e+003,-8.569213e-003
2.674896e+003,-8.593415e-003
2.676825e+003,-8.536270e-003
2.678753e+003,-8.519343e-003
2.680682e+003,-8.548941e-003
2.682610e+003,-8.491238e-003
2.684539e+003,-8.389005e-003
2.686467e+003,-8.313793e-003
2.688396e+003,-8.261228e-003
2.690324e+003,-8.154551e-003
2.692253e+003,-8.049212e-003
2.694182e+003,-7.972055e-003
2.696110e+003,-7.874482e-003
2.698039e+003,-7.781086e-003
2.699967e+003,-7.741835e-003
2.701896e+003,-7.739849e-003
2.703824e+003,-7.721752e-003
2.705753e+003,-7.686401e-003
2.707681e+003,-7.641215e-003
2.709610e+003,-7.627639e-003
2.711539e+003,-7.589546e-003
2.713467e+003,-7.550765e-003
2.715396e+003,-7.582480e-003
2.717324e+003,-7.565223e-003
2.719253e+003,-7.504328e-003
2.721181e+003,-7.527709e-003
2.723110e+003,-7.541321e-003
2.725038e+003,-7.489770e-003
2.726967e+003,-7.394858e-003
2.728896e+003,-7.333809e-003
2.730824e+003,-7.354431e-003
2.732752e+003,-7.390069e-003
2.734681e+003,-7.403490e-003
2.736610e+003,-7.395444e-003
2.738538e+003,-7.377072e-003
2.740467e+003,-7.353454e-003
2.742395e+003,-7.395510e-003
2.744324e+003,-7.407431e-003
2.746252e+003,-7.280017e-003
2.748181e+003,-7.222471e-003
2.750109e+003,-7.233616e-003
2.752038e+003,-7.215400e-003
2.753967e+003,-7.214585e-003
2.755895e+003,-7.208882e-003
2.757824e+003,-7.199594e-003
2.759752e+003,-7.127762e-003
2.761681e+003,-7.054222e-003
2.763609e+003,-7.066675e-003
2.765538e+003,-7.081409e-003
2.767466e+003,-7.051092e-003
2.769395e+003,-7.017871e-003
2.771323e+003,-6.970399e-003
2.773252e+003,-7.009035e-003
2.775181e+003,-7.058134e-003
2.777109e+003,-7.084930e-003
2.779038e+003,-7.078411e-003
2.780966e+003,-6.990517e-003
2.782895e+003,-6.968116e-003
2.784823e+003,-7.026250e-003
2.786752e+003,-6.969584e-003
2.788680e+003,-6.796897e-003
2.790609e+003,-6.787144e-003
2.792538e+003,-6.853358e-003
2.794466e+003,-6.856098e-003
2.796395e+003,-6.857435e-003
2.798323e+003,-6.900191e-003
2.800252e+003,-6.903452e-003
2.802180e+003,-6.903877e-003
2.804109e+003,-6.952465e-003
2.806037e+003,-7.002971e-003
2.807966e+003,-7.043659e-003
2.809895e+003,-7.118342e-003
2.811823e+003,-7.179747e-003
2.813751e+003,-7.258707e-003
2.815680e+003,-7.311101e-003
2.817609e+003,-7.223188e-003
2.819537e+003,-7.093079e-003
2.821466e+003,-7.078671e-003
2.823394e+003,-7.060872e-003
2.825323e+003,-6.873938e-003
2.827251e+003,-6.651194e-003
2.829180e+003,-6.515561e-003
2.831108e+003,-6.411164e-003
2.833037e+003,-6.254880e-003
2.834966e+003,-6.062991e-003
2.836894e+003,-5.918120e-003
2.838823e+003,-5.773789e-003
2.840751e+003,-5.549695e-003
2.842680e+003,-5.176570e-003
2.844608e+003,-4.729977e-003
2.846537e+003,-4.289879e-003
2.848465e+003,-3.802566e-003
2.850394e+003,-3.215949e-003
2.852323e+003,-2.731313e-003
2.854251e+003,-2.516679e-003
2.856180e+003,-2.400377e-003
2.858108e+003,-2.473687e-003
2.860037e+003,-2.627484e-003
2.861965e+003,-2.803120e-003
2.863894e+003,-2.910692e-003
2.865822e+003,-2.930998e-003
2.867751e+003,-3.000041e-003
2.869679e+003,-3.011426e-003
2.871608e+003,-2.897000e-003
2.873537e+003,-2.840022e-003
2.875465e+003,-2.890154e-003
2.877394e+003,-3.048311e-003
2.879322e+003,-3.132927e-003
2.881251e+003,-2.999481e-003
2.883179e+003,-2.786725e-003
2.885108e+003,-2.605879e-003
2.887036e+003,-2.501130e-003
2.888965e+003,-2.386636e-003
2.890894e+003,-2.265485e-003
2.892822e+003,-2.190326e-003
2.894750e+003,-2.111461e-003
2.896679e+003,-1.911201e-003
2.898608e+003,-1.691211e-003
2.900536e+003,-1.435378e-003
2.902465e+003,-9.964887e-004
2.904393e+003,-6.130770e-004
2.906322e+003,-3.142951e-004
2.908250e+003,-1.089311e-004
2.910179e+003,-7.931565e-005
2.912107e+003,-1.122436e-004
2.914036e+003,-7.885830e-006
2.915965e+003,1.577798e-004
2.917893e+003,3.874434e-004
2.919822e+003,6.451680e-004
2.921750e+003,8.300383e-004
2.923679e+003,9.571699e-004
2.925607e+003,1.036144e-003
2.927536e+003,1.108920e-003
2.929464e+003,1.132306e-003
2.931393e+003,1.057002e-003
2.933322e+003,8.969363e-004
2.935250e+003,7.173808e-004
2.937179e+003,5.884614e-004
2.939107e+003,5.528950e-004
2.941036e+003,5.613219e-004
2.942964e+003,7.119711e-004
2.944893e+003,9.310698e-004
2.946821e+003,1.278435e-003
2.948750e+003,1.703045e-003
2.950678e+003,2.130234e-003
2.952607e+003,2.667313e-003
2.954536e+003,3.260471e-003
2.956464e+003,3.821078e-003
2.958393e+003,4.302290e-003
2.960321e+003,4.590611e-003
2.962250e+003,4.826350e-003
2.964178e+003,4.980329e-003
2.966107e+003,4.899797e-003
2.968035e+003,4.668975e-003
2.969964e+003,4.427128e-003
2.971893e+003,4.268125e-003
2.973821e+003,3.968850e-003
2.975750e+003,3.506311e-003
2.977678e+003,2.995485e-003
2.979607e+003,2.444538e-003
2.981535e+003,1.886935e-003
2.983464e+003,1.391138e-003
2.985392e+003,9.077604e-004
2.987321e+003,5.198196e-004
2.989250e+003,2.290497e-004
2.991178e+003,-1.051216e-004
2.993106e+003,-3.994459e-004
2.995035e+003,-7.333657e-004
2.996964e+003,-9.765212e-004
2.998892e+003,-1.060815e-003
3.000821e+003,-1.249210e-003
3.002749e+003,-1.442775e-003
3.004678e+003,-1.647014e-003
3.006606e+003,-1.985782e-003
3.008535e+003,-2.373619e-003
3.010463e+003,-2.629559e-003
3.012392e+003,-2.804930e-003
3.014321e+003,-3.003298e-003
3.016249e+003,-3.228216e-003
3.018178e+003,-3.413241e-003
3.020106e+003,-3.625691e-003
3.022035e+003,-3.839876e-003
3.023963e+003,-3.947224e-003
3.025892e+003,-4.066856e-003
3.027820e+003,-4.214183e-003
3.029749e+003,-4.355655e-003
3.031677e+003,-4.489866e-003
3.033606e+003,-4.518985e-003
3.035535e+003,-4.492095e-003
3.037463e+003,-4.458612e-003
3.039392e+003,-4.482388e-003
3.041320e+003,-4.459531e-003
3.043249e+003,-4.330395e-003
3.045177e+003,-4.129318e-003
3.047106e+003,-3.907559e-003
3.049034e+003,-3.612646e-003
3.050963e+003,-3.312863e-003
3.052892e+003,-3.137302e-003
3.054820e+003,-3.088417e-003
3.056749e+003,-3.124769e-003
3.058677e+003,-3.209042e-003
3.060606e+003,-3.399467e-003
3.062534e+003,-3.459987e-003
3.064463e+003,-3.379675e-003
3.066391e+003,-3.374974e-003
3.068320e+003,-3.351893e-003
3.070249e+003,-3.284649e-003
3.072177e+003,-3.289615e-003
3.074105e+003,-3.344133e-003
3.076034e+003,-3.367609e-003
3.077963e+003,-3.309148e-003
3.079891e+003,-3.320393e-003
3.081820e+003,-3.342391e-003
3.083748e+003,-3.378031e-003
3.085677e+003,-3.469880e-003
3.087605e+003,-3.652733e-003
3.089534e+003,-3.791891e-003
3.091462e+003,-3.872881e-003
3.093391e+003,-3.935568e-003
3.095320e+003,-3.882076e-003
3.097248e+003,-3.792548e-003
3.099177e+003,-3.674253e-003
3.101105e+003,-3.605614e-003
3.103034e+003,-3.682664e-003
3.104962e+003,-3.593028e-003
3.106891e+003,-3.556847e-003
3.108819e+003,-3.682368e-003
3.110748e+003,-3.901550e-003
3.112677e+003,-4.066397e-003
3.114605e+003,-4.068136e-003
3.116534e+003,-4.092032e-003
3.118462e+003,-4.173558e-003
3.120391e+003,-4.326131e-003
3.122319e+003,-4.435294e-003
3.124248e+003,-4.327673e-003
3.126176e+003,-4.162794e-003
3.128105e+003,-4.162597e-003
3.130033e+003,-4.233642e-003
3.131962e+003,-4.264058e-003
3.133891e+003,-4.244798e-003
3.135819e+003,-4.309892e-003
3.137748e+003,-4.381733e-003
3.139676e+003,-4.462712e-003
3.141605e+003,-4.509049e-003
3.143533e+003,-4.495112e-003
3.145462e+003,-4.487931e-003
3.147390e+003,-4.524297e-003
3.149319e+003,-4.564168e-003
3.151248e+003,-4.622756e-003
3.153176e+003,-4.646326e-003
3.155104e+003,-4.615872e-003
3.157033e+003,-4.579546e-003
3.158962e+003,-4.619281e-003
3.160890e+003,-4.639213e-003
3.162819e+003,-4.535085e-003
3.164747e+003,-4.451955e-003
3.166676e+003,-4.492554e-003
3.168604e+003,-4.487996e-003
3.170533e+003,-4.510328e-003
3.172461e+003,-4.504721e-003
3.174390e+003,-4.377140e-003
3.176319e+003,-4.280529e-003
3.178247e+003,-4.250310e-003
3.180176e+003,-4.235151e-003
3.182104e+003,-4.219565e-003
3.184033e+003,-4.144579e-003
3.185961e+003,-4.161710e-003
3.187890e+003,-4.210180e-003
3.189818e+003,-4.210475e-003
3.191747e+003,-4.271637e-003
3.193676e+003,-4.243551e-003
3.195604e+003,-4.093608e-003
3.197532e+003,-4.081299e-003
3.199461e+003,-4.157772e-003
3.201390e+003,-4.120850e-003
3.203318e+003,-4.040267e-003
3.205247e+003,-4.028186e-003
3.207175e+003,-4.036853e-003
3.209104e+003,-3.994208e-003
3.211032e+003,-3.973590e-003
3.212961e+003,-3.985803e-003
3.214889e+003,-3.936488e-003
3.216818e+003,-3.961573e-003
3.218747e+003,-3.957075e-003
3.220675e+003,-3.819907e-003
3.222604e+003,-3.778095e-003
3.224532e+003,-3.797704e-003
3.226461e+003,-3.851174e-003
3.228389e+003,-3.893898e-003
3.230318e+003,-3.828841e-003
3.232246e+003,-3.789986e-003
3.234175e+003,-3.883292e-003
3.236104e+003,-3.915112e-003
3.238032e+003,-3.864474e-003
3.239961e+003,-3.890155e-003
3.241889e+003,-3.898627e-003
3.243818e+003,-3.763708e-003
3.245746e+003,-3.745904e-003
3.247675e+003,-3.933434e-003
3.249603e+003,-3.978416e-003
3.251532e+003,-3.826838e-003
3.253460e+003,-3.763708e-003
3.255389e+003,-3.783843e-003
3.257318e+003,-3.766861e-003
3.259246e+003,-3.736574e-003
3.261175e+003,-3.655755e-003
3.263103e+003,-3.573969e-003
3.265032e+003,-3.595559e-003
3.266960e+003,-3.750568e-003
3.268889e+003,-3.807394e-003
3.270817e+003,-3.705103e-003
3.272746e+003,-3.656281e-003
3.274675e+003,-3.629700e-003
3.276603e+003,-3.575152e-003
3.278531e+003,-3.526907e-003
3.280460e+003,-3.568743e-003
3.282389e+003,-3.602229e-003
3.284317e+003,-3.520794e-003
3.286246e+003,-3.426753e-003
3.288174e+003,-3.363565e-003
3.290103e+003,-3.406239e-003
3.292031e+003,-3.380267e-003
3.293960e+003,-3.195655e-003
3.295888e+003,-3.273699e-003
3.297817e+003,-3.520334e-003
3.299746e+003,-3.621945e-003
3.301674e+003,-3.538508e-003
3.303603e+003,-3.406206e-003
3.305531e+003,-3.348901e-003
3.307460e+003,-3.326509e-003
3.309388e+003,-3.406699e-003
3.311317e+003,-3.550767e-003
3.313245e+003,-3.476915e-003
3.315174e+003,-3.359652e-003
3.317103e+003,-3.375434e-003
3.319031e+003,-3.531147e-003
3.320960e+003,-3.616490e-003
3.322888e+003,-3.502552e-003
3.324817e+003,-3.449862e-003
3.326745e+003,-3.592273e-003
3.328674e+003,-3.496998e-003
3.330602e+003,-3.374875e-003
3.332531e+003,-3.481549e-003
3.334459e+003,-3.613467e-003
3.336388e+003,-3.615735e-003
3.338317e+003,-3.672512e-003
3.340245e+003,-3.751193e-003
3.342174e+003,-3.787489e-003
3.344102e+003,-3.703526e-003
3.346031e+003,-3.681383e-003
3.347959e+003,-3.722974e-003
3.349888e+003,-3.692356e-003
3.351816e+003,-3.646490e-003
3.353745e+003,-3.701982e-003
3.355674e+003,-3.685194e-003
3.357602e+003,-3.724453e-003
3.359531e+003,-3.954251e-003
3.361459e+003,-4.028285e-003
3.363388e+003,-3.971193e-003
3.365316e+003,-3.921317e-003
3.367245e+003,-3.761934e-003
3.369173e+003,-3.762131e-003
3.371102e+003,-3.845229e-003
3.373031e+003,-3.875147e-003
3.374959e+003,-3.903290e-003
3.376887e+003,-3.947126e-003
3.378816e+003,-4.132994e-003
3.380745e+003,-4.234593e-003
3.382673e+003,-4.257397e-003
3.384602e+003,-4.323736e-003
3.386530e+003,-4.319077e-003
3.388459e+003,-4.253591e-003
3.390387e+003,-4.182550e-003
3.392316e+003,-4.133060e-003
3.394244e+003,-4.286467e-003
3.396173e+003,-4.464811e-003
3.398102e+003,-4.396985e-003
3.400030e+003,-4.295850e-003
3.401959e+003,-4.368743e-003
3.403887e+003,-4.544430e-003
3.405816e+003,-4.567710e-003
3.407744e+003,-4.442378e-003
3.409673e+003,-4.468549e-003
3.411601e+003,-4.549348e-003
3.413530e+003,-4.509508e-003
3.415458e+003,-4.550168e-003
3.417387e+003,-4.565447e-003
3.419316e+003,-4.448970e-003
3.421244e+003,-4.411515e-003
3.423173e+003,-4.457137e-003
3.425101e+003,-4.519837e-003
3.427030e+003,-4.610167e-003
3.428958e+003,-4.553152e-003
3.430887e+003,-4.480815e-003
3.432815e+003,-4.351620e-003
3.434744e+003,-4.252148e-003
3.436673e+003,-4.396362e-003
3.438601e+003,-4.541479e-003
3.440530e+003,-4.625379e-003
3.442458e+003,-4.669011e-003
3.444387e+003,-4.688842e-003
3.446315e+003,-4.755475e-003
3.448244e+003,-4.693660e-003
3.450172e+003,-4.672191e-003
3.452101e+003,-4.797881e-003
3.454030e+003,-4.901848e-003
3.455958e+003,-4.916918e-003
3.457886e+003,-4.916395e-003
3.459815e+003,-4.937230e-003
3.461744e+003,-4.927205e-003
3.463672e+003,-4.914592e-003
3.465601e+003,-4.822196e-003
3.467529e+003,-4.605905e-003
3.469458e+003,-4.540299e-003
3.471386e+003,-4.657079e-003
3.473315e+003,-4.755049e-003
3.475243e+003,-4.745184e-003
3.477172e+003,-4.634722e-003
3.479101e+003,-4.552267e-003
3.481029e+003,-4.567087e-003
3.482958e+003,-4.567808e-003
3.484886e+003,-4.479896e-003
3.486815e+003,-4.450610e-003
3.488743e+003,-4.499671e-003
3.490672e+003,-4.580562e-003
3.492600e+003,-4.548201e-003
3.494529e+003,-4.511967e-003
3.496458e+003,-4.533642e-003
3.498386e+003,-4.508262e-003
3.500315e+003,-4.324490e-003
3.502243e+003,-4.265600e-003
3.504172e+003,-4.336694e-003
3.506100e+003,-4.302215e-003
3.508029e+003,-4.271637e-003
3.509957e+003,-4.237054e-003
3.511886e+003,-4.232362e-003
3.513814e+003,-4.454480e-003
3.515743e+003,-4.591972e-003
3.517672e+003,-4.593250e-003
3.519600e+003,-4.569152e-003
3.521529e+003,-4.531282e-003
3.523457e+003,-4.481929e-003
3.525386e+003,-4.548332e-003
3.527314e+003,-4.672354e-003
3.529243e+003,-4.604036e-003
3.531171e+003,-4.513246e-003
3.533100e+003,-4.493309e-003
3.535029e+003,-4.462088e-003
3.536957e+003,-4.524723e-003
3.538885e+003,-4.562004e-003
3.540814e+003,-4.552430e-003
3.542743e+003,-4.499048e-003
3.544671e+003,-4.580300e-003
3.546600e+003,-4.754131e-003
3.548528e+003,-4.823016e-003
3.550457e+003,-4.764947e-003
3.552385e+003,-4.786969e-003
3.554314e+003,-4.862237e-003
3.556242e+003,-4.976212e-003
3.558171e+003,-5.062812e-003
3.560100e+003,-5.050039e-003
3.562028e+003,-5.022200e-003
3.563957e+003,-5.159217e-003
3.565885e+003,-5.321885e-003
3.567814e+003,-5.238087e-003
3.569742e+003,-5.175163e-003
3.571671e+003,-5.246730e-003
3.573599e+003,-5.272721e-003
3.575528e+003,-5.425269e-003
3.577457e+003,-5.605730e-003
3.579385e+003,-5.608477e-003
3.581314e+003,-5.527941e-003
3.583242e+003,-5.618551e-003
3.585171e+003,-5.790595e-003
3.587099e+003,-5.878797e-003
3.589028e+003,-6.010218e-003
3.590956e+003,-6.106021e-003
3.592885e+003,-5.881805e-003
3.594813e+003,-5.839177e-003
3.596742e+003,-5.999696e-003
3.598671e+003,-6.046490e-003
3.600599e+003,-6.036033e-003
3.602528e+003,-6.121802e-003
3.604456e+003,-6.242044e-003
3.606385e+003,-6.094391e-003
3.608313e+003,-6.016688e-003
3.610242e+003,-6.172993e-003
3.612170e+003,-6.277774e-003
3.614099e+003,-6.305500e-003
3.616028e+003,-6.330678e-003
3.617956e+003,-6.254096e-003
3.619885e+003,-6.075342e-003
3.621813e+003,-6.142481e-003
3.623742e+003,-6.226693e-003
3.625670e+003,-6.287539e-003
3.627599e+003,-6.285122e-003
3.629527e+003,-6.195859e-003
3.631456e+003,-6.242044e-003
3.633385e+003,-6.239301e-003
3.635313e+003,-6.227803e-003
3.637241e+003,-6.284175e-003
3.639170e+003,-6.367086e-003
3.641099e+003,-6.501982e-003
3.643027e+003,-6.553912e-003
3.644956e+003,-6.603323e-003
3.646884e+003,-6.742974e-003
3.648813e+003,-6.730185e-003
3.650741e+003,-6.767115e-003
3.652670e+003,-6.959051e-003
3.654598e+003,-7.005547e-003
3.656527e+003,-6.943497e-003
3.658456e+003,-6.960975e-003
3.660384e+003,-7.011514e-003
3.662313e+003,-7.214488e-003
3.664241e+003,-7.309569e-003
3.666170e+003,-7.251278e-003
3.668098e+003,-7.278583e-003
3.670027e+003,-7.245543e-003
3.671955e+003,-7.209078e-003
3.673884e+003,-7.348306e-003
3.675813e+003,-7.342116e-003
3.677741e+003,-7.303053e-003
3.679670e+003,-7.329899e-003
3.681598e+003,-7.384727e-003
3.683527e+003,-7.450003e-003
3.685455e+003,-7.525170e-003
3.687384e+003,-7.748442e-003
3.689312e+003,-7.888767e-003
3.691241e+003,-7.910501e-003
3.693169e+003,-8.021858e-003
3.695098e+003,-8.134942e-003
3.697027e+003,-7.989589e-003
3.698955e+003,-7.918115e-003
3.700884e+003,-7.966167e-003
3.702812e+003,-7.929112e-003
3.704741e+003,-8.009464e-003
3.706669e+003,-8.069215e-003
3.708598e+003,-8.053050e-003
3.710526e+003,-8.082290e-003
3.712455e+003,-8.073736e-003
3.714384e+003,-8.082095e-003
3.716312e+003,-8.066386e-003
3.718240e+003,-7.957221e-003
3.720169e+003,-7.887010e-003
3.722098e+003,-7.991866e-003
3.724026e+003,-8.161900e-003
3.725955e+003,-8.234959e-003
3.727883e+003,-8.198122e-003
3.729812e+003,-8.095689e-003
3.731740e+003,-8.068858e-003
3.733669e+003,-8.178483e-003
3.735597e+003,-8.201634e-003
3.737526e+003,-8.112828e-003
3.739455e+003,-8.069378e-003
3.741383e+003,-8.132145e-003
3.743312e+003,-8.300855e-003
3.745240e+003,-8.273971e-003
3.747169e+003,-8.176174e-003
3.749097e+003,-8.139852e-003
3.751026e+003,-8.130161e-003
3.752954e+003,-8.040919e-003
3.754883e+003,-8.121771e-003
3.756812e+003,-8.216524e-003
3.758740e+003,-8.183197e-003
3.760669e+003,-8.179296e-003
3.762597e+003,-8.217435e-003
3.764526e+003,-8.208299e-003
3.766454e+003,-8.233529e-003
3.768383e+003,-8.371682e-003
3.770311e+003,-8.377987e-003
3.772240e+003,-8.162354e-003
3.774168e+003,-8.055555e-003
3.776097e+003,-8.128796e-003
3.778026e+003,-8.123950e-003
3.779954e+003,-8.039813e-003
3.781883e+003,-8.199162e-003
3.783811e+003,-8.253556e-003
3.785740e+003,-8.193667e-003
3.787668e+003,-8.223548e-003
3.789597e+003,-8.317271e-003
3.791525e+003,-8.384097e-003
3.793454e+003,-8.273777e-003
3.795383e+003,-8.184660e-003
3.797311e+003,-8.166777e-003
3.799240e+003,-8.238470e-003
3.801168e+003,-8.277840e-003
3.803097e+003,-8.215419e-003
3.805025e+003,-8.263471e-003
3.806954e+003,-8.279661e-003
3.808882e+003,-8.283822e-003
3.810811e+003,-8.223644e-003
3.812740e+003,-8.179686e-003
3.814668e+003,-8.197764e-003
3.816596e+003,-8.130063e-003
3.818525e+003,-8.227449e-003
3.820454e+003,-8.376817e-003
3.822382e+003,-8.447143e-003
3.824311e+003,-8.417863e-003
3.826239e+003,-8.258692e-003
3.828168e+003,-8.282521e-003
3.830096e+003,-8.415979e-003
3.832025e+003,-8.306804e-003
3.833953e+003,-8.279628e-003
3.835882e+003,-8.386827e-003
3.837811e+003,-8.408570e-003
3.839739e+003,-8.510050e-003
3.841668e+003,-8.494065e-003
3.843596e+003,-8.308560e-003
3.845525e+003,-8.184466e-003
3.847453e+003,-8.145347e-003
3.849382e+003,-8.336449e-003
3.851310e+003,-8.426898e-003
3.853239e+003,-8.456958e-003
3.855167e+003,-8.483959e-003
3.857096e+003,-8.518953e-003
3.859025e+003,-8.618687e-003
3.860953e+003,-8.671080e-003
3.862882e+003,-8.576620e-003
3.864810e+003,-8.516192e-003
3.866739e+003,-8.414776e-003
3.868667e+003,-8.415719e-003
3.870596e+003,-8.564990e-003
3.872524e+003,-8.491433e-003
3.874453e+003,-8.292176e-003
3.876382e+003,-8.267274e-003
3.878310e+003,-8.386794e-003
3.880239e+003,-8.445681e-003
3.882167e+003,-8.434827e-003
3.884096e+003,-8.479151e-003
3.886024e+003,-8.550988e-003
3.887953e+003,-8.472489e-003
3.889881e+003,-8.484934e-003
3.891810e+003,-8.570026e-003
3.893739e+003,-8.612094e-003
3.895667e+003,-8.600724e-003
3.897595e+003,-8.593155e-003
3.899524e+003,-8.616966e-003
3.901453e+003,-8.504462e-003
3.903381e+003,-8.285674e-003
3.905310e+003,-8.218963e-003
3.907238e+003,-8.393067e-003
3.909167e+003,-8.536368e-003
3.911095e+003,-8.550306e-003
3.913024e+003,-8.601276e-003
3.914952e+003,-8.600302e-003
3.916881e+003,-8.644868e-003
3.918810e+003,-8.606344e-003
3.920738e+003,-8.420302e-003
3.922667e+003,-8.450718e-003
3.924595e+003,-8.479605e-003
3.926524e+003,-8.410486e-003
3.928452e+003,-8.497931e-003
3.930381e+003,-8.631680e-003
3.932309e+003,-8.580161e-003
3.934238e+003,-8.537278e-003
3.936167e+003,-8.533704e-003
3.938095e+003,-8.619597e-003
3.940024e+003,-8.780325e-003
3.941952e+003,-8.753991e-003
3.943881e+003,-8.551020e-003
3.945809e+003,-8.406749e-003
3.947738e+003,-8.439897e-003
3.949666e+003,-8.520026e-003
3.951595e+003,-8.509336e-003
3.953523e+003,-8.434048e-003
3.955452e+003,-8.368399e-003
3.957380e+003,-8.353870e-003
3.959309e+003,-8.467875e-003
3.961238e+003,-8.549136e-003
3.963166e+003,-8.569505e-003
3.965095e+003,-8.540462e-003
3.967023e+003,-8.388712e-003
3.968952e+003,-8.419327e-003
3.970880e+003,-8.483959e-003
3.972809e+003,-8.447664e-003
3.974737e+003,-8.458387e-003
3.976666e+003,-8.482953e-003
3.978594e+003,-8.406749e-003
3.980523e+003,-8.455430e-003
3.982452e+003,-8.613750e-003
3.984380e+003,-8.602738e-003
3.986309e+003,-8.607513e-003
3.988237e+003,-8.592343e-003
3.990166e+003,-8.455138e-003
3.992094e+003,-8.424396e-003
3.994023e+003,-8.466771e-003
3.995951e+003,-8.553327e-003
3.997880e+003,-8.756101e-003
3.999809e+003,-8.703330e-003
4.001737e+003,0.000000e+000
