3.992094e+002,0.000000e+000
4.011380e+002,0.000000e+000
4.030665e+002,0.000000e+000
4.049951e+002,0.000000e+000
4.069236e+002,0.000000e+000
4.088522e+002,0.000000e+000
4.107807e+002,0.000000e+000
4.127093e+002,0.000000e+000
4.146378e+002,0.000000e+000
4.165664e+002,0.000000e+000
4.184949e+002,0.000000e+000
4.204235e+002,0.000000e+000
4.223520e+002,0.000000e+000
4.242806e+002,0.000000e+000
4.262091e+002,0.000000e+000
4.281377e+002,0.000000e+000
4.300662e+002,0.000000e+000
4.319948e+002,0.000000e+000
4.339233e+002,0.000000e+000
4.358519e+002,0.000000e+000
4.377804e+002,0.000000e+000
4.397090e+002,0.000000e+000
4.416375e+002,0.000000e+000
4.435660e+002,0.000000e+000
4.454946e+002,0.000000e+000
4.474232e+002,0.000000e+000
4.493517e+002,0.000000e+000
4.512802e+002,0.000000e+000
4.532088e+002,0.000000e+000
4.551373e+002,0.000000e+000
4.570659e+002,0.000000e+000
4.589944e+002,0.000000e+000
4.609230e+002,0.000000e+000
4.628515e+002,0.000000e+000
4.647801e+002,0.000000e+000
4.667086e+002,0.000000e+000
4.686372e+002,0.000000e+000
4.705657e+002,0.000000e+000
4.724943e+002,0.000000e+000
4.744228e+002,0.000000e+000
4.763514e+002,0.000000e+000
4.782799e+002,0.000000e+000
4.802085e+002,0.000000e+000
4.821370e+002,0.000000e+000
4.840656e+002,0.000000e+000
4.859941e+002,0.000000e+000
4.879226e+002,0.000000e+000
4.898512e+002,0.000000e+000
4.917798e+002,0.000000e+000
4.937083e+002,0.000000e+000
4.956368e+002,0.000000e+000
4.975654e+002,0.000000e+000
4.994939e+002,0.000000e+000
5.014225e+002,0.000000e+000
5.033510e+002,0.000000e+000
5.052796e+002,0.000000e+000
5.072081e+002,0.000000e+000
5.091367e+002,0.000000e+000
5.110652e+002,0.000000e+000
5.129938e+002,0.000000e+000
5.149223e+002,0.000000e+000
5.168509e+002,0.000000e+000
5.187794e+002,0.000000e+000
5.207079e+002,0.000000e+000
5.226365e+002,0.000000e+000
5.245651e+002,0.000000e+000
5.264936e+002,0.000000e+000
5.284221e+002,0.000000e+000
5.303507e+002,0.000000e+000
5.322792e+002,0.000000e+000
5.342078e+002,0.000000e+000
5.361364e+002,0.000000e+000
5.380649e+002,0.000000e+000
5.399934e+002,0.000000e+000
5.419220e+002,0.000000e+000
5.438505e+002,0.000000e+000
5.457791e+002,0.000000e+000
5.477076e+002,0.000000e+000
5.496362e+002,0.000000e+000
5.515647e+002,0.000000e+000
5.534933e+002,0.000000e+000
5.554218e+002,0.000000e+000
5.573503e+002,0.000000e+000
5.592789e+002,0.000000e+000
5.612075e+002,0.000000e+000
5.631360e+002,0.000000e+000
5.650646e+002,0.000000e+000
5.669931e+002,0.000000e+000
5.689216e+002,0.000000e+000
5.708502e+002,0.000000e+000
5.727787e+002,0.000000e+000
5.747073e+002,0.000000e+000
5.766359e+002,0.000000e+000
5.785644e+002,0.000000e+000
5.804929e+002,0.000000e+000
5.824215e+002,0.000000e+000
5.843500e+002,0.000000e+000
5.862786e+002,0.000000e+000
5.882072e+002,0.000000e+000
5.901357e+002,0.000000e+000
5.920642e+002,0.000000e+000
5.939928e+002,0.000000e+000
5.959213e+002,0.000000e+000
5.978499e+002,0.000000e+000
5.997784e+002,0.000000e+000
6.017070e+002,0.000000e+000
6.036355e+002,0.000000e+000
6.055641e+002,0.000000e+000
6.074926e+002,0.000000e+000
6.094211e+002,0.000000e+000
6.113497e+002,0.000000e+000
6.132783e+002,0.000000e+000
6.152068e+002,0.000000e+000
6.171354e+002,0.000000e+000
6.190639e+002,0.000000e+000
6.209924e+002,0.000000e+000
6.229210e+002,0.000000e+000
6.248495e+002,0.000000e+000
6.267781e+002,0.000000e+000
6.287067e+002,0.000000e+000
6.306352e+002,0.000000e+000
6.325637e+002,0.000000e+000
6.344923e+002,0.000000e+000
6.364208e+002,0.000000e+000
6.383494e+002,0.000000e+000
6.402780e+002,0.000000e+000
6.422065e+002,0.000000e+000
6.441350e+002,0.000000e+000
6.460636e+002,0.000000e+000
6.479921e+002,0.000000e+000
6.499207e+002,0.000000e+000
6.518492e+002,0.000000e+000
6.537778e+002,0.000000e+000
6.557063e+002,0.000000e+000
6.576349e+002,0.000000e+000
6.595634e+002,0.000000e+000
6.614919e+002,0.000000e+000
6.634205e+002,0.000000e+000
6.653491e+002,0.000000e+000
6.672776e+002,0.000000e+000
6.692062e+002,0.000000e+000
6.711347e+002,0.000000e+000
6.730632e+002,0.000000e+000
6.749918e+002,4.105671e-002
6.769203e+002,4.348533e-002
6.788489e+002,4.533167e-002
6.807775e+002,4.557750e-002
6.827060e+002,4.564974e-002
6.846345e+002,4.591030e-002
6.865631e+002,4.604648e-002
6.884916e+002,4.683332e-002
6.904202e+002,4.882458e-002
6.923488e+002,5.056655e-002
6.942773e+002,5.226239e-002
6.962058e+002,5.560545e-002
6.981344e+002,6.077418e-002
7.000629e+002,6.777563e-002
7.019915e+002,7.540885e-002
7.039200e+002,8.159953e-002
7.058486e+002,8.663211e-002
7.077771e+002,9.199880e-002
7.097057e+002,9.887712e-002
7.116342e+002,1.069576e-001
7.135627e+002,1.160456e-001
7.154913e+002,1.305154e-001
7.174199e+002,1.598842e-001
7.193484e+002,2.133062e-001
7.212770e+002,3.016006e-001
7.232055e+002,4.099587e-001
7.251340e+002,4.587185e-001
7.270626e+002,4.111649e-001
7.289911e+002,3.309822e-001
7.309197e+002,2.622330e-001
7.328483e+002,2.070408e-001
7.347768e+002,1.602713e-001
7.367053e+002,1.184645e-001
7.386339e+002,8.218195e-002
7.405624e+002,5.320524e-002
7.424910e+002,3.388019e-002
7.444196e+002,2.273050e-002
7.463481e+002,1.690331e-002
7.482766e+002,1.367102e-002
7.502052e+002,1.188119e-002
7.521337e+002,1.132355e-002
7.540623e+002,1.146475e-002
7.559908e+002,1.127989e-002
7.579194e+002,1.109544e-002
7.598479e+002,1.144668e-002
7.617765e+002,1.228064e-002
7.637050e+002,1.290108e-002
7.656335e+002,1.372170e-002
7.675621e+002,1.518992e-002
7.694907e+002,1.668334e-002
7.714192e+002,1.793528e-002
7.733478e+002,1.901891e-002
7.752763e+002,2.021360e-002
7.772048e+002,2.174306e-002
7.791334e+002,2.333298e-002
7.810620e+002,2.524413e-002
7.829905e+002,2.789879e-002
7.849191e+002,3.182962e-002
7.868476e+002,3.678739e-002
7.887761e+002,4.239525e-002
7.907047e+002,4.815590e-002
7.926332e+002,5.166747e-002
7.945618e+002,4.996436e-002
7.964904e+002,4.349475e-002
7.984189e+002,3.761684e-002
8.003474e+002,3.616655e-002
8.022760e+002,3.695642e-002
8.042045e+002,3.772612e-002
8.061331e+002,3.832188e-002
8.080616e+002,3.873084e-002
8.099902e+002,3.875696e-002
8.119187e+002,3.887609e-002
8.138473e+002,3.891711e-002
8.157758e+002,3.853730e-002
8.177043e+002,3.819016e-002
8.196329e+002,3.822765e-002
8.215615e+002,3.870339e-002
8.234900e+002,3.942898e-002
8.254186e+002,4.026462e-002
8.273471e+002,4.118245e-002
8.292756e+002,4.234330e-002
8.312042e+002,4.380187e-002
8.331328e+002,4.551428e-002
8.350613e+002,4.727905e-002
8.369899e+002,4.894639e-002
8.389184e+002,5.027677e-002
8.408469e+002,5.098587e-002
8.427755e+002,5.133016e-002
8.447040e+002,5.164404e-002
8.466326e+002,5.192043e-002
8.485612e+002,5.215025e-002
8.504896e+002,5.203766e-002
8.524182e+002,5.225622e-002
8.543468e+002,5.267587e-002
8.562753e+002,5.320217e-002
8.582039e+002,5.409444e-002
8.601324e+002,5.593845e-002
8.620609e+002,5.966235e-002
8.639895e+002,6.614147e-002
8.659181e+002,7.582112e-002
8.678466e+002,8.895531e-002
8.697751e+002,1.038073e-001
8.717037e+002,1.156830e-001
8.736322e+002,1.189299e-001
8.755608e+002,1.122866e-001
8.774894e+002,9.983847e-002
8.794178e+002,8.667960e-002
8.813464e+002,7.595457e-002
8.832750e+002,6.797553e-002
8.852035e+002,6.221265e-002
8.871321e+002,5.851169e-002
8.890607e+002,5.640947e-002
8.909891e+002,5.538636e-002
8.929177e+002,5.507186e-002
8.948463e+002,5.494663e-002
8.967748e+002,5.449131e-002
8.987034e+002,5.330266e-002
9.006320e+002,5.125368e-002
9.025604e+002,4.807591e-002
9.044890e+002,4.390821e-002
9.064176e+002,3.939952e-002
9.083461e+002,3.521867e-002
9.102747e+002,3.171095e-002
9.122032e+002,2.919899e-002
9.141317e+002,2.750812e-002
9.160603e+002,2.645542e-002
9.179889e+002,2.587230e-002
9.199174e+002,2.575738e-002
9.218459e+002,2.600782e-002
9.237745e+002,2.638373e-002
9.257030e+002,2.683013e-002
9.276316e+002,2.727798e-002
9.295602e+002,2.769175e-002
9.314886e+002,2.806262e-002
9.334172e+002,2.829243e-002
9.353458e+002,2.852059e-002
9.372743e+002,2.880944e-002
9.392029e+002,2.913393e-002
9.411315e+002,2.948205e-002
9.430599e+002,2.995952e-002
9.449885e+002,3.050568e-002
9.469171e+002,3.121168e-002
9.488456e+002,3.202359e-002
9.507742e+002,3.280602e-002
9.527028e+002,3.367627e-002
9.546312e+002,3.469853e-002
9.565598e+002,3.583202e-002
9.584884e+002,3.721000e-002
9.604169e+002,3.869951e-002
9.623455e+002,4.024325e-002
9.642740e+002,4.203275e-002
9.662025e+002,4.399602e-002
9.681311e+002,4.588997e-002
9.700597e+002,4.737715e-002
9.719882e+002,4.823317e-002
9.739167e+002,4.849057e-002
9.758453e+002,4.830682e-002
9.777738e+002,4.789988e-002
9.797024e+002,4.735384e-002
9.816310e+002,4.684277e-002
9.835594e+002,4.640884e-002
9.854880e+002,4.620761e-002
9.874166e+002,4.628295e-002
9.893451e+002,4.645803e-002
9.912737e+002,4.688935e-002
9.932023e+002,4.768246e-002
9.951307e+002,4.876163e-002
9.970593e+002,5.038742e-002
9.989879e+002,5.264292e-002
1.000916e+003,5.534992e-002
1.002845e+003,5.869314e-002
1.004774e+003,6.337432e-002
1.006702e+003,7.048449e-002
1.008631e+003,8.135211e-002
1.010559e+003,9.861782e-002
1.012488e+003,1.277966e-001
1.014416e+003,1.683110e-001
1.016345e+003,1.975581e-001
1.018273e+003,1.904411e-001
1.020202e+003,1.569179e-001
1.022130e+003,1.234922e-001
1.024059e+003,1.032985e-001
1.025988e+003,9.524648e-002
1.027916e+003,9.363159e-002
1.029845e+003,9.459767e-002
1.031773e+003,9.652906e-002
1.033702e+003,9.883331e-002
1.035630e+003,1.014146e-001
1.037559e+003,1.042383e-001
1.039487e+003,1.067545e-001
1.041416e+003,1.079534e-001
1.043344e+003,1.074056e-001
1.045273e+003,1.049748e-001
1.047202e+003,1.007367e-001
1.049130e+003,9.513435e-002
1.051059e+003,8.927689e-002
1.052987e+003,8.387137e-002
1.054916e+003,7.955515e-002
1.056844e+003,7.672228e-002
1.058773e+003,7.569586e-002
1.060701e+003,7.654306e-002
1.062630e+003,7.915412e-002
1.064558e+003,8.342610e-002
1.066487e+003,8.934693e-002
1.068416e+003,9.710032e-002
1.070344e+003,1.070196e-001
1.072273e+003,1.197136e-001
1.074201e+003,1.358292e-001
1.076130e+003,1.555672e-001
1.078058e+003,1.789880e-001
1.079987e+003,2.056029e-001
1.081915e+003,2.340257e-001
1.083844e+003,2.626508e-001
1.085773e+003,2.911048e-001
1.087701e+003,3.191969e-001
1.089630e+003,3.458411e-001
1.091558e+003,3.686584e-001
1.093487e+003,3.841625e-001
1.095415e+003,3.889222e-001
1.097344e+003,3.813450e-001
1.099272e+003,3.622297e-001
1.101201e+003,3.347489e-001
1.103129e+003,3.034570e-001
1.105058e+003,2.727635e-001
1.106987e+003,2.461258e-001
1.108915e+003,2.268209e-001
1.110844e+003,2.179274e-001
1.112772e+003,2.193492e-001
1.114701e+003,2.260426e-001
1.116629e+003,2.311944e-001
1.118558e+003,2.301200e-001
1.120486e+003,2.215886e-001
1.122415e+003,2.072227e-001
1.124344e+003,1.900876e-001
1.126272e+003,1.731681e-001
1.128201e+003,1.584541e-001
1.130129e+003,1.466394e-001
1.132058e+003,1.371795e-001
1.133986e+003,1.292150e-001
1.135915e+003,1.216378e-001
1.137843e+003,1.135251e-001
1.139772e+003,1.045457e-001
1.141700e+003,9.462202e-002
1.143629e+003,8.413519e-002
1.145557e+003,7.372751e-002
1.147486e+003,6.411913e-002
1.149415e+003,5.569798e-002
1.151343e+003,4.872089e-002
1.153272e+003,4.324914e-002
1.155200e+003,3.919154e-002
1.157129e+003,3.661011e-002
1.159057e+003,3.537232e-002
1.160986e+003,3.514042e-002
1.162914e+003,3.582256e-002
1.164843e+003,3.751225e-002
1.166771e+003,4.053037e-002
1.168700e+003,4.486166e-002
1.170629e+003,4.946626e-002
1.172557e+003,5.272828e-002
1.174486e+003,5.374170e-002
1.176414e+003,5.237837e-002
1.178343e+003,4.935198e-002
1.180271e+003,4.563484e-002
1.182200e+003,4.202103e-002
1.184128e+003,3.927742e-002
1.186057e+003,3.791261e-002
1.187986e+003,3.769124e-002
1.189914e+003,3.842112e-002
1.191843e+003,3.997531e-002
1.193771e+003,4.204502e-002
1.195700e+003,4.445511e-002
1.197628e+003,4.703891e-002
1.199557e+003,4.960047e-002
1.201485e+003,5.238338e-002
1.203414e+003,5.551778e-002
1.205343e+003,5.901352e-002
1.207271e+003,6.290162e-002
1.209200e+003,6.728655e-002
1.211128e+003,7.236183e-002
1.213057e+003,7.839456e-002
1.214985e+003,8.555984e-002
1.216914e+003,9.425932e-002
1.218842e+003,1.048578e-001
1.220771e+003,1.174621e-001
1.222699e+003,1.323659e-001
1.224628e+003,1.498785e-001
1.226557e+003,1.704350e-001
1.228485e+003,1.949337e-001
1.230414e+003,2.244686e-001
1.232342e+003,2.602848e-001
1.234271e+003,3.022366e-001
1.236199e+003,3.466350e-001
1.238128e+003,3.865590e-001
1.240056e+003,4.153531e-001
1.241985e+003,4.298956e-001
1.243913e+003,4.314581e-001
1.245842e+003,4.239070e-001
1.247771e+003,4.118096e-001
1.249699e+003,3.987884e-001
1.251628e+003,3.875465e-001
1.253556e+003,3.797994e-001
1.255485e+003,3.761003e-001
1.257413e+003,3.746949e-001
1.259342e+003,3.716970e-001
1.261270e+003,3.625152e-001
1.263199e+003,3.456229e-001
1.265127e+003,3.228795e-001
1.267056e+003,2.975404e-001
1.268985e+003,2.726952e-001
1.270913e+003,2.508891e-001
1.272842e+003,2.340177e-001
1.274770e+003,2.225503e-001
1.276699e+003,2.151108e-001
1.278627e+003,2.098265e-001
1.280556e+003,2.046096e-001
1.282484e+003,1.983530e-001
1.284413e+003,1.906516e-001
1.286342e+003,1.811869e-001
1.288270e+003,1.700127e-001
1.290199e+003,1.574538e-001
1.292127e+003,1.438441e-001
1.294056e+003,1.296065e-001
1.295984e+003,1.150945e-001
1.297913e+003,1.010217e-001
1.299841e+003,8.836369e-002
1.301770e+003,7.823643e-002
1.303698e+003,7.086351e-002
1.305627e+003,6.513022e-002
1.307556e+003,5.966204e-002
1.309484e+003,5.412672e-002
1.311413e+003,4.888939e-002
1.313341e+003,4.421956e-002
1.315270e+003,4.012679e-002
1.317198e+003,3.650533e-002
1.319127e+003,3.304079e-002
1.321055e+003,2.959157e-002
1.322984e+003,2.628508e-002
1.324912e+003,2.326191e-002
1.326841e+003,2.090768e-002
1.328770e+003,1.957414e-002
1.330698e+003,1.954704e-002
1.332627e+003,2.123006e-002
1.334555e+003,2.481896e-002
1.336484e+003,2.945535e-002
1.338412e+003,3.310640e-002
1.340341e+003,3.404766e-002
1.342269e+003,3.207595e-002
1.344198e+003,2.839648e-002
1.346126e+003,2.434595e-002
1.348055e+003,2.073126e-002
1.349984e+003,1.802407e-002
1.351912e+003,1.629471e-002
1.353841e+003,1.544563e-002
1.355769e+003,1.535315e-002
1.357698e+003,1.609042e-002
1.359626e+003,1.785639e-002
1.361555e+003,2.102963e-002
1.363483e+003,2.607379e-002
1.365412e+003,3.243030e-002
1.367341e+003,3.840914e-002
1.369269e+003,4.225470e-002
1.371198e+003,4.325415e-002
1.373126e+003,4.200789e-002
1.375055e+003,3.940794e-002
1.376983e+003,3.626018e-002
1.378912e+003,3.318458e-002
1.380840e+003,3.065439e-002
1.382769e+003,2.902027e-002
1.384698e+003,2.842245e-002
1.386626e+003,2.881430e-002
1.388555e+003,3.014107e-002
1.390483e+003,3.216193e-002
1.392412e+003,3.483322e-002
1.394340e+003,3.817562e-002
1.396269e+003,4.197282e-002
1.398197e+003,4.638646e-002
1.400126e+003,5.213109e-002
1.402054e+003,5.991685e-002
1.403983e+003,7.100262e-002
1.405911e+003,8.539569e-002
1.407840e+003,9.737049e-002
1.409769e+003,9.725860e-002
1.411697e+003,8.237509e-002
1.413626e+003,6.157295e-002
1.415554e+003,4.452551e-002
1.417483e+003,3.395421e-002
1.419411e+003,2.817344e-002
1.421340e+003,2.532641e-002
1.423268e+003,2.409265e-002
1.425197e+003,2.390927e-002
1.427125e+003,2.474933e-002
1.429054e+003,2.657732e-002
1.430983e+003,2.929691e-002
1.432911e+003,3.263068e-002
1.434840e+003,3.610990e-002
1.436768e+003,3.915814e-002
1.438697e+003,4.124220e-002
1.440625e+003,4.240617e-002
1.442554e+003,4.295615e-002
1.444482e+003,4.318772e-002
1.446411e+003,4.346735e-002
1.448340e+003,4.396720e-002
1.450268e+003,4.456101e-002
1.452197e+003,4.487110e-002
1.454125e+003,4.446494e-002
1.456054e+003,4.298622e-002
1.457982e+003,4.036810e-002
1.459911e+003,3.714179e-002
1.461839e+003,3.370975e-002
1.463768e+003,3.039490e-002
1.465697e+003,2.753226e-002
1.467625e+003,2.494342e-002
1.469554e+003,2.229048e-002
1.471482e+003,1.988950e-002
1.473411e+003,1.800815e-002
1.475339e+003,1.647903e-002
1.477268e+003,1.491341e-002
1.479196e+003,1.328296e-002
1.481125e+003,1.176988e-002
1.483053e+003,1.037189e-002
1.484982e+003,9.008157e-003
1.486911e+003,7.884511e-003
1.488839e+003,7.042442e-003
1.490768e+003,6.419988e-003
1.492696e+003,6.184861e-003
1.494625e+003,6.548531e-003
1.496553e+003,7.614430e-003
1.498482e+003,9.843441e-003
1.500410e+003,1.402130e-002
1.502339e+003,2.010000e-002
1.504267e+003,2.437041e-002
1.506196e+003,2.244789e-002
1.508125e+003,1.627331e-002
1.510053e+003,1.085886e-002
1.511982e+003,7.698670e-003
1.513910e+003,6.159016e-003
1.515839e+003,5.386199e-003
1.517767e+003,5.095574e-003
1.519696e+003,5.062083e-003
1.521624e+003,5.090746e-003
1.523553e+003,5.136376e-003
1.525481e+003,5.157633e-003
1.527410e+003,5.137750e-003
1.529339e+003,4.968700e-003
1.531267e+003,4.648914e-003
1.533196e+003,4.323607e-003
1.535124e+003,4.042186e-003
1.537053e+003,3.826694e-003
1.538981e+003,3.790026e-003
1.540910e+003,3.881150e-003
1.542838e+003,4.061517e-003
1.544767e+003,4.266920e-003
1.546696e+003,4.376085e-003
1.548624e+003,4.479719e-003
1.550553e+003,4.654507e-003
1.552481e+003,4.882105e-003
1.554410e+003,5.165881e-003
1.556338e+003,5.460782e-003
1.558267e+003,5.740807e-003
1.560195e+003,6.087002e-003
1.562124e+003,6.418340e-003
1.564052e+003,6.882276e-003
1.565981e+003,7.628559e-003
1.567910e+003,8.656956e-003
1.569838e+003,1.012251e-002
1.571767e+003,1.218992e-002
1.573695e+003,1.496931e-002
1.575624e+003,1.833499e-002
1.577552e+003,2.093619e-002
1.579481e+003,2.080971e-002
1.581409e+003,1.791270e-002
1.583338e+003,1.408116e-002
1.585266e+003,1.111455e-002
1.587195e+003,9.449031e-003
1.589124e+003,8.606697e-003
1.591052e+003,8.232115e-003
1.592981e+003,8.147703e-003
1.594909e+003,8.236809e-003
1.596838e+003,8.536641e-003
1.598766e+003,8.979235e-003
1.600695e+003,9.516999e-003
1.602623e+003,1.025300e-002
1.604552e+003,1.110054e-002
1.606480e+003,1.205952e-002
1.608409e+003,1.321535e-002
1.610338e+003,1.435033e-002
1.612266e+003,1.527836e-002
1.614195e+003,1.562881e-002
1.616123e+003,1.500484e-002
1.618052e+003,1.374150e-002
1.619980e+003,1.271516e-002
1.621909e+003,1.228548e-002
1.623837e+003,1.223712e-002
1.625766e+003,1.239777e-002
1.627695e+003,1.272690e-002
1.629623e+003,1.306683e-002
1.631552e+003,1.342342e-002
1.633480e+003,1.374888e-002
1.635409e+003,1.404800e-002
1.637337e+003,1.437492e-002
1.639266e+003,1.477314e-002
1.641194e+003,1.525141e-002
1.643123e+003,1.573255e-002
1.645052e+003,1.625343e-002
1.646980e+003,1.692260e-002
1.648909e+003,1.762379e-002
1.650837e+003,1.828350e-002
1.652766e+003,1.902926e-002
1.654694e+003,1.996870e-002
1.656623e+003,2.101770e-002
1.658551e+003,2.214248e-002
1.660480e+003,2.347264e-002
1.662408e+003,2.498451e-002
1.664337e+003,2.657926e-002
1.666266e+003,2.834495e-002
1.668194e+003,3.025143e-002
1.670123e+003,3.221517e-002
1.672051e+003,3.419669e-002
1.673980e+003,3.636595e-002
1.675908e+003,3.877580e-002
1.677837e+003,4.131063e-002
1.679765e+003,4.393835e-002
1.681694e+003,4.657029e-002
1.683622e+003,4.909970e-002
1.685551e+003,5.171756e-002
1.687479e+003,5.449458e-002
1.689408e+003,5.783547e-002
1.691337e+003,6.199085e-002
1.693265e+003,6.725665e-002
1.695194e+003,7.424037e-002
1.697122e+003,8.344815e-002
1.699051e+003,9.509157e-002
1.700979e+003,1.108820e-001
1.702908e+003,1.310011e-001
1.704836e+003,1.572596e-001
1.706765e+003,1.911957e-001
1.708694e+003,2.320027e-001
1.710622e+003,2.763423e-001
1.712551e+003,3.176878e-001
1.714479e+003,3.472791e-001
1.716408e+003,3.604953e-001
1.718336e+003,3.570067e-001
1.720265e+003,3.415208e-001
1.722193e+003,3.182618e-001
1.724122e+003,2.909674e-001
1.726051e+003,2.620731e-001
1.727979e+003,2.336311e-001
1.729908e+003,2.060850e-001
1.731836e+003,1.802399e-001
1.733765e+003,1.554652e-001
1.735693e+003,1.321240e-001
1.737622e+003,1.109888e-001
1.739550e+003,9.153736e-002
1.741479e+003,7.423723e-002
1.743407e+003,5.960521e-002
1.745336e+003,4.765594e-002
1.747265e+003,3.839466e-002
1.749193e+003,3.117049e-002
1.751122e+003,2.532083e-002
1.753050e+003,2.058000e-002
1.754979e+003,1.673647e-002
1.756907e+003,1.357457e-002
1.758836e+003,1.096670e-002
1.760764e+003,8.922005e-003
1.762693e+003,7.323590e-003
1.764621e+003,6.093823e-003
1.766550e+003,5.086489e-003
1.768479e+003,4.246275e-003
1.770407e+003,3.551842e-003
1.772336e+003,2.988178e-003
1.774264e+003,2.537947e-003
1.776193e+003,2.196234e-003
1.778121e+003,1.849432e-003
1.780050e+003,1.520263e-003
1.781978e+003,1.256469e-003
1.783907e+003,1.037207e-003
1.785835e+003,8.245608e-004
1.787764e+003,6.235994e-004
1.789693e+003,4.509564e-004
1.791621e+003,3.759358e-004
1.793550e+003,3.800148e-004
1.795478e+003,2.791114e-004
1.797407e+003,1.242704e-004
1.799335e+003,1.159693e-006
1.801264e+003,-1.820996e-004
1.803192e+003,-3.051236e-004
1.805121e+003,-3.516086e-004
1.807049e+003,-3.578989e-004
1.808978e+003,-4.092114e-004
1.810907e+003,-4.785894e-004
1.812835e+003,-5.281005e-004
1.814764e+003,-5.160210e-004
1.816692e+003,-4.868968e-004
1.818621e+003,-4.341371e-004
1.820549e+003,-3.913354e-004
1.822478e+003,-4.550894e-004
1.824406e+003,-6.211171e-004
1.826335e+003,-7.601251e-004
1.828264e+003,-8.611608e-004
1.830192e+003,-9.628342e-004
1.832121e+003,-1.054700e-003
1.834049e+003,-1.169513e-003
1.835978e+003,-1.300484e-003
1.837906e+003,-1.399478e-003
1.839835e+003,-1.610901e-003
1.841763e+003,-1.851290e-003
1.843692e+003,-1.972358e-003
1.845620e+003,-2.036276e-003
1.847549e+003,-2.149379e-003
1.849478e+003,-2.293733e-003
1.851406e+003,-2.403902e-003
1.853335e+003,-2.465352e-003
1.855263e+003,-2.542045e-003
1.857192e+003,-2.660154e-003
1.859120e+003,-2.808552e-003
1.861049e+003,-2.835118e-003
1.862977e+003,-2.818164e-003
1.864906e+003,-2.853848e-003
1.866834e+003,-2.892886e-003
1.868763e+003,-2.905162e-003
1.870692e+003,-2.884262e-003
1.872620e+003,-2.838936e-003
1.874549e+003,-2.811679e-003
1.876477e+003,-2.826591e-003
1.878406e+003,-2.829686e-003
1.880334e+003,-2.813819e-003
1.882263e+003,-2.765588e-003
1.884191e+003,-2.722225e-003
1.886120e+003,-2.691438e-003
1.888048e+003,-2.625574e-003
1.889977e+003,-2.580616e-003
1.891906e+003,-2.564542e-003
1.893834e+003,-2.490885e-003
1.895763e+003,-2.343762e-003
1.897691e+003,-2.183370e-003
1.899620e+003,-2.062130e-003
1.901548e+003,-2.017411e-003
1.903477e+003,-1.971962e-003
1.905405e+003,-1.952105e-003
1.907334e+003,-1.913873e-003
1.909263e+003,-1.749461e-003
1.911191e+003,-1.603672e-003
1.913120e+003,-1.549925e-003
1.915048e+003,-1.429499e-003
1.916977e+003,-1.341313e-003
1.918905e+003,-1.251193e-003
1.920834e+003,-1.157617e-003
1.922762e+003,-1.076284e-003
1.924691e+003,-9.633302e-004
1.926620e+003,-8.038495e-004
1.928548e+003,-6.396452e-004
1.930477e+003,-4.708114e-004
1.932405e+003,-3.170764e-004
1.934334e+003,-1.609685e-004
1.936262e+003,-9.542498e-006
1.938191e+003,1.192989e-004
1.940119e+003,2.709553e-004
1.942048e+003,4.654844e-004
1.943976e+003,6.656094e-004
1.945905e+003,8.106846e-004
1.947833e+003,8.890674e-004
1.949762e+003,9.299408e-004
1.951691e+003,8.915575e-004
1.953619e+003,8.351507e-004
1.955548e+003,8.007592e-004
1.957476e+003,7.436672e-004
1.959405e+003,6.045867e-004
1.961333e+003,3.895659e-004
1.963262e+003,2.569642e-004
1.965190e+003,1.857560e-004
1.967119e+003,2.780035e-005
1.969047e+003,-1.525886e-004
1.970976e+003,-2.088599e-004
1.972905e+003,-2.278030e-004
1.974833e+003,-3.143614e-004
1.976762e+003,-3.691220e-004
1.978690e+003,-3.586935e-004
1.980619e+003,-4.021273e-004
1.982547e+003,-4.507534e-004
1.984476e+003,-4.761070e-004
1.986404e+003,-5.896836e-004
1.988333e+003,-6.839441e-004
1.990262e+003,-7.024365e-004
1.992190e+003,-7.264854e-004
1.994119e+003,-7.823847e-004
1.996047e+003,-8.136720e-004
1.997976e+003,-8.642031e-004
1.999904e+003,-8.936328e-004
2.001833e+003,-9.858769e-004
2.003761e+003,-1.088546e-003
2.005690e+003,-1.167498e-003
2.007619e+003,-1.232757e-003
2.009547e+003,-1.254629e-003
2.011476e+003,-1.278581e-003
2.013404e+003,-1.291135e-003
2.015333e+003,-1.287666e-003
2.017261e+003,-1.372956e-003
2.019190e+003,-1.483228e-003
2.021118e+003,-1.516545e-003
2.023047e+003,-1.553986e-003
2.024975e+003,-1.607138e-003
2.026904e+003,-1.668800e-003
2.028833e+003,-1.764047e-003
2.030761e+003,-1.806813e-003
2.032690e+003,-1.827105e-003
2.034618e+003,-1.766786e-003
2.036547e+003,-1.715337e-003
2.038475e+003,-1.736954e-003
2.040404e+003,-1.705073e-003
2.042332e+003,-1.581124e-003
2.044261e+003,-1.536719e-003
2.046189e+003,-1.490129e-003
2.048118e+003,-1.447365e-003
2.050046e+003,-1.475633e-003
2.051975e+003,-1.476723e-003
2.053904e+003,-1.437458e-003
2.055832e+003,-1.393698e-003
2.057761e+003,-1.374245e-003
2.059689e+003,-1.315085e-003
2.061618e+003,-1.233153e-003
2.063546e+003,-1.177609e-003
2.065475e+003,-1.082530e-003
2.067403e+003,-1.065608e-003
2.069332e+003,-1.100113e-003
2.071260e+003,-1.063294e-003
2.073189e+003,-9.993317e-004
2.075118e+003,-9.882902e-004
2.077046e+003,-9.947366e-004
2.078975e+003,-9.427660e-004
2.080903e+003,-8.755123e-004
2.082832e+003,-8.482970e-004
2.084760e+003,-7.780189e-004
2.086689e+003,-7.100780e-004
2.088617e+003,-6.713729e-004
2.090546e+003,-6.520851e-004
2.092475e+003,-5.765471e-004
2.094403e+003,-5.201910e-004
2.096332e+003,-5.064897e-004
2.098260e+003,-4.650191e-004
2.100189e+003,-4.393339e-004
2.102117e+003,-4.013659e-004
2.104046e+003,-3.219435e-004
2.105974e+003,-2.804553e-004
2.107903e+003,-2.835679e-004
2.109832e+003,-3.434310e-004
2.111760e+003,-3.855753e-004
2.113688e+003,-3.546876e-004
2.115617e+003,-2.937995e-004
2.117546e+003,-3.154871e-004
2.119474e+003,-3.301215e-004
2.121403e+003,-2.704883e-004
2.123331e+003,-2.882367e-004
2.125260e+003,-3.497215e-004
2.127188e+003,-3.952086e-004
2.129117e+003,-3.924610e-004
2.131045e+003,-3.592563e-004
2.132974e+003,-3.751803e-004
2.134903e+003,-3.931893e-004
2.136831e+003,-4.519781e-004
2.138760e+003,-5.296558e-004
2.140688e+003,-5.663882e-004
2.142617e+003,-6.160548e-004
2.144545e+003,-6.726631e-004
2.146474e+003,-6.361713e-004
2.148402e+003,-5.758852e-004
2.150331e+003,-6.360058e-004
2.152260e+003,-7.182157e-004
2.154188e+003,-7.735538e-004
2.156117e+003,-8.558368e-004
2.158045e+003,-9.144638e-004
2.159974e+003,-1.060584e-003
2.161902e+003,-1.176122e-003
2.163831e+003,-1.170901e-003
2.165759e+003,-1.188249e-003
2.167688e+003,-1.244354e-003
2.169616e+003,-1.263318e-003
2.171545e+003,-1.275145e-003
2.173474e+003,-1.334839e-003
2.175402e+003,-1.440430e-003
2.177331e+003,-1.515917e-003
2.179259e+003,-1.466255e-003
2.181188e+003,-1.399247e-003
2.183116e+003,-1.476557e-003
2.185045e+003,-1.505450e-003
2.186973e+003,-1.486662e-003
2.188902e+003,-1.471769e-003
2.190831e+003,-1.389108e-003
2.192759e+003,-1.362684e-003
2.194688e+003,-1.405919e-003
2.196616e+003,-1.424248e-003
2.198545e+003,-1.402715e-003
2.200473e+003,-1.340950e-003
2.202402e+003,-1.259651e-003
2.204330e+003,-1.144861e-003
2.206259e+003,-1.002538e-003
2.208188e+003,-9.157533e-004
2.210116e+003,-9.136041e-004
2.212044e+003,-9.258378e-004
2.213973e+003,-8.834153e-004
2.215902e+003,-8.392359e-004
2.217830e+003,-8.166154e-004
2.219759e+003,-8.465774e-004
2.221687e+003,-8.749501e-004
2.223616e+003,-8.452877e-004
2.225544e+003,-7.984255e-004
2.227473e+003,-7.350196e-004
2.229401e+003,-6.988308e-004
2.231330e+003,-6.469239e-004
2.233259e+003,-6.593305e-004
2.235187e+003,-6.970113e-004
2.237116e+003,-6.254183e-004
2.239044e+003,-5.594060e-004
2.240973e+003,-5.753227e-004
2.242901e+003,-5.392860e-004
2.244830e+003,-4.752134e-004
2.246758e+003,-4.625036e-004
2.248687e+003,-4.716388e-004
2.250615e+003,-4.394663e-004
2.252544e+003,-3.685592e-004
2.254473e+003,-2.374730e-004
2.256401e+003,-2.102840e-004
2.258330e+003,-2.370094e-004
2.260258e+003,-2.389632e-004
2.262187e+003,-2.066410e-004
2.264115e+003,-1.776284e-004
2.266044e+003,-1.178087e-004
2.267972e+003,-9.647560e-005
2.269901e+003,-1.340065e-004
2.271830e+003,-7.812304e-005
2.273758e+003,4.151894e-005
2.275687e+003,1.134326e-004
2.277615e+003,2.106179e-004
2.279544e+003,2.777521e-004
2.281472e+003,3.414811e-004
2.283401e+003,4.426312e-004
2.285329e+003,4.772266e-004
2.287258e+003,4.919214e-004
2.289187e+003,4.809749e-004
2.291115e+003,4.669439e-004
2.293043e+003,4.704599e-004
2.294972e+003,4.672756e-004
2.296901e+003,4.404753e-004
2.298829e+003,3.813745e-004
2.300758e+003,3.410832e-004
2.302686e+003,3.988518e-004
2.304615e+003,3.767317e-004
2.306543e+003,3.606481e-004
2.308472e+003,4.464123e-004
2.310400e+003,4.867466e-004
2.312329e+003,4.800793e-004
2.314258e+003,4.667780e-004
2.316186e+003,4.872442e-004
2.318115e+003,5.287102e-004
2.320043e+003,5.659335e-004
2.321972e+003,6.340186e-004
2.323900e+003,6.500792e-004
2.325829e+003,6.329235e-004
2.327757e+003,6.231348e-004
2.329686e+003,5.408190e-004
2.331615e+003,4.926843e-004
2.333543e+003,5.563454e-004
2.335472e+003,5.068820e-004
2.337400e+003,4.590164e-004
2.339329e+003,5.616205e-004
2.341257e+003,6.622577e-004
2.343186e+003,6.249266e-004
2.345114e+003,5.228384e-004
2.347043e+003,5.258904e-004
2.348971e+003,6.141759e-004
2.350900e+003,6.607644e-004
2.352829e+003,7.217950e-004
2.354757e+003,7.807097e-004
2.356686e+003,8.173570e-004
2.358614e+003,8.816302e-004
2.360543e+003,9.442857e-004
2.362471e+003,9.759655e-004
2.364400e+003,9.910756e-004
2.366328e+003,1.056969e-003
2.368257e+003,1.168385e-003
2.370186e+003,1.242845e-003
2.372114e+003,1.265940e-003
2.374042e+003,1.221214e-003
2.375971e+003,1.210714e-003
2.377900e+003,1.275079e-003
2.379828e+003,1.313396e-003
2.381757e+003,1.341414e-003
2.383685e+003,1.312299e-003
2.385614e+003,1.269463e-003
2.387542e+003,1.286610e-003
2.389471e+003,1.286244e-003
2.391399e+003,1.261122e-003
2.393328e+003,1.222111e-003
2.395257e+003,1.236166e-003
2.397185e+003,1.243045e-003
2.399114e+003,1.164963e-003
2.401042e+003,1.105764e-003
2.402971e+003,1.050459e-003
2.404899e+003,1.022991e-003
2.406828e+003,1.059560e-003
2.408756e+003,1.011533e-003
2.410685e+003,8.723007e-004
2.412614e+003,7.971077e-004
2.414542e+003,8.001616e-004
2.416471e+003,7.728097e-004
2.418399e+003,7.338428e-004
2.420328e+003,6.894036e-004
2.422256e+003,6.448693e-004
2.424185e+003,6.395932e-004
2.426113e+003,5.820911e-004
2.428042e+003,5.391271e-004
2.429970e+003,4.488668e-004
2.431899e+003,3.469194e-004
2.433828e+003,3.147217e-004
2.435756e+003,2.850131e-004
2.437685e+003,2.052145e-004
2.439613e+003,1.200944e-004
2.441542e+003,1.131343e-004
2.443470e+003,1.113778e-004
2.445399e+003,7.084636e-005
2.447327e+003,2.945716e-005
2.449256e+003,-3.717480e-005
2.451185e+003,-1.025046e-004
2.453113e+003,-2.004147e-004
2.455042e+003,-1.913732e-004
2.456970e+003,-1.352983e-004
2.458899e+003,-1.646118e-004
2.460827e+003,-2.273063e-004
2.462756e+003,-3.420736e-004
2.464684e+003,-3.569719e-004
2.466613e+003,-3.439939e-004
2.468542e+003,-3.442918e-004
2.470470e+003,-3.087657e-004
2.472398e+003,-3.567071e-004
2.474327e+003,-3.944141e-004
2.476256e+003,-3.718366e-004
2.478184e+003,-3.281680e-004
2.480113e+003,-3.101564e-004
2.482041e+003,-2.887334e-004
2.483970e+003,-2.766805e-004
2.485898e+003,-2.636338e-004
2.487827e+003,-1.859084e-004
2.489755e+003,-1.181399e-004
2.491684e+003,-4.068669e-005
2.493613e+003,5.175845e-005
2.495541e+003,7.694405e-005
2.497470e+003,1.487642e-004
2.499398e+003,2.645233e-004
2.501327e+003,3.012929e-004
2.503255e+003,3.528552e-004
2.505184e+003,4.384521e-004
2.507112e+003,4.333443e-004
2.509041e+003,4.794159e-004
2.510969e+003,5.979839e-004
2.512898e+003,6.712177e-004
2.514827e+003,7.070925e-004
2.516755e+003,7.738387e-004
2.518684e+003,7.810084e-004
2.520612e+003,7.130995e-004
2.522541e+003,7.036409e-004
2.524469e+003,7.455922e-004
2.526398e+003,7.330130e-004
2.528326e+003,6.961073e-004
2.530255e+003,6.969702e-004
2.532184e+003,6.934524e-004
2.534112e+003,6.596693e-004
2.536041e+003,7.015169e-004
2.537969e+003,7.347058e-004
2.539898e+003,7.216622e-004
2.541826e+003,7.509360e-004
2.543755e+003,8.055061e-004
2.545683e+003,8.003608e-004
2.547612e+003,8.169919e-004
2.549541e+003,7.992654e-004
2.551469e+003,7.695236e-004
2.553397e+003,7.990994e-004
2.555326e+003,8.262206e-004
2.557255e+003,8.795717e-004
2.559183e+003,8.920555e-004
2.561112e+003,9.226026e-004
2.563040e+003,9.660362e-004
2.564969e+003,9.894152e-004
2.566897e+003,9.912085e-004
2.568826e+003,9.798842e-004
2.570754e+003,9.878875e-004
2.572683e+003,1.007714e-003
2.574612e+003,1.021430e-003
2.576540e+003,1.016415e-003
2.578469e+003,1.018309e-003
2.580397e+003,1.056736e-003
2.582326e+003,1.063911e-003
2.584254e+003,1.114467e-003
2.586183e+003,1.246135e-003
2.588111e+003,1.287075e-003
2.590040e+003,1.311901e-003
2.591969e+003,1.373887e-003
2.593897e+003,1.348626e-003
2.595826e+003,1.325327e-003
2.597754e+003,1.352149e-003
2.599683e+003,1.395626e-003
2.601611e+003,1.468795e-003
2.603540e+003,1.535991e-003
2.605468e+003,1.560731e-003
2.607397e+003,1.540446e-003
2.609325e+003,1.559966e-003
2.611254e+003,1.565153e-003
2.613183e+003,1.592655e-003
2.615111e+003,1.653517e-003
2.617040e+003,1.641976e-003
2.618968e+003,1.634759e-003
2.620897e+003,1.627675e-003
2.622825e+003,1.643639e-003
2.624754e+003,1.744294e-003
2.626682e+003,1.770510e-003
2.628611e+003,1.742099e-003
2.630540e+003,1.775866e-003
2.632468e+003,1.778029e-003
2.634396e+003,1.774901e-003
2.636325e+003,1.839483e-003
2.638254e+003,1.851029e-003
2.640182e+003,1.811067e-003
2.642111e+003,1.752345e-003
2.644039e+003,1.695693e-003
2.645968e+003,1.715719e-003
2.647896e+003,1.774469e-003
2.649825e+003,1.821049e-003
2.651753e+003,1.810468e-003
2.653682e+003,1.837952e-003
2.655611e+003,1.848600e-003
2.657539e+003,1.839050e-003
2.659468e+003,1.890363e-003
2.661396e+003,1.871594e-003
2.663325e+003,1.862609e-003
2.665253e+003,1.871195e-003
2.667182e+003,1.884972e-003
2.669110e+003,1.877284e-003
2.671039e+003,1.766850e-003
2.672968e+003,1.751380e-003
2.674896e+003,1.798457e-003
2.676825e+003,1.742864e-003
2.678753e+003,1.716251e-003
2.680682e+003,1.748819e-003
2.682610e+003,1.694729e-003
2.684539e+003,1.640213e-003
2.686467e+003,1.667753e-003
2.688396e+003,1.739803e-003
2.690324e+003,1.800487e-003
2.692253e+003,1.783385e-003
2.694182e+003,1.767150e-003
2.696110e+003,1.821482e-003
2.698039e+003,1.930798e-003
2.699967e+003,1.946574e-003
2.701896e+003,1.908200e-003
2.703824e+003,1.933461e-003
2.705753e+003,1.920980e-003
2.707681e+003,1.926804e-003
2.709610e+003,2.005389e-003
2.711539e+003,1.981456e-003
2.713467e+003,1.939085e-003
2.715396e+003,1.954961e-003
2.717324e+003,2.010082e-003
2.719253e+003,2.088382e-003
2.721181e+003,2.038611e-003
2.723110e+003,1.996934e-003
2.725038e+003,2.050529e-003
2.726967e+003,2.094342e-003
2.728896e+003,2.116017e-003
2.730824e+003,2.008251e-003
2.732752e+003,1.894489e-003
2.734681e+003,1.956525e-003
2.736610e+003,2.030555e-003
2.738538e+003,1.975398e-003
2.740467e+003,1.923643e-003
2.742395e+003,1.987314e-003
2.744324e+003,2.081291e-003
2.746252e+003,2.089914e-003
2.748181e+003,2.095640e-003
2.750109e+003,2.153876e-003
2.752038e+003,2.186676e-003
2.753967e+003,2.209055e-003
2.755895e+003,2.273935e-003
2.757824e+003,2.372437e-003
2.759752e+003,2.444705e-003
2.761681e+003,2.412518e-003
2.763609e+003,2.403289e-003
2.765538e+003,2.450436e-003
2.767466e+003,2.476461e-003
2.769395e+003,2.476128e-003
2.771323e+003,2.430144e-003
2.773252e+003,2.426945e-003
2.775181e+003,2.441139e-003
2.777109e+003,2.469996e-003
2.779038e+003,2.486325e-003
2.780966e+003,2.475228e-003
2.782895e+003,2.525549e-003
2.784823e+003,2.585076e-003
2.786752e+003,2.580443e-003
2.788680e+003,2.579510e-003
2.790609e+003,2.570343e-003
2.792538e+003,2.523183e-003
2.794466e+003,2.533748e-003
2.796395e+003,2.592709e-003
2.798323e+003,2.682349e-003
2.800252e+003,2.771074e-003
2.802180e+003,2.784713e-003
2.804109e+003,2.852313e-003
2.806037e+003,2.871324e-003
2.807966e+003,2.763905e-003
2.809895e+003,2.738330e-003
2.811823e+003,2.718090e-003
2.813751e+003,2.672581e-003
2.815680e+003,2.648578e-003
2.817609e+003,2.655112e-003
2.819537e+003,2.780711e-003
2.821466e+003,2.984442e-003
2.823394e+003,3.188602e-003
2.825323e+003,3.393993e-003
2.827251e+003,3.673424e-003
2.829180e+003,3.994732e-003
2.831108e+003,4.282882e-003
2.833037e+003,4.488055e-003
2.834966e+003,4.812245e-003
2.836894e+003,5.283455e-003
2.838823e+003,5.799601e-003
2.840751e+003,6.373551e-003
2.842680e+003,7.133544e-003
2.844608e+003,8.121775e-003
2.846537e+003,9.345694e-003
2.848465e+003,1.093266e-002
2.850394e+003,1.272410e-002
2.852323e+003,1.413373e-002
2.854251e+003,1.479646e-002
2.856180e+003,1.470843e-002
2.858108e+003,1.402538e-002
2.860037e+003,1.310388e-002
2.861965e+003,1.211843e-002
2.863894e+003,1.130039e-002
2.865822e+003,1.074642e-002
2.867751e+003,1.037535e-002
2.869679e+003,1.019557e-002
2.871608e+003,1.005499e-002
2.873537e+003,9.828324e-003
2.875465e+003,9.592599e-003
2.877394e+003,9.423194e-003
2.879322e+003,9.323688e-003
2.881251e+003,9.308929e-003
2.883179e+003,9.505822e-003
2.885108e+003,9.763561e-003
2.887036e+003,9.935540e-003
2.888965e+003,1.017874e-002
2.890894e+003,1.048342e-002
2.892822e+003,1.077883e-002
2.894750e+003,1.114048e-002
2.896679e+003,1.132797e-002
2.898608e+003,1.150894e-002
2.900536e+003,1.182320e-002
2.902465e+003,1.219953e-002
2.904393e+003,1.254361e-002
2.906322e+003,1.294569e-002
2.908250e+003,1.351762e-002
2.910179e+003,1.416067e-002
2.912107e+003,1.493995e-002
2.914036e+003,1.595228e-002
2.915965e+003,1.711088e-002
2.917893e+003,1.849231e-002
2.919822e+003,1.987667e-002
2.921750e+003,2.107080e-002
2.923679e+003,2.188092e-002
2.925607e+003,2.223025e-002
2.927536e+003,2.212509e-002
2.929464e+003,2.174706e-002
2.931393e+003,2.123285e-002
2.933322e+003,2.055694e-002
2.935250e+003,1.976302e-002
2.937179e+003,1.902060e-002
2.939107e+003,1.842853e-002
2.941036e+003,1.800224e-002
2.942964e+003,1.780381e-002
2.944893e+003,1.784254e-002
2.946821e+003,1.798650e-002
2.948750e+003,1.825875e-002
2.950678e+003,1.884810e-002
2.952607e+003,1.956728e-002
2.954536e+003,2.008650e-002
2.956464e+003,2.035455e-002
2.958393e+003,2.030105e-002
2.960321e+003,1.988468e-002
2.962250e+003,1.921544e-002
2.964178e+003,1.846026e-002
2.966107e+003,1.757655e-002
2.968035e+003,1.661913e-002
2.969964e+003,1.564876e-002
2.971893e+003,1.475340e-002
2.973821e+003,1.383518e-002
2.975750e+003,1.299444e-002
2.977678e+003,1.223150e-002
2.979607e+003,1.153293e-002
2.981535e+003,1.093931e-002
2.983464e+003,1.044476e-002
2.985392e+003,1.013499e-002
2.987321e+003,9.850796e-003
2.989250e+003,9.520691e-003
2.991178e+003,9.199195e-003
2.993106e+003,8.934316e-003
2.995035e+003,8.710028e-003
2.996964e+003,8.458894e-003
2.998892e+003,8.297799e-003
3.000821e+003,8.263757e-003
3.002749e+003,8.241436e-003
3.004678e+003,8.190076e-003
3.006606e+003,7.978692e-003
3.008535e+003,7.725451e-003
3.010463e+003,7.538162e-003
3.012392e+003,7.323253e-003
3.014321e+003,7.156887e-003
3.016249e+003,6.879414e-003
3.018178e+003,6.468179e-003
3.020106e+003,6.100141e-003
3.022035e+003,5.927087e-003
3.023963e+003,5.750343e-003
3.025892e+003,5.470714e-003
3.027820e+003,5.180199e-003
3.029749e+003,5.026786e-003
3.031677e+003,5.069425e-003
3.033606e+003,5.033255e-003
3.035535e+003,4.921177e-003
3.037463e+003,4.862804e-003
3.039392e+003,4.889343e-003
3.041320e+003,4.966521e-003
3.043249e+003,5.124540e-003
3.045177e+003,5.271012e-003
3.047106e+003,5.523229e-003
3.049034e+003,5.862365e-003
3.050963e+003,6.132871e-003
3.052892e+003,6.307452e-003
3.054820e+003,6.364271e-003
3.056749e+003,6.296559e-003
3.058677e+003,6.188088e-003
3.060606e+003,6.111330e-003
3.062534e+003,6.133576e-003
3.064463e+003,6.219077e-003
3.066391e+003,6.283818e-003
3.068320e+003,6.263917e-003
3.070249e+003,6.262472e-003
3.072177e+003,6.283852e-003
3.074105e+003,6.242438e-003
3.076034e+003,6.230472e-003
3.077963e+003,6.235950e-003
3.079891e+003,6.212691e-003
3.081820e+003,6.166175e-003
3.083748e+003,6.074402e-003
3.085677e+003,5.938709e-003
3.087605e+003,5.814544e-003
3.089534e+003,5.699579e-003
3.091462e+003,5.521249e-003
3.093391e+003,5.418305e-003
3.095320e+003,5.470714e-003
3.097248e+003,5.514873e-003
3.099177e+003,5.494705e-003
3.101105e+003,5.675844e-003
3.103034e+003,5.856253e-003
3.104962e+003,5.855212e-003
3.106891e+003,5.701493e-003
3.108819e+003,5.465345e-003
3.110748e+003,5.285669e-003
3.112677e+003,5.101273e-003
3.114605e+003,5.006037e-003
3.116534e+003,5.020953e-003
3.118462e+003,4.979324e-003
3.120391e+003,4.891454e-003
3.122319e+003,4.897084e-003
3.124248e+003,4.958411e-003
3.126176e+003,5.005065e-003
3.128105e+003,4.984452e-003
3.130033e+003,4.975369e-003
3.131962e+003,4.960991e-003
3.133891e+003,4.891588e-003
3.135819e+003,4.777537e-003
3.137748e+003,4.710608e-003
3.139676e+003,4.608995e-003
3.141605e+003,4.510352e-003
3.143533e+003,4.492608e-003
3.145462e+003,4.437305e-003
3.147390e+003,4.351586e-003
3.149319e+003,4.300416e-003
3.151248e+003,4.306875e-003
3.153176e+003,4.318085e-003
3.155104e+003,4.359953e-003
3.157033e+003,4.386326e-003
3.158962e+003,4.418794e-003
3.160890e+003,4.370093e-003
3.162819e+003,4.331606e-003
3.164747e+003,4.303428e-003
3.166676e+003,4.314772e-003
3.168604e+003,4.390677e-003
3.170533e+003,4.458093e-003
3.172461e+003,4.500542e-003
3.174390e+003,4.419396e-003
3.176319e+003,4.362161e-003
3.178247e+003,4.494650e-003
3.180176e+003,4.619577e-003
3.182104e+003,4.647608e-003
3.184033e+003,4.606115e-003
3.185961e+003,4.590008e-003
3.187890e+003,4.676143e-003
3.189818e+003,4.698952e-003
3.191747e+003,4.556858e-003
3.193676e+003,4.555050e-003
3.195604e+003,4.619745e-003
3.197532e+003,4.654407e-003
3.199461e+003,4.607521e-003
3.201390e+003,4.645297e-003
3.203318e+003,4.664722e-003
3.205247e+003,4.640140e-003
3.207175e+003,4.575978e-003
3.209104e+003,4.628686e-003
3.211032e+003,4.738176e-003
3.212961e+003,4.704847e-003
3.214889e+003,4.656483e-003
3.216818e+003,4.643857e-003
3.218747e+003,4.654875e-003
3.220675e+003,4.749900e-003
3.222604e+003,4.843839e-003
3.224532e+003,4.775125e-003
3.226461e+003,4.723202e-003
3.228389e+003,4.683411e-003
3.230318e+003,4.576480e-003
3.232246e+003,4.571122e-003
3.234175e+003,4.644393e-003
3.236104e+003,4.714058e-003
3.238032e+003,4.823502e-003
3.239961e+003,4.791675e-003
3.241889e+003,4.755762e-003
3.243818e+003,4.865921e-003
3.245746e+003,4.818946e-003
3.247675e+003,4.742865e-003
3.249603e+003,4.760653e-003
3.251532e+003,4.869305e-003
3.253460e+003,4.818343e-003
3.255389e+003,4.715431e-003
3.257318e+003,4.746450e-003
3.259246e+003,4.800988e-003
3.261175e+003,4.770736e-003
3.263103e+003,4.711914e-003
3.265032e+003,4.695669e-003
3.266960e+003,4.725916e-003
3.268889e+003,4.715666e-003
3.270817e+003,4.757504e-003
3.272746e+003,4.765711e-003
3.274675e+003,4.750771e-003
3.276603e+003,4.846353e-003
3.278531e+003,5.020652e-003
3.280460e+003,5.009724e-003
3.282389e+003,4.852819e-003
3.284317e+003,4.851881e-003
3.286246e+003,4.907069e-003
3.288174e+003,4.946949e-003
3.290103e+003,4.911895e-003
3.292031e+003,4.870712e-003
3.293960e+003,4.850407e-003
3.295888e+003,4.911794e-003
3.297817e+003,4.979223e-003
3.299746e+003,4.988307e-003
3.301674e+003,5.062452e-003
3.303603e+003,5.124071e-003
3.305531e+003,5.044183e-003
3.307460e+003,4.930293e-003
3.309388e+003,4.968700e-003
3.311317e+003,4.978955e-003
3.313245e+003,4.957003e-003
3.315174e+003,4.925098e-003
3.317103e+003,4.920440e-003
3.319031e+003,5.005401e-003
3.320960e+003,5.039792e-003
3.322888e+003,4.905763e-003
3.324817e+003,4.827791e-003
3.326745e+003,4.945240e-003
3.328674e+003,5.024909e-003
3.330602e+003,4.962902e-003
3.332531e+003,4.903182e-003
3.334459e+003,4.941855e-003
3.336388e+003,4.876744e-003
3.338317e+003,4.785812e-003
3.340245e+003,4.797403e-003
3.342174e+003,4.845515e-003
3.344102e+003,4.852886e-003
3.346031e+003,4.736434e-003
3.347959e+003,4.710173e-003
3.349888e+003,4.713656e-003
3.351816e+003,4.708029e-003
3.353745e+003,4.746650e-003
3.355674e+003,4.694430e-003
3.357602e+003,4.648814e-003
3.359531e+003,4.622424e-003
3.361459e+003,4.401957e-003
3.363388e+003,4.284421e-003
3.365316e+003,4.351987e-003
3.367245e+003,4.468068e-003
3.369173e+003,4.620448e-003
3.371102e+003,4.635719e-003
3.373031e+003,4.518186e-003
3.374959e+003,4.416652e-003
3.376887e+003,4.422275e-003
3.378816e+003,4.338667e-003
3.380745e+003,4.313468e-003
3.382673e+003,4.344223e-003
3.384602e+003,4.389138e-003
3.386530e+003,4.439514e-003
3.388459e+003,4.341077e-003
3.390387e+003,4.194885e-003
3.392316e+003,4.071384e-003
3.394244e+003,4.052754e-003
3.396173e+003,4.137645e-003
3.398102e+003,4.206393e-003
3.400030e+003,4.267556e-003
3.401959e+003,4.118478e-003
3.403887e+003,4.052521e-003
3.405816e+003,4.125035e-003
3.407744e+003,4.106035e-003
3.409673e+003,4.105668e-003
3.411601e+003,4.168890e-003
3.413530e+003,4.257284e-003
3.415458e+003,4.278900e-003
3.417387e+003,4.226334e-003
3.419316e+003,4.156111e-003
3.421244e+003,4.182740e-003
3.423173e+003,4.338667e-003
3.425101e+003,4.512863e-003
3.427030e+003,4.500877e-003
3.428958e+003,4.372570e-003
3.430887e+003,4.414108e-003
3.432815e+003,4.644929e-003
3.434744e+003,4.734022e-003
3.436673e+003,4.525150e-003
3.438601e+003,4.236873e-003
3.440530e+003,4.026468e-003
3.442458e+003,4.010951e-003
3.444387e+003,4.032087e-003
3.446315e+003,3.981992e-003
3.448244e+003,4.076468e-003
3.450172e+003,4.115669e-003
3.452101e+003,4.107540e-003
3.454030e+003,4.064695e-003
3.455958e+003,4.063323e-003
3.457886e+003,3.958718e-003
3.459815e+003,3.788020e-003
3.461744e+003,3.787519e-003
3.463672e+003,3.916990e-003
3.465601e+003,3.967279e-003
3.467529e+003,3.965239e-003
3.469458e+003,3.931367e-003
3.471386e+003,4.002089e-003
3.473315e+003,4.142463e-003
3.475243e+003,4.256949e-003
3.477172e+003,4.321834e-003
3.479101e+003,4.315341e-003
3.481029e+003,4.301019e-003
3.482958e+003,4.486481e-003
3.484886e+003,4.622323e-003
3.486815e+003,4.672593e-003
3.488743e+003,4.663349e-003
3.490672e+003,4.656617e-003
3.492600e+003,4.613984e-003
3.494529e+003,4.638297e-003
3.496458e+003,4.682942e-003
3.498386e+003,4.606182e-003
3.500315e+003,4.484807e-003
3.502243e+003,4.458093e-003
3.504172e+003,4.668573e-003
3.506100e+003,4.853155e-003
3.508029e+003,4.735027e-003
3.509957e+003,4.781591e-003
3.511886e+003,4.835028e-003
3.513814e+003,4.862000e-003
3.515743e+003,4.952948e-003
3.517672e+003,4.962969e-003
3.519600e+003,4.915983e-003
3.521529e+003,4.807320e-003
3.523457e+003,4.858817e-003
3.525386e+003,5.075258e-003
3.527314e+003,5.161254e-003
3.529243e+003,5.074118e-003
3.531171e+003,5.016126e-003
3.533100e+003,5.002418e-003
3.535029e+003,5.000507e-003
3.536957e+003,5.067045e-003
3.538885e+003,5.096747e-003
3.540814e+003,5.014853e-003
3.542743e+003,4.932404e-003
3.544671e+003,4.905528e-003
3.546600e+003,4.894604e-003
3.548528e+003,4.945910e-003
3.550457e+003,5.037713e-003
3.552385e+003,5.098893e-003
3.554314e+003,5.044652e-003
3.556242e+003,4.882976e-003
3.558171e+003,4.758241e-003
3.560100e+003,4.635283e-003
3.562028e+003,4.556389e-003
3.563957e+003,4.555217e-003
3.565885e+003,4.577183e-003
3.567814e+003,4.551300e-003
3.569742e+003,4.323574e-003
3.571671e+003,4.244000e-003
3.573599e+003,4.119215e-003
3.575528e+003,4.016536e-003
3.577457e+003,4.137211e-003
3.579385e+003,4.081184e-003
3.581314e+003,3.841035e-003
3.583242e+003,3.872659e-003
3.585171e+003,3.982292e-003
3.587099e+003,4.001387e-003
3.589028e+003,3.956612e-003
3.590956e+003,3.851631e-003
3.592885e+003,3.872993e-003
3.594813e+003,3.889375e-003
3.596742e+003,3.880148e-003
3.598671e+003,3.905389e-003
3.600599e+003,3.860056e-003
3.602528e+003,3.842338e-003
3.604456e+003,3.703632e-003
3.606385e+003,3.673323e-003
3.608313e+003,3.892116e-003
3.610242e+003,3.926051e-003
3.612170e+003,3.847754e-003
3.614099e+003,3.858017e-003
3.616028e+003,3.868213e-003
3.617956e+003,3.811217e-003
3.619885e+003,3.689797e-003
3.621813e+003,3.668411e-003
3.623742e+003,3.680107e-003
3.625670e+003,3.645155e-003
3.627599e+003,3.628081e-003
3.629527e+003,3.663366e-003
3.631456e+003,3.777926e-003
3.633385e+003,3.709480e-003
3.635313e+003,3.576062e-003
3.637241e+003,3.551207e-003
3.639170e+003,3.494621e-003
3.641099e+003,3.366811e-003
3.643027e+003,3.349181e-003
3.644956e+003,3.323337e-003
3.646884e+003,3.070759e-003
3.648813e+003,2.762838e-003
3.650741e+003,2.755302e-003
3.652670e+003,2.892871e-003
3.654598e+003,2.890136e-003
3.656527e+003,2.763938e-003
3.658456e+003,2.640377e-003
3.660384e+003,2.522217e-003
3.662313e+003,2.524516e-003
3.664241e+003,2.489757e-003
3.666170e+003,2.374936e-003
3.668098e+003,2.268672e-003
3.670027e+003,2.175354e-003
3.671955e+003,2.044869e-003
3.673884e+003,1.983886e-003
3.675813e+003,2.011381e-003
3.677741e+003,2.063313e-003
3.679670e+003,2.049031e-003
3.681598e+003,1.984951e-003
3.683527e+003,1.977961e-003
3.685455e+003,2.015408e-003
3.687384e+003,1.973700e-003
3.689312e+003,1.903275e-003
3.691241e+003,1.833427e-003
3.693169e+003,1.754275e-003
3.695098e+003,1.611944e-003
3.697027e+003,1.434020e-003
3.698955e+003,1.368602e-003
3.700884e+003,1.353013e-003
3.702812e+003,1.394196e-003
3.704741e+003,1.463010e-003
3.706669e+003,1.463010e-003
3.708598e+003,1.366009e-003
3.710526e+003,1.297876e-003
3.712455e+003,1.437245e-003
3.714384e+003,1.468495e-003
3.716312e+003,1.412280e-003
3.718240e+003,1.453867e-003
3.720169e+003,1.406762e-003
3.722098e+003,1.242513e-003
3.724026e+003,1.204700e-003
3.725955e+003,1.276674e-003
3.727883e+003,1.344771e-003
3.729812e+003,1.268765e-003
3.731740e+003,1.210814e-003
3.733669e+003,1.331908e-003
3.735597e+003,1.317118e-003
3.737526e+003,1.374452e-003
3.739455e+003,1.399548e-003
3.741383e+003,1.305387e-003
3.743312e+003,1.223639e-003
3.745240e+003,1.194633e-003
3.747169e+003,1.213937e-003
3.749097e+003,1.150113e-003
3.751026e+003,1.105465e-003
3.752954e+003,1.137157e-003
3.754883e+003,1.178020e-003
3.756812e+003,1.164797e-003
3.758740e+003,1.208953e-003
3.760669e+003,1.259826e-003
3.762597e+003,1.241217e-003
3.764526e+003,1.227660e-003
3.766454e+003,1.090550e-003
3.768383e+003,1.002799e-003
3.770311e+003,1.113570e-003
3.772240e+003,1.188719e-003
3.774168e+003,1.125231e-003
3.776097e+003,1.088458e-003
3.778026e+003,1.123171e-003
3.779954e+003,1.081947e-003
3.781883e+003,9.410979e-004
3.783811e+003,7.974065e-004
3.785740e+003,9.213408e-004
3.787668e+003,1.140047e-003
3.789597e+003,1.277903e-003
3.791525e+003,1.243842e-003
3.793454e+003,1.066900e-003
3.795383e+003,9.711835e-004
3.797311e+003,9.975848e-004
3.799240e+003,1.048300e-003
3.801168e+003,1.041491e-003
3.803097e+003,9.920056e-004
3.805025e+003,9.800170e-004
3.806954e+003,1.067897e-003
3.808882e+003,1.210382e-003
3.810811e+003,1.233907e-003
3.812740e+003,1.244640e-003
3.814668e+003,1.229122e-003
3.816596e+003,1.153468e-003
3.818525e+003,1.076898e-003
3.820454e+003,1.002799e-003
3.822382e+003,1.043251e-003
3.824311e+003,9.795189e-004
3.826239e+003,9.560076e-004
3.828168e+003,1.024386e-003
3.830096e+003,1.091613e-003
3.832025e+003,1.128386e-003
3.833953e+003,1.115265e-003
3.835882e+003,9.940313e-004
3.837811e+003,8.612118e-004
3.839739e+003,7.605948e-004
3.841668e+003,6.251589e-004
3.843596e+003,5.534590e-004
3.845525e+003,5.768489e-004
3.847453e+003,7.030103e-004
3.849382e+003,8.433507e-004
3.851310e+003,9.930350e-004
3.853239e+003,9.983487e-004
3.855167e+003,8.688146e-004
3.857096e+003,7.524960e-004
3.859025e+003,7.687270e-004
3.860953e+003,8.342876e-004
3.862882e+003,8.284780e-004
3.864810e+003,9.084909e-004
3.866739e+003,9.104499e-004
3.868667e+003,7.922281e-004
3.870596e+003,7.734403e-004
3.872524e+003,8.442471e-004
3.874453e+003,8.953757e-004
3.876382e+003,9.077604e-004
3.878310e+003,8.352503e-004
3.880239e+003,8.512520e-004
3.882167e+003,8.895322e-004
3.884096e+003,8.429855e-004
3.886024e+003,8.637682e-004
3.887953e+003,1.029966e-003
3.889881e+003,1.151475e-003
3.891810e+003,1.006020e-003
3.893739e+003,8.396656e-004
3.895667e+003,7.919957e-004
3.897595e+003,7.535249e-004
3.899524e+003,7.360334e-004
3.901453e+003,7.557156e-004
3.903381e+003,7.236868e-004
3.905310e+003,7.539897e-004
3.907238e+003,8.415912e-004
3.909167e+003,8.315654e-004
3.911095e+003,7.951492e-004
3.913024e+003,9.041413e-004
3.914952e+003,8.099211e-004
3.916881e+003,7.091501e-004
3.918810e+003,7.766601e-004
3.920738e+003,7.183101e-004
3.922667e+003,5.796691e-004
3.924595e+003,6.326249e-004
3.926524e+003,8.352503e-004
3.928452e+003,9.718809e-004
3.930381e+003,8.974011e-004
3.932309e+003,6.863836e-004
3.934238e+003,6.022309e-004
3.936167e+003,5.889260e-004
3.938095e+003,7.369627e-004
3.940024e+003,7.957799e-004
3.941952e+003,8.656606e-004
3.943881e+003,9.207099e-004
3.945809e+003,8.235981e-004
3.947738e+003,6.706867e-004
3.949666e+003,5.990125e-004
3.951595e+003,6.474577e-004
3.953523e+003,7.336437e-004
3.955452e+003,7.217950e-004
3.957380e+003,6.516720e-004
3.959309e+003,7.131991e-004
3.961238e+003,8.165935e-004
3.963166e+003,8.471353e-004
3.965095e+003,7.872821e-004
3.967023e+003,7.440323e-004
3.968952e+003,7.694240e-004
3.970880e+003,7.456255e-004
3.972809e+003,6.806424e-004
3.974737e+003,7.266406e-004
3.976666e+003,6.795141e-004
3.978594e+003,7.284328e-004
3.980523e+003,8.545055e-004
3.982452e+003,7.662376e-004
3.984380e+003,6.159345e-004
3.986309e+003,7.125021e-004
3.988237e+003,7.606944e-004
3.990166e+003,7.462229e-004
3.992094e+003,7.594995e-004
3.994023e+003,7.048356e-004
3.995951e+003,5.826220e-004
3.997880e+003,5.401887e-004
3.999809e+003,5.890255e-004
4.001737e+003,0.000000e+000
