3.992094e+002,0.000000e+000
4.011380e+002,0.000000e+000
4.030665e+002,0.000000e+000
4.049951e+002,0.000000e+000
4.069236e+002,0.000000e+000
4.088522e+002,0.000000e+000
4.107807e+002,0.000000e+000
4.127093e+002,0.000000e+000
4.146378e+002,0.000000e+000
4.165664e+002,0.000000e+000
4.184949e+002,0.000000e+000
4.204235e+002,0.000000e+000
4.223520e+002,0.000000e+000
4.242806e+002,0.000000e+000
4.262091e+002,0.000000e+000
4.281377e+002,0.000000e+000
4.300662e+002,0.000000e+000
4.319948e+002,0.000000e+000
4.339233e+002,0.000000e+000
4.358519e+002,0.000000e+000
4.377804e+002,0.000000e+000
4.397090e+002,0.000000e+000
4.416375e+002,0.000000e+000
4.435660e+002,0.000000e+000
4.454946e+002,0.000000e+000
4.474232e+002,0.000000e+000
4.493517e+002,0.000000e+000
4.512802e+002,0.000000e+000
4.532088e+002,0.000000e+000
4.551373e+002,0.000000e+000
4.570659e+002,0.000000e+000
4.589944e+002,0.000000e+000
4.609230e+002,0.000000e+000
4.628515e+002,0.000000e+000
4.647801e+002,0.000000e+000
4.667086e+002,0.000000e+000
4.686372e+002,0.000000e+000
4.705657e+002,0.000000e+000
4.724943e+002,0.000000e+000
4.744228e+002,0.000000e+000
4.763514e+002,0.000000e+000
4.782799e+002,0.000000e+000
4.802085e+002,0.000000e+000
4.821370e+002,0.000000e+000
4.840656e+002,0.000000e+000
4.859941e+002,0.000000e+000
4.879226e+002,0.000000e+000
4.898512e+002,0.000000e+000
4.917798e+002,0.000000e+000
4.937083e+002,0.000000e+000
4.956368e+002,0.000000e+000
4.975654e+002,0.000000e+000
4.994939e+002,0.000000e+000
5.014225e+002,0.000000e+000
5.033510e+002,0.000000e+000
5.052796e+002,0.000000e+000
5.072081e+002,0.000000e+000
5.091367e+002,0.000000e+000
5.110652e+002,0.000000e+000
5.129938e+002,0.000000e+000
5.149223e+002,0.000000e+000
5.168509e+002,0.000000e+000
5.187794e+002,0.000000e+000
5.207079e+002,0.000000e+000
5.226365e+002,0.000000e+000
5.245651e+002,0.000000e+000
5.264936e+002,0.000000e+000
5.284221e+002,0.000000e+000
5.303507e+002,0.000000e+000
5.322792e+002,0.000000e+000
5.342078e+002,0.000000e+000
5.361364e+002,0.000000e+000
5.380649e+002,0.000000e+000
5.399934e+002,0.000000e+000
5.419220e+002,0.000000e+000
5.438505e+002,0.000000e+000
5.457791e+002,0.000000e+000
5.477076e+002,0.000000e+000
5.496362e+002,0.000000e+000
5.515647e+002,0.000000e+000
5.534933e+002,0.000000e+000
5.554218e+002,0.000000e+000
5.573503e+002,0.000000e+000
5.592789e+002,0.000000e+000
5.612075e+002,0.000000e+000
5.631360e+002,0.000000e+000
5.650646e+002,0.000000e+000
5.669931e+002,0.000000e+000
5.689216e+002,0.000000e+000
5.708502e+002,0.000000e+000
5.727787e+002,0.000000e+000
5.747073e+002,0.000000e+000
5.766359e+002,0.000000e+000
5.785644e+002,0.000000e+000
5.804929e+002,0.000000e+000
5.824215e+002,0.000000e+000
5.843500e+002,0.000000e+000
5.862786e+002,0.000000e+000
5.882072e+002,0.000000e+000
5.901357e+002,0.000000e+000
5.920642e+002,0.000000e+000
5.939928e+002,0.000000e+000
5.959213e+002,0.000000e+000
5.978499e+002,0.000000e+000
5.997784e+002,0.000000e+000
6.017070e+002,0.000000e+000
6.036355e+002,0.000000e+000
6.055641e+002,0.000000e+000
6.074926e+002,0.000000e+000
6.094211e+002,0.000000e+000
6.113497e+002,0.000000e+000
6.132783e+002,0.000000e+000
6.152068e+002,0.000000e+000
6.171354e+002,0.000000e+000
6.190639e+002,0.000000e+000
6.209924e+002,0.000000e+000
6.229210e+002,0.000000e+000
6.248495e+002,0.000000e+000
6.267781e+002,0.000000e+000
6.287067e+002,0.000000e+000
6.306352e+002,0.000000e+000
6.325637e+002,0.000000e+000
6.344923e+002,0.000000e+000
6.364208e+002,0.000000e+000
6.383494e+002,0.000000e+000
6.402780e+002,0.000000e+000
6.422065e+002,0.000000e+000
6.441350e+002,0.000000e+000
6.460636e+002,0.000000e+000
6.479921e+002,0.000000e+000
6.499207e+002,0.000000e+000
6.518492e+002,0.000000e+000
6.537778e+002,0.000000e+000
6.557063e+002,0.000000e+000
6.576349e+002,0.000000e+000
6.595634e+002,0.000000e+000
6.614919e+002,0.000000e+000
6.634205e+002,0.000000e+000
6.653491e+002,0.000000e+000
6.672776e+002,0.000000e+000
6.692062e+002,0.000000e+000
6.711347e+002,0.000000e+000
6.730632e+002,0.000000e+000
6.749918e+002,3.687540e-002
6.769203e+002,3.913258e-002
6.788489e+002,4.136041e-002
6.807775e+002,4.212186e-002
6.827060e+002,4.147402e-002
6.846345e+002,4.180380e-002
6.865631e+002,4.321766e-002
6.884916e+002,4.488584e-002
6.904202e+002,4.686569e-002
6.923488e+002,4.950354e-002
6.942773e+002,5.324356e-002
6.962058e+002,5.839565e-002
6.981344e+002,6.465199e-002
7.000629e+002,7.292979e-002
7.019915e+002,8.201423e-002
7.039200e+002,9.038837e-002
7.058486e+002,9.853492e-002
7.077771e+002,1.080191e-001
7.097057e+002,1.194781e-001
7.116342e+002,1.336319e-001
7.135627e+002,1.532190e-001
7.154913e+002,1.826026e-001
7.174199e+002,2.278564e-001
7.193484e+002,2.908765e-001
7.212770e+002,3.559926e-001
7.232055e+002,4.013218e-001
7.251340e+002,4.033493e-001
7.270626e+002,3.564075e-001
7.289911e+002,2.896844e-001
7.309197e+002,2.297213e-001
7.328483e+002,1.780159e-001
7.347768e+002,1.322023e-001
7.367053e+002,9.213151e-002
7.386339e+002,5.997999e-002
7.405624e+002,3.750810e-002
7.424910e+002,2.418071e-002
7.444196e+002,1.661131e-002
7.463481e+002,1.268217e-002
7.482766e+002,1.097234e-002
7.502052e+002,1.014859e-002
7.521337e+002,9.559777e-003
7.540623e+002,9.359100e-003
7.559908e+002,9.274402e-003
7.579194e+002,9.043476e-003
7.598479e+002,8.835058e-003
7.617765e+002,9.100688e-003
7.637050e+002,9.754005e-003
7.656335e+002,1.058886e-002
7.675621e+002,1.119498e-002
7.694907e+002,1.204365e-002
7.714192e+002,1.319605e-002
7.733478e+002,1.422284e-002
7.752763e+002,1.506264e-002
7.772048e+002,1.595169e-002
7.791334e+002,1.680131e-002
7.810620e+002,1.784834e-002
7.829905e+002,1.922385e-002
7.849191e+002,2.095451e-002
7.868476e+002,2.326834e-002
7.887761e+002,2.652906e-002
7.907047e+002,3.049722e-002
7.926332e+002,3.336415e-002
7.945618e+002,3.249072e-002
7.964904e+002,2.768010e-002
7.984189e+002,2.315502e-002
8.003474e+002,2.192301e-002
8.022760e+002,2.264940e-002
8.042045e+002,2.334620e-002
8.061331e+002,2.363611e-002
8.080616e+002,2.400875e-002
8.099902e+002,2.427216e-002
8.119187e+002,2.428179e-002
8.138473e+002,2.449695e-002
8.157758e+002,2.486573e-002
8.177043e+002,2.528037e-002
8.196329e+002,2.545990e-002
8.215615e+002,2.560637e-002
8.234900e+002,2.607287e-002
8.254186e+002,2.676514e-002
8.273471e+002,2.795221e-002
8.292756e+002,2.950039e-002
8.312042e+002,3.127150e-002
8.331328e+002,3.346728e-002
8.350613e+002,3.599297e-002
8.369899e+002,3.878768e-002
8.389184e+002,4.154938e-002
8.408469e+002,4.458249e-002
8.427755e+002,4.788027e-002
8.447040e+002,5.132613e-002
8.466326e+002,5.389390e-002
8.485612e+002,5.454999e-002
8.504896e+002,5.305897e-002
8.524182e+002,5.052184e-002
8.543468e+002,4.848805e-002
8.562753e+002,4.715043e-002
8.582039e+002,4.644081e-002
8.601324e+002,4.669716e-002
8.620609e+002,4.805163e-002
8.639895e+002,5.139225e-002
8.659181e+002,5.789290e-002
8.678466e+002,7.048796e-002
8.697751e+002,9.064790e-002
8.717037e+002,1.098507e-001
8.736322e+002,1.105320e-001
8.755608e+002,9.491554e-002
8.774894e+002,7.833900e-002
8.794178e+002,6.421182e-002
8.813464e+002,5.195908e-002
8.832750e+002,4.235065e-002
8.852035e+002,3.592040e-002
8.871321e+002,3.206942e-002
8.890607e+002,3.011813e-002
8.909891e+002,2.902158e-002
8.929177e+002,2.872303e-002
8.948463e+002,2.896767e-002
8.967748e+002,2.907306e-002
8.987034e+002,2.879638e-002
9.006320e+002,2.799314e-002
9.025604e+002,2.655893e-002
9.044890e+002,2.471569e-002
9.064176e+002,2.278843e-002
9.083461e+002,2.102587e-002
9.102747e+002,1.951695e-002
9.122032e+002,1.848516e-002
9.141317e+002,1.775538e-002
9.160603e+002,1.730341e-002
9.179889e+002,1.711474e-002
9.199174e+002,1.709354e-002
9.218459e+002,1.710171e-002
9.237745e+002,1.728293e-002
9.257030e+002,1.770123e-002
9.276316e+002,1.817178e-002
9.295602e+002,1.861926e-002
9.314886e+002,1.902053e-002
9.334172e+002,1.938354e-002
9.353458e+002,1.984958e-002
9.372743e+002,2.023897e-002
9.392029e+002,2.062052e-002
9.411315e+002,2.104740e-002
9.430599e+002,2.155513e-002
9.449885e+002,2.208367e-002
9.469171e+002,2.281692e-002
9.488456e+002,2.375578e-002
9.507742e+002,2.478774e-002
9.527028e+002,2.596097e-002
9.546312e+002,2.753036e-002
9.565598e+002,2.946748e-002
9.584884e+002,3.173144e-002
9.604169e+002,3.442790e-002
9.623455e+002,3.763335e-002
9.642740e+002,4.132579e-002
9.662025e+002,4.529118e-002
9.681311e+002,4.917038e-002
9.700597e+002,5.240977e-002
9.719882e+002,5.431851e-002
9.739167e+002,5.427875e-002
9.758453e+002,5.234435e-002
9.777738e+002,4.930053e-002
9.797024e+002,4.584008e-002
9.816310e+002,4.252284e-002
9.835594e+002,3.966892e-002
9.854880e+002,3.767274e-002
9.874166e+002,3.644493e-002
9.893451e+002,3.567537e-002
9.912737e+002,3.529281e-002
9.932023e+002,3.530762e-002
9.951307e+002,3.577664e-002
9.970593e+002,3.682555e-002
9.989879e+002,3.845077e-002
1.000916e+003,4.056249e-002
1.002845e+003,4.319504e-002
1.004774e+003,4.656889e-002
1.006702e+003,5.174641e-002
1.008631e+003,6.022748e-002
1.010559e+003,7.458405e-002
1.012488e+003,1.001946e-001
1.014416e+003,1.400463e-001
1.016345e+003,1.798055e-001
1.018273e+003,1.914159e-001
1.020202e+003,1.697592e-001
1.022130e+003,1.350443e-001
1.024059e+003,1.016951e-001
1.025988e+003,7.541315e-002
1.027916e+003,5.989961e-002
1.029845e+003,5.389292e-002
1.031773e+003,5.290988e-002
1.033702e+003,5.391416e-002
1.035630e+003,5.568107e-002
1.037559e+003,5.783990e-002
1.039487e+003,6.011315e-002
1.041416e+003,6.189379e-002
1.043344e+003,6.282166e-002
1.045273e+003,6.276415e-002
1.047202e+003,6.172662e-002
1.049130e+003,6.039868e-002
1.051059e+003,5.914066e-002
1.052987e+003,5.795995e-002
1.054916e+003,5.730682e-002
1.056844e+003,5.759191e-002
1.058773e+003,5.899451e-002
1.060701e+003,6.146274e-002
1.062630e+003,6.492063e-002
1.064558e+003,6.922206e-002
1.066487e+003,7.450187e-002
1.068416e+003,8.111856e-002
1.070344e+003,8.940815e-002
1.072273e+003,9.986195e-002
1.074201e+003,1.131962e-001
1.076130e+003,1.297076e-001
1.078058e+003,1.491894e-001
1.079987e+003,1.708760e-001
1.081915e+003,1.933401e-001
1.083844e+003,2.155074e-001
1.085773e+003,2.377737e-001
1.087701e+003,2.612377e-001
1.089630e+003,2.867557e-001
1.091558e+003,3.139686e-001
1.093487e+003,3.406464e-001
1.095415e+003,3.629497e-001
1.097344e+003,3.771483e-001
1.099272e+003,3.804269e-001
1.101201e+003,3.727177e-001
1.103129e+003,3.555999e-001
1.105058e+003,3.313604e-001
1.106987e+003,3.039478e-001
1.108915e+003,2.793940e-001
1.110844e+003,2.634591e-001
1.112772e+003,2.588466e-001
1.114701e+003,2.633277e-001
1.116629e+003,2.699031e-001
1.118558e+003,2.712173e-001
1.120486e+003,2.646613e-001
1.122415e+003,2.514220e-001
1.124344e+003,2.338266e-001
1.126272e+003,2.138402e-001
1.128201e+003,1.928544e-001
1.130129e+003,1.714780e-001
1.132058e+003,1.505278e-001
1.133986e+003,1.309156e-001
1.135915e+003,1.134898e-001
1.137843e+003,9.877777e-002
1.139772e+003,8.647119e-002
1.141700e+003,7.597999e-002
1.143629e+003,6.686507e-002
1.145557e+003,5.892874e-002
1.147486e+003,5.206549e-002
1.149415e+003,4.617831e-002
1.151343e+003,4.112282e-002
1.153272e+003,3.691753e-002
1.155200e+003,3.363480e-002
1.157129e+003,3.115789e-002
1.159057e+003,2.933796e-002
1.160986e+003,2.799628e-002
1.162914e+003,2.707724e-002
1.164843e+003,2.681984e-002
1.166771e+003,2.787222e-002
1.168700e+003,3.037362e-002
1.170629e+003,3.355870e-002
1.172557e+003,3.602036e-002
1.174486e+003,3.678209e-002
1.176414e+003,3.583979e-002
1.178343e+003,3.378928e-002
1.180271e+003,3.116227e-002
1.182200e+003,2.874979e-002
1.184128e+003,2.708866e-002
1.186057e+003,2.631325e-002
1.187986e+003,2.643067e-002
1.189914e+003,2.731785e-002
1.191843e+003,2.887885e-002
1.193771e+003,3.099250e-002
1.195700e+003,3.343518e-002
1.197628e+003,3.610652e-002
1.199557e+003,3.901987e-002
1.201485e+003,4.214555e-002
1.203414e+003,4.565247e-002
1.205343e+003,4.970348e-002
1.207271e+003,5.429021e-002
1.209200e+003,5.933453e-002
1.211128e+003,6.510397e-002
1.213057e+003,7.204620e-002
1.214985e+003,8.017277e-002
1.216914e+003,8.957428e-002
1.218842e+003,1.001435e-001
1.220771e+003,1.117117e-001
1.222699e+003,1.244997e-001
1.224628e+003,1.391735e-001
1.226557e+003,1.567819e-001
1.228485e+003,1.784803e-001
1.230414e+003,2.055380e-001
1.232342e+003,2.393231e-001
1.234271e+003,2.804609e-001
1.236199e+003,3.277319e-001
1.238128e+003,3.771349e-001
1.240056e+003,4.223643e-001
1.241985e+003,4.561561e-001
1.243913e+003,4.734438e-001
1.245842e+003,4.733911e-001
1.247771e+003,4.601085e-001
1.249699e+003,4.396471e-001
1.251628e+003,4.177641e-001
1.253556e+003,3.988772e-001
1.255485e+003,3.850316e-001
1.257413e+003,3.754142e-001
1.259342e+003,3.666594e-001
1.261270e+003,3.537398e-001
1.263199e+003,3.338969e-001
1.265127e+003,3.080417e-001
1.267056e+003,2.794238e-001
1.268985e+003,2.509958e-001
1.270913e+003,2.250444e-001
1.272842e+003,2.029981e-001
1.274770e+003,1.852583e-001
1.276699e+003,1.713595e-001
1.278627e+003,1.604196e-001
1.280556e+003,1.512871e-001
1.282484e+003,1.430402e-001
1.284413e+003,1.352055e-001
1.286342e+003,1.273708e-001
1.288270e+003,1.191521e-001
1.290199e+003,1.104583e-001
1.292127e+003,1.013407e-001
1.294056e+003,9.193411e-002
1.295984e+003,8.234865e-002
1.297913e+003,7.303833e-002
1.299841e+003,6.451854e-002
1.301770e+003,5.749779e-002
1.303698e+003,5.218070e-002
1.305627e+003,4.789699e-002
1.307556e+003,4.376083e-002
1.309484e+003,3.949208e-002
1.311413e+003,3.549815e-002
1.313341e+003,3.204563e-002
1.315270e+003,2.911582e-002
1.317198e+003,2.664844e-002
1.319127e+003,2.449702e-002
1.321055e+003,2.264123e-002
1.322984e+003,2.116605e-002
1.324912e+003,2.044155e-002
1.326841e+003,2.118654e-002
1.328770e+003,2.464667e-002
1.330698e+003,3.255381e-002
1.332627e+003,4.650402e-002
1.334555e+003,6.559765e-002
1.336484e+003,8.475969e-002
1.338412e+003,9.650191e-002
1.340341e+003,9.554373e-002
1.342269e+003,8.243085e-002
1.344198e+003,6.367808e-002
1.346126e+003,4.650837e-002
1.348055e+003,3.400204e-002
1.349984e+003,2.577356e-002
1.351912e+003,2.048736e-002
1.353841e+003,1.708772e-002
1.355769e+003,1.505423e-002
1.357698e+003,1.406952e-002
1.359626e+003,1.390719e-002
1.361555e+003,1.462552e-002
1.363483e+003,1.633761e-002
1.365412e+003,1.882789e-002
1.367341e+003,2.142071e-002
1.369269e+003,2.329040e-002
1.371198e+003,2.401155e-002
1.373126e+003,2.377692e-002
1.375055e+003,2.304334e-002
1.376983e+003,2.208025e-002
1.378912e+003,2.100233e-002
1.380840e+003,1.988052e-002
1.382769e+003,1.892732e-002
1.384698e+003,1.818429e-002
1.386626e+003,1.760715e-002
1.388555e+003,1.731637e-002
1.390483e+003,1.757231e-002
1.392412e+003,1.847202e-002
1.394340e+003,2.017948e-002
1.396269e+003,2.280683e-002
1.398197e+003,2.666655e-002
1.400126e+003,3.243548e-002
1.402054e+003,4.091492e-002
1.403983e+003,5.301656e-002
1.405911e+003,6.786251e-002
1.407840e+003,7.951754e-002
1.409769e+003,7.981218e-002
1.411697e+003,6.723375e-002
1.413626e+003,4.878183e-002
1.415554e+003,3.230008e-002
1.417483e+003,2.090208e-002
1.419411e+003,1.391136e-002
1.421340e+003,9.834087e-003
1.423268e+003,7.543691e-003
1.425197e+003,6.446555e-003
1.427125e+003,6.300997e-003
1.429054e+003,6.886113e-003
1.430983e+003,8.091291e-003
1.432911e+003,9.757427e-003
1.434840e+003,1.165054e-002
1.436768e+003,1.349294e-002
1.438697e+003,1.478113e-002
1.440625e+003,1.559504e-002
1.442554e+003,1.619726e-002
1.444482e+003,1.681860e-002
1.446411e+003,1.760557e-002
1.448340e+003,1.859038e-002
1.450268e+003,1.974558e-002
1.452197e+003,2.078562e-002
1.454125e+003,2.139822e-002
1.456054e+003,2.157706e-002
1.457982e+003,2.122690e-002
1.459911e+003,2.029518e-002
1.461839e+003,1.906079e-002
1.463768e+003,1.798080e-002
1.465697e+003,1.733717e-002
1.467625e+003,1.727727e-002
1.469554e+003,1.776487e-002
1.471482e+003,1.816957e-002
1.473411e+003,1.750207e-002
1.475339e+003,1.586182e-002
1.477268e+003,1.391099e-002
1.479196e+003,1.180083e-002
1.481125e+003,9.520284e-003
1.483053e+003,7.197277e-003
1.484982e+003,5.114248e-003
1.486911e+003,3.388884e-003
1.488839e+003,2.005056e-003
1.490768e+003,1.118022e-003
1.492696e+003,8.064356e-004
1.494625e+003,1.029269e-003
1.496553e+003,2.030721e-003
1.498482e+003,4.190837e-003
1.500410e+003,8.416596e-003
1.502339e+003,1.516103e-002
1.504267e+003,2.119116e-002
1.506196e+003,2.073849e-002
1.508125e+003,1.398274e-002
1.510053e+003,7.294443e-003
1.511982e+003,3.470739e-003
1.513910e+003,1.760463e-003
1.515839e+003,1.069724e-003
1.517767e+003,8.920887e-004
1.519696e+003,9.345896e-004
1.521624e+003,1.103638e-003
1.523553e+003,1.282755e-003
1.525481e+003,1.423748e-003
1.527410e+003,1.437411e-003
1.529339e+003,1.308278e-003
1.531267e+003,1.053481e-003
1.533196e+003,7.464884e-004
1.535124e+003,4.960015e-004
1.537053e+003,3.450956e-004
1.538981e+003,3.554086e-004
1.540910e+003,4.778237e-004
1.542838e+003,6.204472e-004
1.544767e+003,7.517326e-004
1.546696e+003,8.554019e-004
1.548624e+003,9.998099e-004
1.550553e+003,1.278335e-003
1.552481e+003,1.465138e-003
1.554410e+003,1.603496e-003
1.556338e+003,1.758666e-003
1.558267e+003,1.941182e-003
1.560195e+003,2.104863e-003
1.562124e+003,2.332927e-003
1.564052e+003,2.708721e-003
1.565981e+003,3.186532e-003
1.567910e+003,3.856345e-003
1.569838e+003,4.840154e-003
1.571767e+003,6.144700e-003
1.573695e+003,7.907286e-003
1.575624e+003,1.003678e-002
1.577552e+003,1.148111e-002
1.579481e+003,1.120103e-002
1.581409e+003,9.428036e-003
1.583338e+003,7.244037e-003
1.585266e+003,5.622908e-003
1.587195e+003,4.668674e-003
1.589124e+003,4.194784e-003
1.591052e+003,3.989248e-003
1.592981e+003,3.859922e-003
1.594909e+003,3.832343e-003
1.596838e+003,4.016636e-003
1.598766e+003,4.420903e-003
1.600695e+003,4.922350e-003
1.602623e+003,5.536954e-003
1.604552e+003,6.338920e-003
1.606480e+003,7.244745e-003
1.608409e+003,8.208377e-003
1.610338e+003,9.217098e-003
1.612266e+003,1.003847e-002
1.614195e+003,1.044893e-002
1.616123e+003,1.020025e-002
1.618052e+003,9.437890e-003
1.619980e+003,8.776866e-003
1.621909e+003,8.522584e-003
1.623837e+003,8.669091e-003
1.625766e+003,8.974669e-003
1.627695e+003,9.324433e-003
1.629623e+003,9.696334e-003
1.631552e+003,1.007093e-002
1.633480e+003,1.050134e-002
1.635409e+003,1.106091e-002
1.637337e+003,1.159483e-002
1.639266e+003,1.213291e-002
1.641194e+003,1.280514e-002
1.643123e+003,1.342691e-002
1.645052e+003,1.391102e-002
1.646980e+003,1.441605e-002
1.648909e+003,1.492589e-002
1.650837e+003,1.544560e-002
1.652766e+003,1.611889e-002
1.654694e+003,1.699819e-002
1.656623e+003,1.794191e-002
1.658551e+003,1.908877e-002
1.660480e+003,2.042144e-002
1.662408e+003,2.189514e-002
1.664337e+003,2.352654e-002
1.666266e+003,2.531942e-002
1.668194e+003,2.718837e-002
1.670123e+003,2.907862e-002
1.672051e+003,3.082265e-002
1.673980e+003,3.265750e-002
1.675908e+003,3.479161e-002
1.677837e+003,3.714402e-002
1.679765e+003,3.976597e-002
1.681694e+003,4.242115e-002
1.683622e+003,4.479554e-002
1.685551e+003,4.699441e-002
1.687479e+003,4.917940e-002
1.689408e+003,5.180901e-002
1.691337e+003,5.526212e-002
1.693265e+003,5.979743e-002
1.695194e+003,6.602222e-002
1.697122e+003,7.421761e-002
1.699051e+003,8.461509e-002
1.700979e+003,9.904815e-002
1.702908e+003,1.180691e-001
1.704836e+003,1.440788e-001
1.706765e+003,1.804277e-001
1.708694e+003,2.297022e-001
1.710622e+003,2.917189e-001
1.712551e+003,3.574824e-001
1.714479e+003,4.062251e-001
1.716408e+003,4.210103e-001
1.718336e+003,4.029034e-001
1.720265e+003,3.690515e-001
1.722193e+003,3.307517e-001
1.724122e+003,2.930232e-001
1.726051e+003,2.573997e-001
1.727979e+003,2.247578e-001
1.729908e+003,1.949227e-001
1.731836e+003,1.682161e-001
1.733765e+003,1.435625e-001
1.735693e+003,1.209557e-001
1.737622e+003,1.007723e-001
1.739550e+003,8.209268e-002
1.741479e+003,6.499651e-002
1.743407e+003,5.029392e-002
1.745336e+003,3.838615e-002
1.747265e+003,2.941145e-002
1.749193e+003,2.287336e-002
1.751122e+003,1.815803e-002
1.753050e+003,1.468491e-002
1.754979e+003,1.206198e-002
1.756907e+003,1.007215e-002
1.758836e+003,8.526470e-003
1.760764e+003,7.290635e-003
1.762693e+003,6.266775e-003
1.764621e+003,5.435450e-003
1.766550e+003,4.724174e-003
1.768479e+003,4.105032e-003
1.770407e+003,3.639608e-003
1.772336e+003,3.283406e-003
1.774264e+003,2.908182e-003
1.776193e+003,2.584876e-003
1.778121e+003,2.323766e-003
1.780050e+003,2.084820e-003
1.781978e+003,1.916121e-003
1.783907e+003,1.716317e-003
1.785835e+003,1.456627e-003
1.787764e+003,1.228225e-003
1.789693e+003,1.122274e-003
1.791621e+003,1.111810e-003
1.793550e+003,1.052883e-003
1.795478e+003,9.222373e-004
1.797407e+003,8.013899e-004
1.799335e+003,6.991937e-004
1.801264e+003,6.471922e-004
1.803192e+003,6.489177e-004
1.805121e+003,6.054825e-004
1.807049e+003,5.453309e-004
1.808978e+003,4.980913e-004
1.810907e+003,5.488475e-004
1.812835e+003,5.168008e-004
1.814764e+003,3.757037e-004
1.816692e+003,2.768569e-004
1.818621e+003,2.223200e-004
1.820549e+003,1.381909e-004
1.822478e+003,6.802951e-005
1.824406e+003,1.411533e-005
1.826335e+003,-1.408962e-004
1.828264e+003,-3.234996e-004
1.830192e+003,-4.331771e-004
1.832121e+003,-5.376313e-004
1.834049e+003,-6.690570e-004
1.835978e+003,-9.160839e-004
1.837906e+003,-1.180352e-003
1.839835e+003,-1.327406e-003
1.841763e+003,-1.476987e-003
1.843692e+003,-1.641370e-003
1.845620e+003,-1.812125e-003
1.847549e+003,-2.000558e-003
1.849478e+003,-2.179876e-003
1.851406e+003,-2.349200e-003
1.853335e+003,-2.414249e-003
1.855263e+003,-2.482451e-003
1.857192e+003,-2.623466e-003
1.859120e+003,-2.750443e-003
1.861049e+003,-2.826229e-003
1.862977e+003,-2.902463e-003
1.864906e+003,-3.010899e-003
1.866834e+003,-3.087956e-003
1.868763e+003,-3.071342e-003
1.870692e+003,-3.114012e-003
1.872620e+003,-3.133092e-003
1.874549e+003,-3.076046e-003
1.876477e+003,-3.081080e-003
1.878406e+003,-3.116084e-003
1.880334e+003,-3.103188e-003
1.882263e+003,-3.067196e-003
1.884191e+003,-3.041961e-003
1.886120e+003,-3.043902e-003
1.888048e+003,-3.005042e-003
1.889977e+003,-2.958643e-003
1.891906e+003,-2.871096e-003
1.893834e+003,-2.834986e-003
1.895763e+003,-2.852366e-003
1.897691e+003,-2.840615e-003
1.899620e+003,-2.787844e-003
1.901548e+003,-2.730128e-003
1.903477e+003,-2.676257e-003
1.905405e+003,-2.633709e-003
1.907334e+003,-2.574523e-003
1.909263e+003,-2.501229e-003
1.911191e+003,-2.383307e-003
1.913120e+003,-2.305235e-003
1.915048e+003,-2.268419e-003
1.916977e+003,-2.190887e-003
1.918905e+003,-2.104042e-003
1.920834e+003,-2.083268e-003
1.922762e+003,-2.031329e-003
1.924691e+003,-1.894805e-003
1.926620e+003,-1.741409e-003
1.928548e+003,-1.646948e-003
1.930477e+003,-1.543586e-003
1.932405e+003,-1.387555e-003
1.934334e+003,-1.222019e-003
1.936262e+003,-1.023397e-003
1.938191e+003,-8.434358e-004
1.940119e+003,-6.607862e-004
1.942048e+003,-4.843152e-004
1.943976e+003,-2.733692e-004
1.945905e+003,-9.120843e-005
1.947833e+003,6.561035e-005
1.949762e+003,2.277568e-004
1.951691e+003,3.143570e-004
1.953619e+003,3.575972e-004
1.955548e+003,4.391154e-004
1.957476e+003,4.905945e-004
1.959405e+003,4.235601e-004
1.961333e+003,2.874335e-004
1.963262e+003,1.214864e-004
1.965190e+003,-1.413268e-004
1.967119e+003,-3.612096e-004
1.969047e+003,-4.744521e-004
1.970976e+003,-5.575529e-004
1.972905e+003,-6.760706e-004
1.974833e+003,-8.312329e-004
1.976762e+003,-8.957159e-004
1.978690e+003,-9.290780e-004
1.980619e+003,-9.956623e-004
1.982547e+003,-1.072417e-003
1.984476e+003,-1.145093e-003
1.986404e+003,-1.218549e-003
1.988333e+003,-1.318190e-003
1.990262e+003,-1.373518e-003
1.992190e+003,-1.342800e-003
1.994119e+003,-1.349141e-003
1.996047e+003,-1.454994e-003
1.997976e+003,-1.580398e-003
1.999904e+003,-1.617999e-003
2.001833e+003,-1.699132e-003
2.003761e+003,-1.775762e-003
2.005690e+003,-1.763849e-003
2.007619e+003,-1.743752e-003
2.009547e+003,-1.822684e-003
2.011476e+003,-1.954447e-003
2.013404e+003,-2.070704e-003
2.015333e+003,-2.053655e-003
2.017261e+003,-1.986540e-003
2.019190e+003,-2.039574e-003
2.021118e+003,-2.118254e-003
2.023047e+003,-2.167512e-003
2.024975e+003,-2.222106e-003
2.026904e+003,-2.249828e-003
2.028833e+003,-2.324911e-003
2.030761e+003,-2.436786e-003
2.032690e+003,-2.522807e-003
2.034618e+003,-2.482648e-003
2.036547e+003,-2.439192e-003
2.038475e+003,-2.462782e-003
2.040404e+003,-2.452008e-003
2.042332e+003,-2.297556e-003
2.044261e+003,-2.137509e-003
2.046189e+003,-2.084554e-003
2.048118e+003,-2.111857e-003
2.050046e+003,-2.127156e-003
2.051975e+003,-2.030768e-003
2.053904e+003,-1.836608e-003
2.055832e+003,-1.675665e-003
2.057761e+003,-1.636848e-003
2.059689e+003,-1.650810e-003
2.061618e+003,-1.670054e-003
2.063546e+003,-1.622290e-003
2.065475e+003,-1.526384e-003
2.067403e+003,-1.467741e-003
2.069332e+003,-1.435543e-003
2.071260e+003,-1.341676e-003
2.073189e+003,-1.231138e-003
2.075118e+003,-1.202921e-003
2.077046e+003,-1.172190e-003
2.078975e+003,-1.124372e-003
2.080903e+003,-1.136401e-003
2.082832e+003,-1.090562e-003
2.084760e+003,-1.011067e-003
2.086689e+003,-9.937118e-004
2.088617e+003,-9.762897e-004
2.090546e+003,-8.897641e-004
2.092475e+003,-8.830515e-004
2.094403e+003,-9.063960e-004
2.096332e+003,-8.465774e-004
2.098260e+003,-7.623412e-004
2.100189e+003,-7.297271e-004
2.102117e+003,-7.920754e-004
2.104046e+003,-8.245195e-004
2.105974e+003,-7.173225e-004
2.107903e+003,-6.315061e-004
2.109832e+003,-6.566508e-004
2.111760e+003,-7.158670e-004
2.113688e+003,-7.520214e-004
2.115617e+003,-7.285363e-004
2.117546e+003,-7.017750e-004
2.119474e+003,-7.435206e-004
2.121403e+003,-7.770266e-004
2.123331e+003,-7.678648e-004
2.125260e+003,-8.300424e-004
2.127188e+003,-8.868873e-004
2.129117e+003,-9.075533e-004
2.131045e+003,-9.406500e-004
2.132974e+003,-9.920589e-004
2.134903e+003,-9.875299e-004
2.136831e+003,-1.036421e-003
2.138760e+003,-1.106162e-003
2.140688e+003,-1.135575e-003
2.142617e+003,-1.153718e-003
2.144545e+003,-1.201202e-003
2.146474e+003,-1.259915e-003
2.148402e+003,-1.284329e-003
2.150331e+003,-1.287369e-003
2.152260e+003,-1.353237e-003
2.154188e+003,-1.472430e-003
2.156117e+003,-1.557057e-003
2.158045e+003,-1.593933e-003
2.159974e+003,-1.717713e-003
2.161902e+003,-1.844427e-003
2.163831e+003,-1.869534e-003
2.165759e+003,-1.874351e-003
2.167688e+003,-1.951247e-003
2.169616e+003,-1.958966e-003
2.171545e+003,-1.981956e-003
2.173474e+003,-1.994060e-003
2.175402e+003,-1.998348e-003
2.177331e+003,-2.037364e-003
2.179259e+003,-2.048115e-003
2.181188e+003,-2.067308e-003
2.183116e+003,-2.104603e-003
2.185045e+003,-2.211952e-003
2.186973e+003,-2.281274e-003
2.188902e+003,-2.209909e-003
2.190831e+003,-2.123562e-003
2.192759e+003,-2.075750e-003
2.194688e+003,-2.073441e-003
2.196616e+003,-2.058107e-003
2.198545e+003,-2.061273e-003
2.200473e+003,-2.064670e-003
2.202402e+003,-2.025920e-003
2.204330e+003,-1.942671e-003
2.206259e+003,-1.943760e-003
2.208188e+003,-1.919646e-003
2.210116e+003,-1.849013e-003
2.212044e+003,-1.756391e-003
2.213973e+003,-1.699132e-003
2.215902e+003,-1.651008e-003
2.217830e+003,-1.596079e-003
2.219759e+003,-1.569305e-003
2.221687e+003,-1.584954e-003
2.223616e+003,-1.573597e-003
2.225544e+003,-1.510040e-003
2.227473e+003,-1.445714e-003
2.229401e+003,-1.480322e-003
2.231330e+003,-1.519450e-003
2.233259e+003,-1.461664e-003
2.235187e+003,-1.479298e-003
2.237116e+003,-1.513408e-003
2.239044e+003,-1.423720e-003
2.240973e+003,-1.378373e-003
2.242901e+003,-1.326944e-003
2.244830e+003,-1.266721e-003
2.246758e+003,-1.264507e-003
2.248687e+003,-1.229023e-003
2.250615e+003,-1.161252e-003
2.252544e+003,-1.114523e-003
2.254473e+003,-1.087257e-003
2.256401e+003,-1.048783e-003
2.258330e+003,-9.959267e-004
2.260258e+003,-9.198863e-004
2.262187e+003,-8.190958e-004
2.264115e+003,-7.524844e-004
2.266044e+003,-6.645908e-004
2.267972e+003,-6.135402e-004
2.269901e+003,-5.497763e-004
2.271830e+003,-4.448947e-004
2.273758e+003,-3.961355e-004
2.275687e+003,-3.612758e-004
2.277615e+003,-2.979054e-004
2.279544e+003,-2.226699e-004
2.281472e+003,-1.406312e-004
2.283401e+003,-6.275134e-005
2.285329e+003,1.554014e-005
2.287258e+003,3.883483e-005
2.289187e+003,-5.997220e-006
2.291115e+003,-1.580465e-005
2.293043e+003,-5.947153e-005
2.294972e+003,-1.561658e-004
2.296901e+003,-2.032629e-004
2.298829e+003,-1.939565e-004
2.300758e+003,-1.742170e-004
2.302686e+003,-2.090586e-004
2.304615e+003,-2.308497e-004
2.306543e+003,-2.044552e-004
2.308472e+003,-2.631702e-004
2.310400e+003,-2.604880e-004
2.312329e+003,-2.378373e-004
2.314258e+003,-2.238621e-004
2.316186e+003,-1.619621e-004
2.318115e+003,-1.243011e-004
2.320043e+003,-1.256261e-004
2.321972e+003,-8.888953e-005
2.323900e+003,-5.191794e-005
2.325829e+003,-7.832181e-005
2.327757e+003,-6.420902e-005
2.329686e+003,-4.519248e-005
2.331615e+003,-4.820735e-005
2.333543e+003,1.696496e-005
2.335472e+003,3.721112e-005
2.337400e+003,6.560590e-006
2.339329e+003,8.813744e-006
2.341257e+003,1.948325e-005
2.343186e+003,3.992835e-005
2.345114e+003,3.164416e-005
2.347043e+003,-2.511488e-005
2.348971e+003,-3.936145e-005
2.350900e+003,1.885368e-005
2.352829e+003,1.557579e-004
2.354757e+003,3.077254e-004
2.356686e+003,3.593547e-004
2.358614e+003,3.812751e-004
2.360543e+003,4.172917e-004
2.362471e+003,4.555005e-004
2.364400e+003,5.116589e-004
2.366328e+003,5.326912e-004
2.368257e+003,5.657013e-004
2.370186e+003,5.910494e-004
2.372114e+003,5.581037e-004
2.374042e+003,5.549188e-004
2.375971e+003,5.919784e-004
2.377900e+003,6.429115e-004
2.379828e+003,6.490836e-004
2.381757e+003,6.564173e-004
2.383685e+003,6.336204e-004
2.385614e+003,6.135123e-004
2.387542e+003,6.258558e-004
2.389471e+003,6.122846e-004
2.391399e+003,5.484163e-004
2.393328e+003,5.109955e-004
2.395257e+003,5.570089e-004
2.397185e+003,5.744601e-004
2.399114e+003,5.292410e-004
2.401042e+003,4.692658e-004
2.402971e+003,3.989845e-004
2.404899e+003,3.309363e-004
2.406828e+003,3.101128e-004
2.408756e+003,3.094496e-004
2.410685e+003,2.878645e-004
2.412614e+003,1.999768e-004
2.414542e+003,1.069367e-004
2.416471e+003,5.364732e-005
2.418399e+003,3.992835e-005
2.420328e+003,5.116197e-005
2.422256e+003,1.945012e-005
2.424185e+003,-8.064076e-005
2.426113e+003,-1.844180e-004
2.428042e+003,-2.006796e-004
2.429970e+003,-2.068728e-004
2.431899e+003,-2.747268e-004
2.433828e+003,-3.337634e-004
2.435756e+003,-4.361231e-004
2.437685e+003,-5.282328e-004
2.439613e+003,-5.566925e-004
2.441542e+003,-5.700613e-004
2.443470e+003,-5.804847e-004
2.445399e+003,-5.597700e-004
2.447327e+003,-5.326674e-004
2.449256e+003,-5.996764e-004
2.451185e+003,-6.721668e-004
2.453113e+003,-6.882779e-004
2.455042e+003,-6.200583e-004
2.456970e+003,-6.506625e-004
2.458899e+003,-7.570160e-004
2.460827e+003,-8.281242e-004
2.462756e+003,-8.423445e-004
2.464684e+003,-8.546793e-004
2.466613e+003,-9.048089e-004
2.468542e+003,-9.539739e-004
2.470470e+003,-9.709341e-004
2.472398e+003,-9.888522e-004
2.474327e+003,-1.011894e-003
2.476256e+003,-9.928192e-004
2.478184e+003,-9.947035e-004
2.480113e+003,-1.011431e-003
2.482041e+003,-1.056088e-003
2.483970e+003,-1.064054e-003
2.485898e+003,-1.035694e-003
2.487827e+003,-1.003927e-003
2.489755e+003,-9.866704e-004
2.491684e+003,-9.218702e-004
2.493613e+003,-8.629134e-004
2.495541e+003,-8.077190e-004
2.497470e+003,-7.226152e-004
2.499398e+003,-6.869877e-004
2.501327e+003,-6.652856e-004
2.503255e+003,-6.273373e-004
2.505184e+003,-5.436211e-004
2.507112e+003,-4.306945e-004
2.509041e+003,-3.836552e-004
2.510969e+003,-3.603819e-004
2.512898e+003,-2.698592e-004
2.514827e+003,-1.590805e-004
2.516755e+003,-7.013910e-005
2.518684e+003,-4.751161e-005
2.520612e+003,-6.334767e-005
2.522541e+003,-5.165290e-005
2.524469e+003,1.249171e-005
2.526398e+003,1.842292e-005
2.528326e+003,-3.737359e-005
2.530255e+003,-2.299441e-005
2.532184e+003,9.807786e-006
2.534112e+003,7.591672e-005
2.536041e+003,1.183709e-004
2.537969e+003,1.616911e-004
2.539898e+003,1.975238e-004
2.541826e+003,2.027945e-004
2.543755e+003,2.277568e-004
2.545683e+003,2.425095e-004
2.547612e+003,2.832559e-004
2.549541e+003,3.202591e-004
2.551469e+003,2.947942e-004
2.553397e+003,2.867704e-004
2.555326e+003,3.399557e-004
2.557255e+003,4.149038e-004
2.559183e+003,4.415698e-004
2.561112e+003,4.629967e-004
2.563040e+003,5.502741e-004
2.564969e+003,6.257562e-004
2.566897e+003,6.003728e-004
2.568826e+003,6.186885e-004
2.570754e+003,6.763946e-004
2.572683e+003,6.668040e-004
2.574612e+003,6.710849e-004
2.576540e+003,7.828673e-004
2.578469e+003,8.684494e-004
2.580397e+003,8.168591e-004
2.582326e+003,8.306027e-004
2.584254e+003,8.566303e-004
2.586183e+003,8.634694e-004
2.588111e+003,8.519823e-004
2.590040e+003,8.140706e-004
2.591969e+003,8.635026e-004
2.593897e+003,8.997585e-004
2.595826e+003,9.032116e-004
2.597754e+003,9.232003e-004
2.599683e+003,9.018835e-004
2.601611e+003,9.043737e-004
2.603540e+003,1.015652e-003
2.605468e+003,1.059626e-003
2.607397e+003,1.021796e-003
2.609325e+003,9.817771e-004
2.611254e+003,9.937657e-004
2.613183e+003,1.011699e-003
2.615111e+003,1.030830e-003
2.617040e+003,1.126294e-003
2.618968e+003,1.230484e-003
2.620897e+003,1.245072e-003
2.622825e+003,1.219154e-003
2.624754e+003,1.151508e-003
2.626682e+003,1.164631e-003
2.628611e+003,1.188719e-003
2.630540e+003,1.185695e-003
2.632468e+003,1.215532e-003
2.634396e+003,1.240918e-003
2.636325e+003,1.223340e-003
2.638254e+003,1.215166e-003
2.640182e+003,1.190513e-003
2.642111e+003,1.181442e-003
2.644039e+003,1.285680e-003
2.645968e+003,1.268632e-003
2.647896e+003,1.147522e-003
2.649825e+003,1.135329e-003
2.651753e+003,1.169781e-003
2.653682e+003,1.161176e-003
2.655611e+003,1.133004e-003
2.657539e+003,1.066634e-003
2.659468e+003,9.962232e-004
2.661396e+003,9.844005e-004
2.663325e+003,9.832714e-004
2.665253e+003,8.885693e-004
2.667182e+003,8.385369e-004
2.669110e+003,7.581718e-004
2.671039e+003,5.959268e-004
2.672968e+003,5.478523e-004
2.674896e+003,5.232365e-004
2.676825e+003,4.316196e-004
2.678753e+003,4.628309e-004
2.680682e+003,5.423783e-004
2.682610e+003,5.537576e-004
2.684539e+003,6.184562e-004
2.686467e+003,7.223924e-004
2.688396e+003,7.760294e-004
2.690324e+003,8.547711e-004
2.692253e+003,9.233663e-004
2.694182e+003,1.021663e-003
2.696110e+003,1.091181e-003
2.698039e+003,1.095566e-003
2.699967e+003,1.110149e-003
2.701896e+003,1.201211e-003
2.703824e+003,1.311635e-003
2.705753e+003,1.408158e-003
2.707681e+003,1.437345e-003
2.709610e+003,1.418596e-003
2.711539e+003,1.392368e-003
2.713467e+003,1.380402e-003
2.715396e+003,1.353911e-003
2.717324e+003,1.388878e-003
2.719253e+003,1.501012e-003
2.721181e+003,1.568778e-003
2.723110e+003,1.533297e-003
2.725038e+003,1.471089e-003
2.726967e+003,1.528808e-003
2.728896e+003,1.594617e-003
2.730824e+003,1.587400e-003
2.732752e+003,1.563823e-003
2.734681e+003,1.515109e-003
2.736610e+003,1.541377e-003
2.738538e+003,1.607221e-003
2.740467e+003,1.630834e-003
2.742395e+003,1.539482e-003
2.744324e+003,1.474912e-003
2.746252e+003,1.516639e-003
2.748181e+003,1.567015e-003
2.750109e+003,1.589097e-003
2.752038e+003,1.602100e-003
2.753967e+003,1.640646e-003
2.755895e+003,1.718613e-003
2.757824e+003,1.723603e-003
2.759752e+003,1.673740e-003
2.761681e+003,1.668850e-003
2.763609e+003,1.706305e-003
2.765538e+003,1.716883e-003
2.767466e+003,1.669516e-003
2.769395e+003,1.695860e-003
2.771323e+003,1.728127e-003
2.773252e+003,1.675603e-003
2.775181e+003,1.725565e-003
2.777109e+003,1.848101e-003
2.779038e+003,1.878682e-003
2.780966e+003,1.826140e-003
2.782895e+003,1.794897e-003
2.784823e+003,1.812897e-003
2.786752e+003,1.851628e-003
2.788680e+003,1.944178e-003
2.790609e+003,2.013111e-003
2.792538e+003,2.093143e-003
2.794466e+003,2.152078e-003
2.796395e+003,2.082989e-003
2.798323e+003,2.016141e-003
2.800252e+003,2.064078e-003
2.802180e+003,2.192970e-003
2.804109e+003,2.236431e-003
2.806037e+003,2.158338e-003
2.807966e+003,2.022000e-003
2.809895e+003,1.932029e-003
2.811823e+003,1.788908e-003
2.813751e+003,1.691070e-003
2.815680e+003,1.771907e-003
2.817609e+003,1.848633e-003
2.819537e+003,1.948105e-003
2.821466e+003,2.003092e-003
2.823394e+003,2.088216e-003
2.825323e+003,2.272902e-003
2.827251e+003,2.408686e-003
2.829180e+003,2.492423e-003
2.831108e+003,2.708488e-003
2.833037e+003,2.969562e-003
2.834966e+003,3.192907e-003
2.836894e+003,3.427154e-003
2.838823e+003,3.605128e-003
2.840751e+003,3.786416e-003
2.842680e+003,4.040548e-003
2.844608e+003,4.352422e-003
2.846537e+003,4.822564e-003
2.848465e+003,5.417534e-003
2.850394e+003,6.067446e-003
2.852323e+003,6.766456e-003
2.854251e+003,7.228674e-003
2.856180e+003,7.293567e-003
2.858108e+003,7.250877e-003
2.860037e+003,7.051837e-003
2.861965e+003,6.691884e-003
2.863894e+003,6.437206e-003
2.865822e+003,6.313369e-003
2.867751e+003,6.250068e-003
2.869679e+003,6.263043e-003
2.871608e+003,6.332835e-003
2.873537e+003,6.324698e-003
2.875465e+003,6.236992e-003
2.877394e+003,6.208792e-003
2.879322e+003,6.322211e-003
2.881251e+003,6.401123e-003
2.883179e+003,6.378158e-003
2.885108e+003,6.492462e-003
2.887036e+003,6.662577e-003
2.888965e+003,6.805160e-003
2.890894e+003,6.917422e-003
2.892822e+003,6.971257e-003
2.894750e+003,7.104174e-003
2.896679e+003,7.285985e-003
2.898608e+003,7.556334e-003
2.900536e+003,7.933438e-003
2.902465e+003,8.443858e-003
2.904393e+003,9.007075e-003
2.906322e+003,9.409311e-003
2.908250e+003,9.583826e-003
2.910179e+003,9.582268e-003
2.912107e+003,9.453975e-003
2.914036e+003,9.269087e-003
2.915965e+003,9.264112e-003
2.917893e+003,9.518659e-003
2.919822e+003,9.914081e-003
2.921750e+003,1.018916e-002
2.923679e+003,1.035486e-002
2.925607e+003,1.042042e-002
2.927536e+003,1.059443e-002
2.929464e+003,1.064583e-002
2.931393e+003,1.041686e-002
2.933322e+003,1.024625e-002
2.935250e+003,1.002800e-002
2.937179e+003,9.839916e-003
2.939107e+003,9.795213e-003
2.941036e+003,9.759800e-003
2.942964e+003,9.746550e-003
2.944893e+003,9.905064e-003
2.946821e+003,1.022793e-002
2.948750e+003,1.060125e-002
2.950678e+003,1.112733e-002
2.952607e+003,1.171317e-002
2.954536e+003,1.217871e-002
2.956464e+003,1.261200e-002
2.958393e+003,1.297239e-002
2.960321e+003,1.332139e-002
2.962250e+003,1.364989e-002
2.964178e+003,1.387582e-002
2.966107e+003,1.404629e-002
2.968035e+003,1.396878e-002
2.969964e+003,1.368107e-002
2.971893e+003,1.335091e-002
2.973821e+003,1.293467e-002
2.975750e+003,1.239907e-002
2.977678e+003,1.184717e-002
2.979607e+003,1.126785e-002
2.981535e+003,1.065565e-002
2.983464e+003,1.011593e-002
2.985392e+003,9.654051e-003
2.987321e+003,9.234359e-003
2.989250e+003,8.931305e-003
2.991178e+003,8.701847e-003
2.993106e+003,8.452846e-003
2.995035e+003,8.197707e-003
2.996964e+003,7.855562e-003
2.998892e+003,7.591366e-003
3.000821e+003,7.453109e-003
3.002749e+003,7.367028e-003
3.004678e+003,7.252865e-003
3.006606e+003,6.944860e-003
3.008535e+003,6.601446e-003
3.010463e+003,6.390498e-003
3.012392e+003,6.106290e-003
3.014321e+003,5.767903e-003
3.016249e+003,5.481820e-003
3.018178e+003,5.225469e-003
3.020106e+003,4.983547e-003
3.022035e+003,4.822128e-003
3.023963e+003,4.592821e-003
3.025892e+003,4.351954e-003
3.027820e+003,4.243967e-003
3.029749e+003,4.221817e-003
3.031677e+003,4.154505e-003
3.033606e+003,4.138348e-003
3.035535e+003,4.089111e-003
3.037463e+003,3.995234e-003
3.039392e+003,4.014128e-003
3.041320e+003,4.058440e-003
3.043249e+003,4.094630e-003
3.045177e+003,4.259559e-003
3.047106e+003,4.500107e-003
3.049034e+003,4.729801e-003
3.050963e+003,4.986027e-003
3.052892e+003,5.171582e-003
3.054820e+003,5.150491e-003
3.056749e+003,5.117533e-003
3.058677e+003,5.077739e-003
3.060606e+003,5.031479e-003
3.062534e+003,5.008451e-003
3.064463e+003,5.008585e-003
3.066391e+003,5.024204e-003
3.068320e+003,5.035333e-003
3.070249e+003,4.990485e-003
3.072177e+003,4.889376e-003
3.074105e+003,4.925568e-003
3.076034e+003,4.976073e-003
3.077963e+003,4.943865e-003
3.079891e+003,4.992697e-003
3.081820e+003,5.059569e-003
3.083748e+003,4.942826e-003
3.085677e+003,4.824775e-003
3.087605e+003,4.734424e-003
3.089534e+003,4.626007e-003
3.091462e+003,4.577719e-003
3.093391e+003,4.493378e-003
3.095320e+003,4.415882e-003
3.097248e+003,4.515307e-003
3.099177e+003,4.616597e-003
3.101105e+003,4.680363e-003
3.103034e+003,4.722164e-003
3.104962e+003,4.633743e-003
3.106891e+003,4.591381e-003
3.108819e+003,4.585923e-003
3.110748e+003,4.521970e-003
3.112677e+003,4.304733e-003
3.114605e+003,4.114799e-003
3.116534e+003,4.122593e-003
3.118462e+003,4.153301e-003
3.120391e+003,4.128681e-003
3.122319e+003,4.082020e-003
3.124248e+003,3.996237e-003
3.126176e+003,3.977176e-003
3.128105e+003,4.013191e-003
3.130033e+003,3.971157e-003
3.131962e+003,4.000618e-003
3.133891e+003,4.084461e-003
3.135819e+003,4.052052e-003
3.137748e+003,3.912276e-003
3.139676e+003,3.656649e-003
3.141605e+003,3.570516e-003
3.143533e+003,3.645757e-003
3.145462e+003,3.604927e-003
3.147390e+003,3.563968e-003
3.149319e+003,3.594904e-003
3.151248e+003,3.637169e-003
3.153176e+003,3.500900e-003
3.155104e+003,3.410857e-003
3.157033e+003,3.502704e-003
3.158962e+003,3.534304e-003
3.160890e+003,3.521911e-003
3.162819e+003,3.571184e-003
3.164747e+003,3.705303e-003
3.166676e+003,3.718002e-003
3.168604e+003,3.591463e-003
3.170533e+003,3.438008e-003
3.172461e+003,3.436372e-003
3.174390e+003,3.573556e-003
3.176319e+003,3.659423e-003
3.178247e+003,3.671953e-003
3.180176e+003,3.707442e-003
3.182104e+003,3.811853e-003
3.184033e+003,3.789023e-003
3.185961e+003,3.729365e-003
3.187890e+003,3.725555e-003
3.189818e+003,3.695746e-003
3.191747e+003,3.669380e-003
3.193676e+003,3.684284e-003
3.195604e+003,3.731637e-003
3.197532e+003,3.813691e-003
3.199461e+003,3.762184e-003
3.201390e+003,3.628014e-003
3.203318e+003,3.577030e-003
3.205247e+003,3.547399e-003
3.207175e+003,3.531732e-003
3.209104e+003,3.460452e-003
3.211032e+003,3.487907e-003
3.212961e+003,3.597443e-003
3.214889e+003,3.607333e-003
3.216818e+003,3.561296e-003
3.218747e+003,3.605395e-003
3.220675e+003,3.652172e-003
3.222604e+003,3.674393e-003
3.224532e+003,3.770406e-003
3.226461e+003,3.795541e-003
3.228389e+003,3.793268e-003
3.230318e+003,3.780233e-003
3.232246e+003,3.719740e-003
3.234175e+003,3.640377e-003
3.236104e+003,3.652940e-003
3.238032e+003,3.707174e-003
3.239961e+003,3.701594e-003
3.241889e+003,3.777859e-003
3.243818e+003,3.873395e-003
3.245746e+003,3.929963e-003
3.247675e+003,3.915419e-003
3.249603e+003,3.817401e-003
3.251532e+003,3.702529e-003
3.253460e+003,3.744705e-003
3.255389e+003,3.862195e-003
3.257318e+003,3.895426e-003
3.259246e+003,3.941197e-003
3.261175e+003,3.947818e-003
3.263103e+003,3.841235e-003
3.265032e+003,3.807674e-003
3.266960e+003,3.851297e-003
3.268889e+003,3.880850e-003
3.270817e+003,3.993127e-003
3.272746e+003,3.984232e-003
3.274675e+003,3.854674e-003
3.276603e+003,3.883825e-003
3.278531e+003,3.929963e-003
3.280460e+003,3.926018e-003
3.282389e+003,3.925215e-003
3.284317e+003,4.023692e-003
3.286246e+003,4.030515e-003
3.288174e+003,3.982794e-003
3.290103e+003,3.998143e-003
3.292031e+003,4.094596e-003
3.293960e+003,4.109012e-003
3.295888e+003,4.004497e-003
3.297817e+003,4.044895e-003
3.299746e+003,4.108210e-003
3.301674e+003,3.969285e-003
3.303603e+003,3.974869e-003
3.305531e+003,4.006871e-003
3.307460e+003,4.073224e-003
3.309388e+003,4.164742e-003
3.311317e+003,4.113929e-003
3.313245e+003,4.081619e-003
3.315174e+003,4.053290e-003
3.317103e+003,4.011419e-003
3.319031e+003,3.990151e-003
3.320960e+003,3.913480e-003
3.322888e+003,3.908833e-003
3.324817e+003,3.938623e-003
3.326745e+003,3.975672e-003
3.328674e+003,4.104463e-003
3.330602e+003,4.128112e-003
3.332531e+003,4.011051e-003
3.334459e+003,4.002156e-003
3.336388e+003,4.056032e-003
3.338317e+003,4.072956e-003
3.340245e+003,4.021151e-003
3.342174e+003,3.926553e-003
3.344102e+003,3.847219e-003
3.346031e+003,3.926754e-003
3.347959e+003,3.894791e-003
3.349888e+003,3.750286e-003
3.351816e+003,3.736650e-003
3.353745e+003,3.788689e-003
3.355674e+003,3.804466e-003
3.357602e+003,3.683114e-003
3.359531e+003,3.612077e-003
3.361459e+003,3.651337e-003
3.363388e+003,3.529861e-003
3.365316e+003,3.555449e-003
3.367245e+003,3.758909e-003
3.369173e+003,3.688929e-003
3.371102e+003,3.439177e-003
3.373031e+003,3.376495e-003
3.374959e+003,3.379901e-003
3.376887e+003,3.372655e-003
3.378816e+003,3.407818e-003
3.380745e+003,3.474113e-003
3.382673e+003,3.487840e-003
3.384602e+003,3.405881e-003
3.386530e+003,3.357361e-003
3.388459e+003,3.311251e-003
3.390387e+003,3.321100e-003
3.392316e+003,3.336626e-003
3.394244e+003,3.275193e-003
3.396173e+003,3.191038e-003
3.398102e+003,3.145179e-003
3.400030e+003,3.143911e-003
3.401959e+003,3.144077e-003
3.403887e+003,3.088278e-003
3.405816e+003,3.076499e-003
3.407744e+003,2.993817e-003
3.409673e+003,2.923192e-003
3.411601e+003,2.903545e-003
3.413530e+003,2.885667e-003
3.415458e+003,2.871124e-003
3.417387e+003,2.942007e-003
3.419316e+003,3.066755e-003
3.421244e+003,3.232463e-003
3.423173e+003,3.233731e-003
3.425101e+003,3.134332e-003
3.427030e+003,3.232797e-003
3.428958e+003,3.403878e-003
3.430887e+003,3.508716e-003
3.432815e+003,3.535941e-003
3.434744e+003,3.493184e-003
3.436673e+003,3.406082e-003
3.438601e+003,3.302870e-003
3.440530e+003,3.257967e-003
3.442458e+003,3.268583e-003
3.444387e+003,3.228056e-003
3.446315e+003,3.159063e-003
3.448244e+003,3.117212e-003
3.450172e+003,3.086510e-003
3.452101e+003,3.121383e-003
3.454030e+003,3.179056e-003
3.455958e+003,3.202020e-003
3.457886e+003,3.237570e-003
3.459815e+003,3.295692e-003
3.461744e+003,3.329848e-003
3.463672e+003,3.306610e-003
3.465601e+003,3.333220e-003
3.467529e+003,3.513193e-003
3.469458e+003,3.531732e-003
3.471386e+003,3.451802e-003
3.473315e+003,3.452704e-003
3.475243e+003,3.393826e-003
3.477172e+003,3.327477e-003
3.479101e+003,3.456611e-003
3.481029e+003,3.634262e-003
3.482958e+003,3.610139e-003
3.484886e+003,3.619428e-003
3.486815e+003,3.836188e-003
3.488743e+003,3.863733e-003
3.490672e+003,3.913948e-003
3.492600e+003,4.060514e-003
3.494529e+003,4.003962e-003
3.496458e+003,3.924881e-003
3.498386e+003,3.981992e-003
3.500315e+003,4.085599e-003
3.502243e+003,4.142730e-003
3.504172e+003,4.143633e-003
3.506100e+003,4.221650e-003
3.508029e+003,4.242528e-003
3.509957e+003,4.250659e-003
3.511886e+003,4.290478e-003
3.513814e+003,4.236740e-003
3.515743e+003,4.210006e-003
3.517672e+003,4.288470e-003
3.519600e+003,4.241892e-003
3.521529e+003,4.253168e-003
3.523457e+003,4.328259e-003
3.525386e+003,4.366546e-003
3.527314e+003,4.426325e-003
3.529243e+003,4.375047e-003
3.531171e+003,4.392284e-003
3.533100e+003,4.435832e-003
3.535029e+003,4.350146e-003
3.536957e+003,4.321800e-003
3.538885e+003,4.256982e-003
3.540814e+003,4.215661e-003
3.542743e+003,4.309987e-003
3.544671e+003,4.390309e-003
3.546600e+003,4.285224e-003
3.548528e+003,4.343854e-003
3.550457e+003,4.410560e-003
3.552385e+003,4.301621e-003
3.554314e+003,4.261633e-003
3.556242e+003,4.355736e-003
3.558171e+003,4.257116e-003
3.560100e+003,3.965807e-003
3.562028e+003,3.845915e-003
3.563957e+003,3.896128e-003
3.565885e+003,4.047939e-003
3.567814e+003,4.045497e-003
3.569742e+003,3.922306e-003
3.571671e+003,3.916923e-003
3.573599e+003,3.837859e-003
3.575528e+003,3.717835e-003
3.577457e+003,3.843809e-003
3.579385e+003,3.867344e-003
3.581314e+003,3.614516e-003
3.583242e+003,3.505009e-003
3.585171e+003,3.520040e-003
3.587099e+003,3.641814e-003
3.589028e+003,3.680474e-003
3.590956e+003,3.633861e-003
3.592885e+003,3.544826e-003
3.594813e+003,3.494788e-003
3.596742e+003,3.415666e-003
3.598671e+003,3.270686e-003
3.600599e+003,3.304506e-003
3.602528e+003,3.373256e-003
3.604456e+003,3.368247e-003
3.606385e+003,3.385077e-003
3.608313e+003,3.385077e-003
3.610242e+003,3.326208e-003
3.612170e+003,3.307778e-003
3.614099e+003,3.405514e-003
3.616028e+003,3.446324e-003
3.617956e+003,3.351217e-003
3.619885e+003,3.246316e-003
3.621813e+003,3.260571e-003
3.623742e+003,3.406549e-003
3.625670e+003,3.387715e-003
3.627599e+003,3.250022e-003
3.629527e+003,3.313554e-003
3.631456e+003,3.321267e-003
3.633385e+003,3.209363e-003
3.635313e+003,3.208462e-003
3.637241e+003,3.251424e-003
3.639170e+003,3.211600e-003
3.641099e+003,3.178321e-003
3.643027e+003,3.221848e-003
3.644956e+003,3.116311e-003
3.646884e+003,3.096187e-003
3.648813e+003,3.088712e-003
3.650741e+003,2.965192e-003
3.652670e+003,2.881197e-003
3.654598e+003,2.811125e-003
3.656527e+003,2.687917e-003
3.658456e+003,2.552512e-003
3.660384e+003,2.601776e-003
3.662313e+003,2.673081e-003
3.664241e+003,2.699753e-003
3.666170e+003,2.769607e-003
3.668098e+003,2.703987e-003
3.670027e+003,2.568610e-003
3.671955e+003,2.479560e-003
3.673884e+003,2.357945e-003
3.675813e+003,2.427778e-003
3.677741e+003,2.435275e-003
3.679670e+003,2.299949e-003
3.681598e+003,2.301881e-003
3.683527e+003,2.329396e-003
3.685455e+003,2.298916e-003
3.687384e+003,2.254983e-003
3.689312e+003,2.166962e-003
3.691241e+003,2.056155e-003
3.693169e+003,1.983519e-003
3.695098e+003,1.912494e-003
3.697027e+003,1.847935e-003
3.698955e+003,1.864639e-003
3.700884e+003,1.868699e-003
3.702812e+003,1.890696e-003
3.704741e+003,1.846837e-003
3.706669e+003,1.866170e-003
3.708598e+003,1.949370e-003
3.710526e+003,1.956393e-003
3.712455e+003,1.779592e-003
3.714384e+003,1.659504e-003
3.716312e+003,1.722605e-003
3.718240e+003,1.813596e-003
3.720169e+003,1.914091e-003
3.722098e+003,1.934526e-003
3.724026e+003,1.875953e-003
3.725955e+003,1.723469e-003
3.727883e+003,1.552683e-003
3.729812e+003,1.599472e-003
3.731740e+003,1.692234e-003
3.733669e+003,1.620025e-003
3.735597e+003,1.662232e-003
3.737526e+003,1.769612e-003
3.739455e+003,1.816091e-003
3.741383e+003,1.860213e-003
3.743312e+003,1.929034e-003
3.745240e+003,1.901178e-003
3.747169e+003,1.769412e-003
3.749097e+003,1.764056e-003
3.751026e+003,1.731952e-003
3.752954e+003,1.584441e-003
3.754883e+003,1.624448e-003
3.756812e+003,1.744793e-003
3.758740e+003,1.748652e-003
3.760669e+003,1.758666e-003
3.762597e+003,1.790738e-003
3.764526e+003,1.771075e-003
3.766454e+003,1.708567e-003
3.768383e+003,1.671112e-003
3.770311e+003,1.630834e-003
3.772240e+003,1.685082e-003
3.774168e+003,1.801518e-003
3.776097e+003,1.759764e-003
3.778026e+003,1.565419e-003
3.779954e+003,1.506298e-003
3.781883e+003,1.666855e-003
3.783811e+003,1.777297e-003
3.785740e+003,1.771674e-003
3.787668e+003,1.770344e-003
3.789597e+003,1.775667e-003
3.791525e+003,1.718613e-003
3.793454e+003,1.769711e-003
3.795383e+003,1.896220e-003
3.797311e+003,1.847668e-003
3.799240e+003,1.741334e-003
3.801168e+003,1.760662e-003
3.803097e+003,1.783618e-003
3.805025e+003,1.698521e-003
3.806954e+003,1.603995e-003
3.808882e+003,1.591624e-003
3.810811e+003,1.545068e-003
3.812740e+003,1.509557e-003
3.814668e+003,1.557172e-003
3.816596e+003,1.664959e-003
3.818525e+003,1.607321e-003
3.820454e+003,1.557073e-003
3.822382e+003,1.511119e-003
3.824311e+003,1.425311e-003
3.826239e+003,1.538318e-003
3.828168e+003,1.594251e-003
3.830096e+003,1.533031e-003
3.832025e+003,1.577756e-003
3.833953e+003,1.630269e-003
3.835882e+003,1.615569e-003
3.837811e+003,1.572968e-003
3.839739e+003,1.601601e-003
3.841668e+003,1.639482e-003
3.843596e+003,1.530537e-003
3.845525e+003,1.444426e-003
3.847453e+003,1.410784e-003
3.849382e+003,1.467764e-003
3.851310e+003,1.573633e-003
3.853239e+003,1.558636e-003
3.855167e+003,1.566084e-003
3.857096e+003,1.545999e-003
3.859025e+003,1.454599e-003
3.860953e+003,1.439805e-003
3.862882e+003,1.474214e-003
3.864810e+003,1.437877e-003
3.866739e+003,1.481462e-003
3.868667e+003,1.552550e-003
3.870596e+003,1.570308e-003
3.872524e+003,1.595914e-003
3.874453e+003,1.517271e-003
3.876382e+003,1.446421e-003
3.878310e+003,1.517304e-003
3.880239e+003,1.587234e-003
3.882167e+003,1.466734e-003
3.884096e+003,1.365245e-003
3.886024e+003,1.434685e-003
3.887953e+003,1.516539e-003
3.889881e+003,1.562626e-003
3.891810e+003,1.566916e-003
3.893739e+003,1.548992e-003
3.895667e+003,1.521560e-003
3.897595e+003,1.478569e-003
3.899524e+003,1.550987e-003
3.901453e+003,1.549857e-003
3.903381e+003,1.543273e-003
3.905310e+003,1.615968e-003
3.907238e+003,1.564920e-003
3.909167e+003,1.555144e-003
3.911095e+003,1.732218e-003
3.913024e+003,1.851928e-003
3.914952e+003,1.777896e-003
3.916881e+003,1.660269e-003
3.918810e+003,1.629105e-003
3.920738e+003,1.550721e-003
3.922667e+003,1.488211e-003
3.924595e+003,1.583676e-003
3.926524e+003,1.579186e-003
3.928452e+003,1.463475e-003
3.930381e+003,1.550522e-003
3.932309e+003,1.745825e-003
3.934238e+003,1.715453e-003
3.936167e+003,1.625147e-003
3.938095e+003,1.548826e-003
3.940024e+003,1.414806e-003
3.941952e+003,1.364879e-003
3.943881e+003,1.447551e-003
3.945809e+003,1.496955e-003
3.947738e+003,1.446687e-003
3.949666e+003,1.266571e-003
3.951595e+003,1.209784e-003
3.953523e+003,1.365411e-003
3.955452e+003,1.565585e-003
3.957380e+003,1.586303e-003
3.959309e+003,1.525184e-003
3.961238e+003,1.677499e-003
3.963166e+003,1.725233e-003
3.965095e+003,1.596745e-003
3.967023e+003,1.508493e-003
3.968952e+003,1.639515e-003
3.970880e+003,1.733383e-003
3.972809e+003,1.735046e-003
3.974737e+003,1.613141e-003
3.976666e+003,1.489009e-003
3.978594e+003,1.609649e-003
3.980523e+003,1.746856e-003
3.982452e+003,1.736543e-003
3.984380e+003,1.643173e-003
3.986309e+003,1.477140e-003
3.988237e+003,1.443861e-003
3.990166e+003,1.488111e-003
3.992094e+003,1.502275e-003
3.994023e+003,1.495559e-003
3.995951e+003,1.527079e-003
3.997880e+003,1.537986e-003
3.999809e+003,1.448515e-003
4.001737e+003,0.000000e+000
