3.992094e+002,0.000000e+000
4.011380e+002,0.000000e+000
4.030665e+002,0.000000e+000
4.049951e+002,0.000000e+000
4.069236e+002,0.000000e+000
4.088522e+002,0.000000e+000
4.107807e+002,0.000000e+000
4.127093e+002,0.000000e+000
4.146378e+002,0.000000e+000
4.165664e+002,0.000000e+000
4.184949e+002,0.000000e+000
4.204235e+002,0.000000e+000
4.223520e+002,0.000000e+000
4.242806e+002,0.000000e+000
4.262091e+002,0.000000e+000
4.281377e+002,0.000000e+000
4.300662e+002,0.000000e+000
4.319948e+002,0.000000e+000
4.339233e+002,0.000000e+000
4.358519e+002,0.000000e+000
4.377804e+002,0.000000e+000
4.397090e+002,0.000000e+000
4.416375e+002,0.000000e+000
4.435660e+002,0.000000e+000
4.454946e+002,0.000000e+000
4.474232e+002,0.000000e+000
4.493517e+002,0.000000e+000
4.512802e+002,0.000000e+000
4.532088e+002,0.000000e+000
4.551373e+002,0.000000e+000
4.570659e+002,0.000000e+000
4.589944e+002,0.000000e+000
4.609230e+002,0.000000e+000
4.628515e+002,0.000000e+000
4.647801e+002,0.000000e+000
4.667086e+002,0.000000e+000
4.686372e+002,0.000000e+000
4.705657e+002,0.000000e+000
4.724943e+002,0.000000e+000
4.744228e+002,0.000000e+000
4.763514e+002,0.000000e+000
4.782799e+002,0.000000e+000
4.802085e+002,0.000000e+000
4.821370e+002,0.000000e+000
4.840656e+002,0.000000e+000
4.859941e+002,0.000000e+000
4.879226e+002,0.000000e+000
4.898512e+002,0.000000e+000
4.917798e+002,0.000000e+000
4.937083e+002,0.000000e+000
4.956368e+002,0.000000e+000
4.975654e+002,0.000000e+000
4.994939e+002,0.000000e+000
5.014225e+002,0.000000e+000
5.033510e+002,0.000000e+000
5.052796e+002,0.000000e+000
5.072081e+002,0.000000e+000
5.091367e+002,0.000000e+000
5.110652e+002,0.000000e+000
5.129938e+002,0.000000e+000
5.149223e+002,0.000000e+000
5.168509e+002,0.000000e+000
5.187794e+002,0.000000e+000
5.207079e+002,0.000000e+000
5.226365e+002,0.000000e+000
5.245651e+002,0.000000e+000
5.264936e+002,0.000000e+000
5.284221e+002,0.000000e+000
5.303507e+002,0.000000e+000
5.322792e+002,0.000000e+000
5.342078e+002,0.000000e+000
5.361364e+002,0.000000e+000
5.380649e+002,0.000000e+000
5.399934e+002,0.000000e+000
5.419220e+002,0.000000e+000
5.438505e+002,0.000000e+000
5.457791e+002,0.000000e+000
5.477076e+002,0.000000e+000
5.496362e+002,0.000000e+000
5.515647e+002,0.000000e+000
5.534933e+002,0.000000e+000
5.554218e+002,0.000000e+000
5.573503e+002,0.000000e+000
5.592789e+002,0.000000e+000
5.612075e+002,0.000000e+000
5.631360e+002,0.000000e+000
5.650646e+002,0.000000e+000
5.669931e+002,0.000000e+000
5.689216e+002,0.000000e+000
5.708502e+002,0.000000e+000
5.727787e+002,0.000000e+000
5.747073e+002,0.000000e+000
5.766359e+002,0.000000e+000
5.785644e+002,0.000000e+000
5.804929e+002,0.000000e+000
5.824215e+002,0.000000e+000
5.843500e+002,0.000000e+000
5.862786e+002,0.000000e+000
5.882072e+002,0.000000e+000
5.901357e+002,0.000000e+000
5.920642e+002,0.000000e+000
5.939928e+002,0.000000e+000
5.959213e+002,0.000000e+000
5.978499e+002,0.000000e+000
5.997784e+002,0.000000e+000
6.017070e+002,0.000000e+000
6.036355e+002,0.000000e+000
6.055641e+002,0.000000e+000
6.074926e+002,0.000000e+000
6.094211e+002,0.000000e+000
6.113497e+002,0.000000e+000
6.132783e+002,0.000000e+000
6.152068e+002,0.000000e+000
6.171354e+002,0.000000e+000
6.190639e+002,0.000000e+000
6.209924e+002,0.000000e+000
6.229210e+002,0.000000e+000
6.248495e+002,0.000000e+000
6.267781e+002,0.000000e+000
6.287067e+002,0.000000e+000
6.306352e+002,0.000000e+000
6.325637e+002,0.000000e+000
6.344923e+002,0.000000e+000
6.364208e+002,0.000000e+000
6.383494e+002,0.000000e+000
6.402780e+002,0.000000e+000
6.422065e+002,0.000000e+000
6.441350e+002,0.000000e+000
6.460636e+002,0.000000e+000
6.479921e+002,0.000000e+000
6.499207e+002,0.000000e+000
6.518492e+002,0.000000e+000
6.537778e+002,0.000000e+000
6.557063e+002,0.000000e+000
6.576349e+002,0.000000e+000
6.595634e+002,0.000000e+000
6.614919e+002,0.000000e+000
6.634205e+002,0.000000e+000
6.653491e+002,0.000000e+000
6.672776e+002,0.000000e+000
6.692062e+002,0.000000e+000
6.711347e+002,0.000000e+000
6.730632e+002,0.000000e+000
6.749918e+002,3.898442e-002
6.769203e+002,4.163748e-002
6.788489e+002,4.349042e-002
6.807775e+002,4.394861e-002
6.827060e+002,4.378828e-002
6.846345e+002,4.325521e-002
6.865631e+002,4.285027e-002
6.884916e+002,4.336189e-002
6.904202e+002,4.477717e-002
6.923488e+002,4.658752e-002
6.942773e+002,4.953354e-002
6.962058e+002,5.426580e-002
6.981344e+002,6.039526e-002
7.000629e+002,6.740259e-002
7.019915e+002,7.371023e-002
7.039200e+002,7.941999e-002
7.058486e+002,8.536859e-002
7.077771e+002,9.104396e-002
7.097057e+002,9.704472e-002
7.116342e+002,1.038067e-001
7.135627e+002,1.131128e-001
7.154913e+002,1.308715e-001
7.174199e+002,1.645028e-001
7.193484e+002,2.225865e-001
7.212770e+002,3.160383e-001
7.232055e+002,4.299278e-001
7.251340e+002,4.802637e-001
7.270626e+002,4.276988e-001
7.289911e+002,3.418835e-001
7.309197e+002,2.693813e-001
7.328483e+002,2.116871e-001
7.347768e+002,1.633888e-001
7.367053e+002,1.195821e-001
7.386339e+002,8.149678e-002
7.405624e+002,5.228212e-002
7.424910e+002,3.305591e-002
7.444196e+002,2.156261e-002
7.463481e+002,1.555197e-002
7.482766e+002,1.248407e-002
7.502052e+002,1.055783e-002
7.521337e+002,9.325516e-003
7.540623e+002,9.010457e-003
7.559908e+002,9.089455e-003
7.579194e+002,9.470196e-003
7.598479e+002,1.013811e-002
7.617765e+002,1.083729e-002
7.637050e+002,1.161698e-002
7.656335e+002,1.257557e-002
7.675621e+002,1.352011e-002
7.694907e+002,1.470034e-002
7.714192e+002,1.623551e-002
7.733478e+002,1.788957e-002
7.752763e+002,1.915864e-002
7.772048e+002,2.095024e-002
7.791334e+002,2.318155e-002
7.810620e+002,2.534254e-002
7.829905e+002,2.789932e-002
7.849191e+002,3.152963e-002
7.868476e+002,3.644367e-002
7.887761e+002,4.256793e-002
7.907047e+002,4.899910e-002
7.926332e+002,5.275178e-002
7.945618e+002,5.098885e-002
7.964904e+002,4.471638e-002
7.984189e+002,3.888794e-002
8.003474e+002,3.720203e-002
8.022760e+002,3.783401e-002
8.042045e+002,3.835561e-002
8.061331e+002,3.863265e-002
8.080616e+002,3.869929e-002
8.099902e+002,3.853621e-002
8.119187e+002,3.839014e-002
8.138473e+002,3.819581e-002
8.157758e+002,3.809205e-002
8.177043e+002,3.800048e-002
8.196329e+002,3.790802e-002
8.215615e+002,3.811546e-002
8.234900e+002,3.862345e-002
8.254186e+002,3.931318e-002
8.273471e+002,4.039533e-002
8.292756e+002,4.180610e-002
8.312042e+002,4.321755e-002
8.331328e+002,4.474929e-002
8.350613e+002,4.664683e-002
8.369899e+002,4.867385e-002
8.389184e+002,5.007062e-002
8.408469e+002,5.057169e-002
8.427755e+002,5.060162e-002
8.447040e+002,5.064469e-002
8.466326e+002,5.105835e-002
8.485612e+002,5.136939e-002
8.504896e+002,5.145249e-002
8.524182e+002,5.150882e-002
8.543468e+002,5.140848e-002
8.562753e+002,5.157982e-002
8.582039e+002,5.224239e-002
8.601324e+002,5.394920e-002
8.620609e+002,5.758525e-002
8.639895e+002,6.390343e-002
8.659181e+002,7.351746e-002
8.678466e+002,8.621076e-002
8.697751e+002,9.984936e-002
8.717037e+002,1.099999e-001
8.736322e+002,1.122753e-001
8.755608e+002,1.063807e-001
8.774894e+002,9.585539e-002
8.794178e+002,8.461899e-002
8.813464e+002,7.501525e-002
8.832750e+002,6.773137e-002
8.852035e+002,6.281963e-002
8.871321e+002,5.955645e-002
8.890607e+002,5.751277e-002
8.909891e+002,5.647698e-002
8.929177e+002,5.619877e-002
8.948463e+002,5.621129e-002
8.967748e+002,5.592518e-002
8.987034e+002,5.467064e-002
9.006320e+002,5.213370e-002
9.025604e+002,4.843608e-002
9.044890e+002,4.379890e-002
9.064176e+002,3.874171e-002
9.083461e+002,3.398233e-002
9.102747e+002,3.010545e-002
9.122032e+002,2.720562e-002
9.141317e+002,2.513928e-002
9.160603e+002,2.391183e-002
9.179889e+002,2.326065e-002
9.199174e+002,2.297168e-002
9.218459e+002,2.296557e-002
9.237745e+002,2.320238e-002
9.257030e+002,2.356821e-002
9.276316e+002,2.387542e-002
9.295602e+002,2.408246e-002
9.314886e+002,2.442593e-002
9.334172e+002,2.478606e-002
9.353458e+002,2.495454e-002
9.372743e+002,2.507869e-002
9.392029e+002,2.537422e-002
9.411315e+002,2.561779e-002
9.430599e+002,2.590683e-002
9.449885e+002,2.628082e-002
9.469171e+002,2.668160e-002
9.488456e+002,2.717091e-002
9.507742e+002,2.782297e-002
9.527028e+002,2.869743e-002
9.546312e+002,2.976396e-002
9.565598e+002,3.091518e-002
9.584884e+002,3.220475e-002
9.604169e+002,3.381106e-002
9.623455e+002,3.569653e-002
9.642740e+002,3.760459e-002
9.662025e+002,3.962528e-002
9.681311e+002,4.165152e-002
9.700597e+002,4.340792e-002
9.719882e+002,4.447254e-002
9.739167e+002,4.488136e-002
9.758453e+002,4.472093e-002
9.777738e+002,4.417191e-002
9.797024e+002,4.361976e-002
9.816310e+002,4.312046e-002
9.835594e+002,4.274909e-002
9.854880e+002,4.257619e-002
9.874166e+002,4.247924e-002
9.893451e+002,4.272178e-002
9.912737e+002,4.335208e-002
9.932023e+002,4.419773e-002
9.951307e+002,4.531023e-002
9.970593e+002,4.697772e-002
9.989879e+002,4.928553e-002
1.000916e+003,5.225790e-002
1.002845e+003,5.590626e-002
1.004774e+003,6.081431e-002
1.006702e+003,6.847958e-002
1.008631e+003,8.049449e-002
1.010559e+003,9.959453e-002
1.012488e+003,1.320613e-001
1.014416e+003,1.772070e-001
1.016345e+003,2.086394e-001
1.018273e+003,1.984300e-001
1.020202e+003,1.600236e-001
1.022130e+003,1.238181e-001
1.024059e+003,1.032455e-001
1.025988e+003,9.577107e-002
1.027916e+003,9.487481e-002
1.029845e+003,9.628361e-002
1.031773e+003,9.847036e-002
1.033702e+003,1.011537e-001
1.035630e+003,1.042583e-001
1.037559e+003,1.074544e-001
1.039487e+003,1.103504e-001
1.041416e+003,1.118996e-001
1.043344e+003,1.113018e-001
1.045273e+003,1.083815e-001
1.047202e+003,1.034166e-001
1.049130e+003,9.713551e-002
1.051059e+003,9.064851e-002
1.052987e+003,8.454930e-002
1.054916e+003,7.960107e-002
1.056844e+003,7.650386e-002
1.058773e+003,7.559707e-002
1.060701e+003,7.674845e-002
1.062630e+003,7.980402e-002
1.064558e+003,8.460563e-002
1.066487e+003,9.121921e-002
1.068416e+003,9.973637e-002
1.070344e+003,1.104487e-001
1.072273e+003,1.242433e-001
1.074201e+003,1.418921e-001
1.076130e+003,1.636352e-001
1.078058e+003,1.894193e-001
1.079987e+003,2.185392e-001
1.081915e+003,2.493473e-001
1.083844e+003,2.802545e-001
1.085773e+003,3.109763e-001
1.087701e+003,3.418227e-001
1.089630e+003,3.719363e-001
1.091558e+003,3.978088e-001
1.093487e+003,4.148192e-001
1.095415e+003,4.190257e-001
1.097344e+003,4.087175e-001
1.099272e+003,3.852573e-001
1.101201e+003,3.530668e-001
1.103129e+003,3.177567e-001
1.105058e+003,2.842516e-001
1.106987e+003,2.557988e-001
1.108915e+003,2.356178e-001
1.110844e+003,2.268830e-001
1.112772e+003,2.292233e-001
1.114701e+003,2.368312e-001
1.116629e+003,2.421771e-001
1.118558e+003,2.404132e-001
1.120486e+003,2.305304e-001
1.122415e+003,2.146804e-001
1.124344e+003,1.963869e-001
1.126272e+003,1.788756e-001
1.128201e+003,1.639985e-001
1.130129e+003,1.521805e-001
1.132058e+003,1.427640e-001
1.133986e+003,1.345874e-001
1.135915e+003,1.264262e-001
1.137843e+003,1.175637e-001
1.139772e+003,1.076001e-001
1.141700e+003,9.646694e-002
1.143629e+003,8.482490e-002
1.145557e+003,7.333524e-002
1.147486e+003,6.267978e-002
1.149415e+003,5.335036e-002
1.151343e+003,4.554950e-002
1.153272e+003,3.936313e-002
1.155200e+003,3.483953e-002
1.157129e+003,3.189195e-002
1.159057e+003,3.035208e-002
1.160986e+003,2.995128e-002
1.162914e+003,3.056419e-002
1.164843e+003,3.235041e-002
1.166771e+003,3.553993e-002
1.168700e+003,4.023049e-002
1.170629e+003,4.532575e-002
1.172557e+003,4.895414e-002
1.174486e+003,5.008177e-002
1.176414e+003,4.874532e-002
1.178343e+003,4.558225e-002
1.180271e+003,4.150935e-002
1.182200e+003,3.764777e-002
1.184128e+003,3.482891e-002
1.186057e+003,3.336176e-002
1.187986e+003,3.321294e-002
1.189914e+003,3.412360e-002
1.191843e+003,3.591238e-002
1.193771e+003,3.835018e-002
1.195700e+003,4.109634e-002
1.197628e+003,4.382834e-002
1.199557e+003,4.647182e-002
1.201485e+003,4.929445e-002
1.203414e+003,5.252971e-002
1.205343e+003,5.616645e-002
1.207271e+003,6.025523e-002
1.209200e+003,6.484445e-002
1.211128e+003,7.005475e-002
1.213057e+003,7.628475e-002
1.214985e+003,8.384673e-002
1.216914e+003,9.296010e-002
1.218842e+003,1.039704e-001
1.220771e+003,1.172267e-001
1.222699e+003,1.330134e-001
1.224628e+003,1.518930e-001
1.226557e+003,1.745177e-001
1.228485e+003,2.018484e-001
1.230414e+003,2.354424e-001
1.232342e+003,2.768454e-001
1.234271e+003,3.256442e-001
1.236199e+003,3.770366e-001
1.238128e+003,4.223003e-001
1.240056e+003,4.533687e-001
1.241985e+003,4.669466e-001
1.243913e+003,4.654337e-001
1.245842e+003,4.545946e-001
1.247771e+003,4.398745e-001
1.249699e+003,4.250113e-001
1.251628e+003,4.128844e-001
1.253556e+003,4.052292e-001
1.255485e+003,4.022549e-001
1.257413e+003,4.015892e-001
1.259342e+003,3.981296e-001
1.261270e+003,3.866732e-001
1.263199e+003,3.662274e-001
1.265127e+003,3.395633e-001
1.267056e+003,3.105548e-001
1.268985e+003,2.825735e-001
1.270913e+003,2.586841e-001
1.272842e+003,2.411084e-001
1.274770e+003,2.299601e-001
1.276699e+003,2.234231e-001
1.278627e+003,2.191357e-001
1.280556e+003,2.146829e-001
1.282484e+003,2.085907e-001
1.284413e+003,2.004569e-001
1.286342e+003,1.903867e-001
1.288270e+003,1.783254e-001
1.290199e+003,1.646573e-001
1.292127e+003,1.497899e-001
1.294056e+003,1.342256e-001
1.295984e+003,1.186497e-001
1.297913e+003,1.037249e-001
1.299841e+003,9.034166e-002
1.301770e+003,7.977232e-002
1.303698e+003,7.225730e-002
1.305627e+003,6.631421e-002
1.307556e+003,6.052348e-002
1.309484e+003,5.475415e-002
1.311413e+003,4.928736e-002
1.313341e+003,4.439469e-002
1.315270e+003,4.014962e-002
1.317198e+003,3.627654e-002
1.319127e+003,3.253664e-002
1.321055e+003,2.883235e-002
1.322984e+003,2.529326e-002
1.324912e+003,2.222565e-002
1.326841e+003,1.979742e-002
1.328770e+003,1.831194e-002
1.330698e+003,1.812348e-002
1.332627e+003,1.965772e-002
1.334555e+003,2.316869e-002
1.336484e+003,2.775921e-002
1.338412e+003,3.141869e-002
1.340341e+003,3.231396e-002
1.342269e+003,3.017314e-002
1.344198e+003,2.619470e-002
1.346126e+003,2.177441e-002
1.348055e+003,1.795531e-002
1.349984e+003,1.507042e-002
1.351912e+003,1.315937e-002
1.353841e+003,1.207772e-002
1.355769e+003,1.176215e-002
1.357698e+003,1.227563e-002
1.359626e+003,1.383012e-002
1.361555e+003,1.700336e-002
1.363483e+003,2.229530e-002
1.365412e+003,2.912315e-002
1.367341e+003,3.553989e-002
1.369269e+003,3.945964e-002
1.371198e+003,4.018371e-002
1.373126e+003,3.836209e-002
1.375055e+003,3.506804e-002
1.376983e+003,3.120111e-002
1.378912e+003,2.749495e-002
1.380840e+003,2.449881e-002
1.382769e+003,2.246635e-002
1.384698e+003,2.147814e-002
1.386626e+003,2.147331e-002
1.388555e+003,2.238411e-002
1.390483e+003,2.410831e-002
1.392412e+003,2.652786e-002
1.394340e+003,2.950642e-002
1.396269e+003,3.303453e-002
1.398197e+003,3.753223e-002
1.400126e+003,4.344256e-002
1.402054e+003,5.160825e-002
1.403983e+003,6.355835e-002
1.405911e+003,7.914545e-002
1.407840e+003,9.199639e-002
1.409769e+003,9.150455e-002
1.411697e+003,7.482217e-002
1.413626e+003,5.206512e-002
1.415554e+003,3.357094e-002
1.417483e+003,2.188695e-002
1.419411e+003,1.521689e-002
1.421340e+003,1.161470e-002
1.423268e+003,9.909742e-003
1.425197e+003,9.494578e-003
1.427125e+003,1.016077e-002
1.429054e+003,1.190159e-002
1.430983e+003,1.476824e-002
1.432911e+003,1.844882e-002
1.434840e+003,2.230308e-002
1.436768e+003,2.577908e-002
1.438697e+003,2.832737e-002
1.440625e+003,2.983603e-002
1.442554e+003,3.061208e-002
1.444482e+003,3.087010e-002
1.446411e+003,3.104773e-002
1.448340e+003,3.160481e-002
1.450268e+003,3.248347e-002
1.452197e+003,3.302788e-002
1.454125e+003,3.263293e-002
1.456054e+003,3.106552e-002
1.457982e+003,2.828670e-002
1.459911e+003,2.481300e-002
1.461839e+003,2.108430e-002
1.463768e+003,1.743004e-002
1.465697e+003,1.421548e-002
1.467625e+003,1.169431e-002
1.469554e+003,9.683561e-003
1.471482e+003,8.256732e-003
1.473411e+003,7.297037e-003
1.475339e+003,6.351562e-003
1.477268e+003,5.364394e-003
1.479196e+003,4.388401e-003
1.481125e+003,3.431897e-003
1.483053e+003,2.510519e-003
1.484982e+003,1.728559e-003
1.486911e+003,1.121610e-003
1.488839e+003,7.264083e-004
1.490768e+003,6.353790e-004
1.492696e+003,8.026845e-004
1.494625e+003,1.503439e-003
1.496553e+003,3.102061e-003
1.498482e+003,5.926181e-003
1.500410e+003,1.095335e-002
1.502339e+003,1.811599e-002
1.504267e+003,2.290207e-002
1.506196e+003,2.052665e-002
1.508125e+003,1.367854e-002
1.510053e+003,7.999853e-003
1.511982e+003,4.827791e-003
1.513910e+003,3.346209e-003
1.515839e+003,2.707888e-003
1.517767e+003,2.549446e-003
1.519696e+003,2.651245e-003
1.521624e+003,2.854214e-003
1.523553e+003,3.030685e-003
1.525481e+003,3.131262e-003
1.527410e+003,3.143710e-003
1.529339e+003,2.982373e-003
1.531267e+003,2.731027e-003
1.533196e+003,2.455035e-003
1.535124e+003,2.213318e-003
1.537053e+003,2.020801e-003
1.538981e+003,1.895687e-003
1.540910e+003,1.907668e-003
1.542838e+003,2.040209e-003
1.544767e+003,2.184512e-003
1.546696e+003,2.363842e-003
1.548624e+003,2.682216e-003
1.550553e+003,3.038559e-003
1.552481e+003,3.334522e-003
1.554410e+003,3.629351e-003
1.556338e+003,3.897967e-003
1.558267e+003,4.194617e-003
1.560195e+003,4.639402e-003
1.562124e+003,5.188113e-003
1.564052e+003,5.753533e-003
1.565981e+003,6.535514e-003
1.567910e+003,7.636989e-003
1.569838e+003,9.230907e-003
1.571767e+003,1.144168e-002
1.573695e+003,1.445678e-002
1.575624e+003,1.803937e-002
1.577552e+003,2.060551e-002
1.579481e+003,2.016202e-002
1.581409e+003,1.681836e-002
1.583338e+003,1.256841e-002
1.585266e+003,9.324433e-003
1.587195e+003,7.615441e-003
1.589124e+003,6.862449e-003
1.591052e+003,6.456845e-003
1.592981e+003,6.335356e-003
1.594909e+003,6.380175e-003
1.596838e+003,6.649859e-003
1.598766e+003,7.156820e-003
1.600695e+003,7.830933e-003
1.602623e+003,8.724970e-003
1.604552e+003,9.798501e-003
1.606480e+003,1.091713e-002
1.608409e+003,1.214630e-002
1.610338e+003,1.340682e-002
1.612266e+003,1.445651e-002
1.614195e+003,1.479402e-002
1.616123e+003,1.400416e-002
1.618052e+003,1.266638e-002
1.619980e+003,1.168706e-002
1.621909e+003,1.129471e-002
1.623837e+003,1.134311e-002
1.625766e+003,1.158074e-002
1.627695e+003,1.190775e-002
1.629623e+003,1.230293e-002
1.631552e+003,1.269241e-002
1.633480e+003,1.298557e-002
1.635409e+003,1.333636e-002
1.637337e+003,1.374526e-002
1.639266e+003,1.414037e-002
1.641194e+003,1.454877e-002
1.643123e+003,1.507776e-002
1.645052e+003,1.571479e-002
1.646980e+003,1.635794e-002
1.648909e+003,1.703099e-002
1.650837e+003,1.770768e-002
1.652766e+003,1.842566e-002
1.654694e+003,1.938528e-002
1.656623e+003,2.055669e-002
1.658551e+003,2.190747e-002
1.660480e+003,2.330480e-002
1.662408e+003,2.483654e-002
1.664337e+003,2.663735e-002
1.666266e+003,2.854783e-002
1.668194e+003,3.046921e-002
1.670123e+003,3.249721e-002
1.672051e+003,3.459472e-002
1.673980e+003,3.688034e-002
1.675908e+003,3.940700e-002
1.677837e+003,4.211280e-002
1.679765e+003,4.487592e-002
1.681694e+003,4.767340e-002
1.683622e+003,5.044692e-002
1.685551e+003,5.323610e-002
1.687479e+003,5.611268e-002
1.689408e+003,5.944048e-002
1.691337e+003,6.364827e-002
1.693265e+003,6.912880e-002
1.695194e+003,7.631434e-002
1.697122e+003,8.573855e-002
1.699051e+003,9.769372e-002
1.700979e+003,1.139504e-001
1.702908e+003,1.348863e-001
1.704836e+003,1.624457e-001
1.706765e+003,1.986568e-001
1.708694e+003,2.435157e-001
1.710622e+003,2.941226e-001
1.712551e+003,3.430756e-001
1.714479e+003,3.796113e-001
1.716408e+003,3.970539e-001
1.718336e+003,3.939507e-001
1.720265e+003,3.760075e-001
1.722193e+003,3.486834e-001
1.724122e+003,3.169058e-001
1.726051e+003,2.838045e-001
1.727979e+003,2.514190e-001
1.729908e+003,2.202612e-001
1.731836e+003,1.912231e-001
1.733765e+003,1.633020e-001
1.735693e+003,1.369362e-001
1.737622e+003,1.130760e-001
1.739550e+003,9.101029e-002
1.741479e+003,7.132922e-002
1.743407e+003,5.494475e-002
1.745336e+003,4.202121e-002
1.747265e+003,3.236993e-002
1.749193e+003,2.528469e-002
1.751122e+003,2.013304e-002
1.753050e+003,1.640171e-002
1.754979e+003,1.357259e-002
1.756907e+003,1.134777e-002
1.758836e+003,9.608046e-003
1.760764e+003,8.224450e-003
1.762693e+003,7.147354e-003
1.764621e+003,6.241967e-003
1.766550e+003,5.354465e-003
1.768479e+003,4.625036e-003
1.770407e+003,4.106035e-003
1.772336e+003,3.722046e-003
1.774264e+003,3.338997e-003
1.776193e+003,2.940939e-003
1.778121e+003,2.586176e-003
1.780050e+003,2.301081e-003
1.781978e+003,2.021600e-003
1.783907e+003,1.779692e-003
1.785835e+003,1.558602e-003
1.787764e+003,1.396557e-003
1.789693e+003,1.182638e-003
1.791621e+003,9.781241e-004
1.793550e+003,8.575598e-004
1.795478e+003,7.480484e-004
1.797407e+003,6.493491e-004
1.799335e+003,5.631466e-004
1.801264e+003,4.773925e-004
1.803192e+003,4.063471e-004
1.805121e+003,3.393588e-004
1.807049e+003,3.312679e-004
1.808978e+003,3.310026e-004
1.810907e+003,3.323622e-004
1.812835e+003,3.303394e-004
1.814764e+003,3.368055e-004
1.816692e+003,2.992040e-004
1.818621e+003,3.069960e-004
1.820549e+003,3.232434e-004
1.822478e+003,2.681703e-004
1.824406e+003,1.813805e-004
1.826335e+003,6.183252e-005
1.828264e+003,-5.586040e-005
1.830192e+003,-1.357621e-004
1.832121e+003,-2.719784e-004
1.834049e+003,-4.561817e-004
1.835978e+003,-6.808345e-004
1.837906e+003,-8.653936e-004
1.839835e+003,-1.008290e-003
1.841763e+003,-1.205333e-003
1.843692e+003,-1.399016e-003
1.845620e+003,-1.528167e-003
1.847549e+003,-1.682728e-003
1.849478e+003,-1.869534e-003
1.851406e+003,-2.030603e-003
1.853335e+003,-2.133619e-003
1.855263e+003,-2.280648e-003
1.857192e+003,-2.439323e-003
1.859120e+003,-2.521621e-003
1.861049e+003,-2.468976e-003
1.862977e+003,-2.483933e-003
1.864906e+003,-2.568956e-003
1.866834e+003,-2.643951e-003
1.868763e+003,-2.639077e-003
1.870692e+003,-2.605088e-003
1.872620e+003,-2.589806e-003
1.874549e+003,-2.584668e-003
1.876477e+003,-2.594647e-003
1.878406e+003,-2.583120e-003
1.880334e+003,-2.567639e-003
1.882263e+003,-2.527023e-003
1.884191e+003,-2.429274e-003
1.886120e+003,-2.352397e-003
1.888048e+003,-2.344059e-003
1.889977e+003,-2.378233e-003
1.891906e+003,-2.305169e-003
1.893834e+003,-2.168633e-003
1.895763e+003,-2.034693e-003
1.897691e+003,-1.936766e-003
1.899620e+003,-1.881345e-003
1.901548e+003,-1.805922e-003
1.903477e+003,-1.694808e-003
1.905405e+003,-1.588156e-003
1.907334e+003,-1.451394e-003
1.909263e+003,-1.275839e-003
1.911191e+003,-1.169546e-003
1.913120e+003,-1.127676e-003
1.915048e+003,-1.111813e-003
1.916977e+003,-1.027794e-003
1.918905e+003,-8.176406e-004
1.920834e+003,-6.914206e-004
1.922762e+003,-6.619110e-004
1.924691e+003,-5.433564e-004
1.926620e+003,-3.766700e-004
1.928548e+003,-2.275381e-004
1.930477e+003,-1.911792e-005
1.932405e+003,1.450851e-004
1.934334e+003,2.605117e-004
1.936262e+003,4.442896e-004
1.938191e+003,7.031763e-004
1.940119e+003,9.634793e-004
1.942048e+003,1.128021e-003
1.943976e+003,1.229321e-003
1.945905e+003,1.422585e-003
1.947833e+003,1.582479e-003
1.949762e+003,1.566583e-003
1.951691e+003,1.505666e-003
1.953619e+003,1.493431e-003
1.955548e+003,1.392036e-003
1.957476e+003,1.227992e-003
1.959405e+003,1.143236e-003
1.961333e+003,1.037937e-003
1.963262e+003,8.742595e-004
1.965190e+003,7.264415e-004
1.967119e+003,5.979507e-004
1.969047e+003,4.558985e-004
1.970976e+003,2.965183e-004
1.972905e+003,2.591192e-004
1.974833e+003,1.888057e-004
1.976762e+003,8.141797e-005
1.978690e+003,7.962839e-005
1.980619e+003,8.019178e-005
1.982547e+003,3.449390e-005
1.984476e+003,-2.614197e-005
1.986404e+003,-7.295503e-005
1.988333e+003,-1.240693e-004
1.990262e+003,-1.614984e-004
1.992190e+003,-2.917466e-004
1.994119e+003,-4.576381e-004
1.996047e+003,-5.033456e-004
1.997976e+003,-5.614577e-004
1.999904e+003,-6.378917e-004
2.001833e+003,-7.075640e-004
2.003761e+003,-7.829801e-004
2.005690e+003,-8.425429e-004
2.007619e+003,-9.261353e-004
2.009547e+003,-1.071094e-003
2.011476e+003,-1.134749e-003
2.013404e+003,-1.140862e-003
2.015333e+003,-1.229585e-003
2.017261e+003,-1.312442e-003
2.019190e+003,-1.279572e-003
2.021118e+003,-1.298105e-003
2.023047e+003,-1.385540e-003
2.024975e+003,-1.478836e-003
2.026904e+003,-1.506936e-003
2.028833e+003,-1.537247e-003
2.030761e+003,-1.617702e-003
2.032690e+003,-1.686095e-003
2.034618e+003,-1.701013e-003
2.036547e+003,-1.641238e-003
2.038475e+003,-1.530412e-003
2.040404e+003,-1.442973e-003
2.042332e+003,-1.384814e-003
2.044261e+003,-1.338968e-003
2.046189e+003,-1.337316e-003
2.048118e+003,-1.311881e-003
2.050046e+003,-1.263054e-003
2.051975e+003,-1.203482e-003
2.053904e+003,-1.139045e-003
2.055832e+003,-1.132105e-003
2.057761e+003,-1.132964e-003
2.059689e+003,-1.065905e-003
2.061618e+003,-9.872984e-004
2.063546e+003,-9.691818e-004
2.065475e+003,-9.132735e-004
2.067403e+003,-8.572257e-004
2.069332e+003,-7.979625e-004
2.071260e+003,-7.221851e-004
2.073189e+003,-6.965151e-004
2.075118e+003,-6.695533e-004
2.077046e+003,-6.093381e-004
2.078975e+003,-5.759514e-004
2.080903e+003,-5.006648e-004
2.082832e+003,-3.665066e-004
2.084760e+003,-3.264464e-004
2.086689e+003,-3.207184e-004
2.088617e+003,-2.780381e-004
2.090546e+003,-2.402547e-004
2.092475e+003,-1.801455e-004
2.094403e+003,-1.158543e-004
2.096332e+003,-1.117467e-004
2.098260e+003,-1.125749e-004
2.100189e+003,-3.111175e-005
2.102117e+003,-2.915786e-006
2.104046e+003,-1.139796e-005
2.105974e+003,-2.243117e-005
2.107903e+003,-9.178032e-006
2.109832e+003,5.059862e-005
2.111760e+003,1.312306e-004
2.113688e+003,1.485985e-004
2.115617e+003,7.621498e-005
2.117546e+003,4.977018e-005
2.119474e+003,7.256961e-005
2.121403e+003,6.703533e-005
2.123331e+003,8.125226e-005
2.125260e+003,6.368829e-005
2.127188e+003,-4.638763e-007
2.129117e+003,-9.266602e-005
2.131045e+003,-1.382132e-004
2.132974e+003,-1.156887e-004
2.134903e+003,-7.712920e-005
2.136831e+003,-9.110905e-005
2.138760e+003,-1.247649e-004
2.140688e+003,-1.531517e-004
2.142617e+003,-1.712692e-004
2.144545e+003,-1.789863e-004
2.146474e+003,-1.625252e-004
2.148402e+003,-2.733692e-004
2.150331e+003,-3.976914e-004
2.152260e+003,-4.329123e-004
2.154188e+003,-4.980834e-004
2.156117e+003,-5.704253e-004
2.158045e+003,-6.099668e-004
2.159974e+003,-6.930747e-004
2.161902e+003,-7.768282e-004
2.163831e+003,-8.591767e-004
2.165759e+003,-8.781576e-004
2.167688e+003,-8.673115e-004
2.169616e+003,-9.467665e-004
2.171545e+003,-1.085836e-003
2.173474e+003,-1.186630e-003
2.175402e+003,-1.191587e-003
2.177331e+003,-1.246336e-003
2.179259e+003,-1.292588e-003
2.181188e+003,-1.281587e-003
2.183116e+003,-1.335929e-003
2.185045e+003,-1.325358e-003
2.186973e+003,-1.261963e-003
2.188902e+003,-1.270883e-003
2.190831e+003,-1.241050e-003
2.192759e+003,-1.219474e-003
2.194688e+003,-1.260278e-003
2.196616e+003,-1.224034e-003
2.198545e+003,-1.143209e-003
2.200473e+003,-1.085042e-003
2.202402e+003,-1.026240e-003
2.204330e+003,-9.674627e-004
2.206259e+003,-9.033210e-004
2.208188e+003,-8.036841e-004
2.210116e+003,-7.343250e-004
2.212044e+003,-7.460014e-004
2.213973e+003,-6.740195e-004
2.215902e+003,-5.834959e-004
2.217830e+003,-5.947462e-004
2.219759e+003,-5.740322e-004
2.221687e+003,-5.055630e-004
2.223616e+003,-4.725655e-004
2.225544e+003,-5.330645e-004
2.227473e+003,-6.053013e-004
2.229401e+003,-6.191650e-004
2.231330e+003,-5.909410e-004
2.233259e+003,-5.223090e-004
2.235187e+003,-4.627353e-004
2.237116e+003,-4.768021e-004
2.239044e+003,-4.316214e-004
2.240973e+003,-3.770342e-004
2.242901e+003,-3.061169e-004
2.244830e+003,-2.694949e-004
2.246758e+003,-2.598588e-004
2.248687e+003,-1.906777e-004
2.250615e+003,-1.297666e-004
2.252544e+003,-8.050825e-005
2.254473e+003,-3.700914e-005
2.256401e+003,-4.323777e-005
2.258330e+003,2.773408e-005
2.260258e+003,1.164818e-004
2.262187e+003,8.837748e-005
2.264115e+003,8.479829e-005
2.266044e+003,1.370640e-004
2.267972e+003,1.595366e-004
2.269901e+003,2.001094e-004
2.271830e+003,3.259293e-004
2.273758e+003,3.806449e-004
2.275687e+003,3.893006e-004
2.277615e+003,4.947410e-004
2.279544e+003,5.905849e-004
2.281472e+003,5.940355e-004
2.283401e+003,6.326249e-004
2.285329e+003,7.877136e-004
2.287258e+003,8.542399e-004
2.289187e+003,8.536755e-004
2.291115e+003,8.614774e-004
2.293043e+003,8.073982e-004
2.294972e+003,7.766933e-004
2.296901e+003,7.930580e-004
2.298829e+003,8.119793e-004
2.300758e+003,7.767929e-004
2.302686e+003,6.977667e-004
2.304615e+003,7.004549e-004
2.306543e+003,7.443642e-004
2.308472e+003,7.207661e-004
2.310400e+003,6.863172e-004
2.312329e+003,7.315195e-004
2.314258e+003,8.348188e-004
2.316186e+003,9.037429e-004
2.318115e+003,8.853155e-004
2.320043e+003,8.979656e-004
2.321972e+003,9.598929e-004
2.323900e+003,9.778916e-004
2.325829e+003,9.804819e-004
2.327757e+003,9.619185e-004
2.329686e+003,9.589962e-004
2.331615e+003,9.781573e-004
2.333543e+003,9.383418e-004
2.335472e+003,8.335572e-004
2.337400e+003,7.662707e-004
2.339329e+003,8.145686e-004
2.341257e+003,8.697775e-004
2.343186e+003,9.124753e-004
2.345114e+003,9.440864e-004
2.347043e+003,9.960572e-004
2.348971e+003,1.054278e-003
2.350900e+003,1.060722e-003
2.352829e+003,1.021430e-003
2.354757e+003,1.084206e-003
2.356686e+003,1.239688e-003
2.358614e+003,1.316753e-003
2.360543e+003,1.396889e-003
2.362471e+003,1.480431e-003
2.364400e+003,1.519897e-003
2.366328e+003,1.586103e-003
2.368257e+003,1.635890e-003
2.370186e+003,1.637619e-003
2.372114e+003,1.651156e-003
2.374042e+003,1.665624e-003
2.375971e+003,1.663795e-003
2.377900e+003,1.695827e-003
2.379828e+003,1.789407e-003
2.381757e+003,1.855388e-003
2.383685e+003,1.849399e-003
2.385614e+003,1.827471e-003
2.387542e+003,1.771874e-003
2.389471e+003,1.734181e-003
2.391399e+003,1.655779e-003
2.393328e+003,1.638717e-003
2.395257e+003,1.674605e-003
2.397185e+003,1.672177e-003
2.399114e+003,1.665724e-003
2.401042e+003,1.624282e-003
2.402971e+003,1.522524e-003
2.404899e+003,1.421787e-003
2.406828e+003,1.397022e-003
2.408756e+003,1.416103e-003
2.410685e+003,1.380701e-003
2.412614e+003,1.293888e-003
2.414542e+003,1.182140e-003
2.416471e+003,1.092377e-003
2.418399e+003,1.082512e-003
2.420328e+003,1.116461e-003
2.422256e+003,1.127955e-003
2.424185e+003,1.000873e-003
2.426113e+003,8.801693e-004
2.428042e+003,8.181870e-004
2.429970e+003,8.134399e-004
2.431899e+003,7.751000e-004
2.433828e+003,6.799786e-004
2.435756e+003,6.068762e-004
2.437685e+003,5.715405e-004
2.439613e+003,4.782217e-004
2.441542e+003,4.232284e-004
2.443470e+003,4.157661e-004
2.445399e+003,3.563702e-004
2.447327e+003,3.061007e-004
2.449256e+003,2.182093e-004
2.451185e+003,1.419031e-004
2.453113e+003,1.058430e-004
2.455042e+003,7.906502e-005
2.456970e+003,9.301721e-005
2.458899e+003,5.556934e-005
2.460827e+003,5.749136e-005
2.462756e+003,5.556934e-005
2.464684e+003,-6.016725e-005
2.466613e+003,-1.548740e-004
2.468542e+003,-1.402338e-004
2.470470e+003,-1.300979e-004
2.472398e+003,-1.557021e-004
2.474327e+003,-1.403331e-004
2.476256e+003,-6.334767e-005
2.478184e+003,4.042541e-005
2.480113e+003,6.431793e-005
2.482041e+003,4.075506e-006
2.483970e+003,-4.824048e-005
2.485898e+003,-3.479060e-006
2.487827e+003,6.014245e-005
2.489755e+003,1.163823e-004
2.491684e+003,1.954354e-004
2.493613e+003,2.859746e-004
2.495541e+003,3.126991e-004
2.497470e+003,3.256972e-004
2.499398e+003,3.869128e-004
2.501327e+003,4.422000e-004
2.503255e+003,4.877086e-004
2.505184e+003,5.393925e-004
2.507112e+003,5.737634e-004
2.509041e+003,6.220067e-004
2.510969e+003,7.001230e-004
2.512898e+003,7.080881e-004
2.514827e+003,7.756311e-004
2.516755e+003,9.360506e-004
2.518684e+003,9.882528e-004
2.520612e+003,9.712499e-004
2.522541e+003,9.023151e-004
2.524469e+003,8.969030e-004
2.526398e+003,1.007249e-003
2.528326e+003,1.018176e-003
2.530255e+003,9.674310e-004
2.532184e+003,9.954262e-004
2.534112e+003,9.918394e-004
2.536041e+003,9.567050e-004
2.537969e+003,9.814450e-004
2.539898e+003,9.737738e-004
2.541826e+003,9.507941e-004
2.543755e+003,9.553767e-004
2.545683e+003,1.015685e-003
2.547612e+003,1.107259e-003
2.549541e+003,1.155462e-003
2.551469e+003,1.138519e-003
2.553397e+003,1.098423e-003
2.555326e+003,1.101446e-003
2.557255e+003,1.128918e-003
2.559183e+003,1.144399e-003
2.561112e+003,1.159880e-003
2.563040e+003,1.172538e-003
2.564969e+003,1.169050e-003
2.566897e+003,1.203371e-003
2.568826e+003,1.255339e-003
2.570754e+003,1.250289e-003
2.572683e+003,1.238559e-003
2.574612e+003,1.269961e-003
2.576540e+003,1.298640e-003
2.578469e+003,1.334999e-003
2.580397e+003,1.327920e-003
2.582326e+003,1.372458e-003
2.584254e+003,1.450111e-003
2.586183e+003,1.421986e-003
2.588111e+003,1.435849e-003
2.590040e+003,1.544603e-003
2.591969e+003,1.568711e-003
2.593897e+003,1.548294e-003
2.595826e+003,1.567414e-003
2.597754e+003,1.611046e-003
2.599683e+003,1.607820e-003
2.601611e+003,1.578854e-003
2.603540e+003,1.557172e-003
2.605468e+003,1.621123e-003
2.607397e+003,1.680492e-003
2.609325e+003,1.694928e-003
2.611254e+003,1.709631e-003
2.613183e+003,1.761494e-003
2.615111e+003,1.822546e-003
2.617040e+003,1.825275e-003
2.618968e+003,1.852094e-003
2.620897e+003,1.922211e-003
2.622825e+003,2.035748e-003
2.624754e+003,2.050995e-003
2.626682e+003,1.971969e-003
2.628611e+003,1.921113e-003
2.630540e+003,1.947106e-003
2.632468e+003,2.040475e-003
2.634396e+003,2.074532e-003
2.636325e+003,2.005522e-003
2.638254e+003,1.940949e-003
2.640182e+003,1.954895e-003
2.642111e+003,1.933760e-003
2.644039e+003,1.983519e-003
2.645968e+003,2.071170e-003
2.647896e+003,2.029057e-003
2.649825e+003,1.972535e-003
2.651753e+003,2.026127e-003
2.653682e+003,2.039044e-003
2.655611e+003,1.968940e-003
2.657539e+003,1.941049e-003
2.659468e+003,1.927869e-003
2.661396e+003,1.904773e-003
2.663325e+003,1.909332e-003
2.665253e+003,1.869165e-003
2.667182e+003,1.902776e-003
2.669110e+003,1.918717e-003
2.671039e+003,1.869365e-003
2.672968e+003,1.858184e-003
2.674896e+003,1.871794e-003
2.676825e+003,1.873225e-003
2.678753e+003,1.895621e-003
2.680682e+003,1.813729e-003
2.682610e+003,1.763390e-003
2.684539e+003,1.827571e-003
2.686467e+003,1.867401e-003
2.688396e+003,1.875454e-003
2.690324e+003,1.903408e-003
2.692253e+003,1.865371e-003
2.694182e+003,1.840780e-003
2.696110e+003,1.891328e-003
2.698039e+003,2.016707e-003
2.699967e+003,2.077429e-003
2.701896e+003,2.039443e-003
2.703824e+003,2.003258e-003
2.705753e+003,2.116816e-003
2.707681e+003,2.177452e-003
2.709610e+003,2.136228e-003
2.711539e+003,2.173123e-003
2.713467e+003,2.161435e-003
2.715396e+003,2.110090e-003
2.717324e+003,2.111555e-003
2.719253e+003,2.131899e-003
2.721181e+003,2.125506e-003
2.723110e+003,2.104830e-003
2.725038e+003,2.122410e-003
2.726967e+003,2.166363e-003
2.728896e+003,2.175854e-003
2.730824e+003,2.158338e-003
2.732752e+003,2.139757e-003
2.734681e+003,2.142954e-003
2.736610e+003,2.174588e-003
2.738538e+003,2.194569e-003
2.740467e+003,2.152211e-003
2.742395e+003,2.092344e-003
2.744324e+003,2.159570e-003
2.746252e+003,2.248921e-003
2.748181e+003,2.214351e-003
2.750109e+003,2.222077e-003
2.752038e+003,2.341055e-003
2.753967e+003,2.397825e-003
2.755895e+003,2.358545e-003
2.757824e+003,2.373937e-003
2.759752e+003,2.464265e-003
2.761681e+003,2.525516e-003
2.763609e+003,2.499222e-003
2.765538e+003,2.444038e-003
2.767466e+003,2.455468e-003
2.769395e+003,2.520984e-003
2.771323e+003,2.542713e-003
2.773252e+003,2.579043e-003
2.775181e+003,2.568010e-003
2.777109e+003,2.525549e-003
2.779038e+003,2.541780e-003
2.780966e+003,2.568477e-003
2.782895e+003,2.615576e-003
2.784823e+003,2.670781e-003
2.786752e+003,2.689217e-003
2.788680e+003,2.754601e-003
2.790609e+003,2.769407e-003
2.792538e+003,2.738029e-003
2.794466e+003,2.794450e-003
2.796395e+003,2.854047e-003
2.798323e+003,2.824331e-003
2.800252e+003,2.850279e-003
2.802180e+003,2.895840e-003
2.804109e+003,2.866388e-003
2.806037e+003,2.810591e-003
2.807966e+003,2.713289e-003
2.809895e+003,2.575876e-003
2.811823e+003,2.534481e-003
2.813751e+003,2.587309e-003
2.815680e+003,2.522183e-003
2.817609e+003,2.478027e-003
2.819537e+003,2.598475e-003
2.821466e+003,2.726293e-003
2.823394e+003,2.891571e-003
2.825323e+003,3.083039e-003
2.827251e+003,3.281971e-003
2.829180e+003,3.404178e-003
2.831108e+003,3.491414e-003
2.833037e+003,3.660425e-003
2.834966e+003,3.775954e-003
2.836894e+003,3.871556e-003
2.838823e+003,4.079946e-003
2.840751e+003,4.385557e-003
2.842680e+003,4.605680e-003
2.844608e+003,4.843940e-003
2.846537e+003,5.233216e-003
2.848465e+003,5.850074e-003
2.850394e+003,6.493639e-003
2.852323e+003,6.993783e-003
2.854251e+003,7.315806e-003
2.856180e+003,7.422571e-003
2.858108e+003,7.350178e-003
2.860037e+003,7.252124e-003
2.861965e+003,7.079386e-003
2.863894e+003,6.839492e-003
2.865822e+003,6.672638e-003
2.867751e+003,6.592565e-003
2.869679e+003,6.684179e-003
2.871608e+003,6.806742e-003
2.873537e+003,6.790688e-003
2.875465e+003,6.807954e-003
2.877394e+003,6.880997e-003
2.879322e+003,6.939036e-003
2.881251e+003,7.016209e-003
2.883179e+003,7.176761e-003
2.885108e+003,7.308763e-003
2.887036e+003,7.440705e-003
2.888965e+003,7.539207e-003
2.890894e+003,7.494908e-003
2.892822e+003,7.466862e-003
2.894750e+003,7.526868e-003
2.896679e+003,7.513382e-003
2.898608e+003,7.445558e-003
2.900536e+003,7.391732e-003
2.902465e+003,7.397866e-003
2.904393e+003,7.439289e-003
2.906322e+003,7.548647e-003
2.908250e+003,7.645723e-003
2.910179e+003,7.608259e-003
2.912107e+003,7.521035e-003
2.914036e+003,7.567393e-003
2.915965e+003,7.858666e-003
2.917893e+003,8.455210e-003
2.919822e+003,9.038164e-003
2.921750e+003,9.435791e-003
2.923679e+003,9.720153e-003
2.925607e+003,9.992735e-003
2.927536e+003,1.023299e-002
2.929464e+003,1.035045e-002
2.931393e+003,1.041706e-002
2.933322e+003,1.044622e-002
2.935250e+003,1.049285e-002
2.937179e+003,1.068577e-002
2.939107e+003,1.099345e-002
2.941036e+003,1.144920e-002
2.942964e+003,1.200311e-002
2.944893e+003,1.263189e-002
2.946821e+003,1.334996e-002
2.948750e+003,1.408797e-002
2.950678e+003,1.476214e-002
2.952607e+003,1.543739e-002
2.954536e+003,1.605919e-002
2.956464e+003,1.649180e-002
2.958393e+003,1.669184e-002
2.960321e+003,1.654838e-002
2.962250e+003,1.620493e-002
2.964178e+003,1.578099e-002
2.966107e+003,1.518577e-002
2.968035e+003,1.451930e-002
2.969964e+003,1.389959e-002
2.971893e+003,1.325399e-002
2.973821e+003,1.257584e-002
2.975750e+003,1.195662e-002
2.977678e+003,1.145665e-002
2.979607e+003,1.096555e-002
2.981535e+003,1.044900e-002
2.983464e+003,9.970866e-003
2.985392e+003,9.636332e-003
2.987321e+003,9.329512e-003
2.989250e+003,8.995946e-003
2.991178e+003,8.723821e-003
2.993106e+003,8.445346e-003
2.995035e+003,8.191663e-003
2.996964e+003,8.030768e-003
2.998892e+003,7.809848e-003
3.000821e+003,7.545511e-003
3.002749e+003,7.299295e-003
3.004678e+003,7.029140e-003
3.006606e+003,6.796207e-003
3.008535e+003,6.611438e-003
3.010463e+003,6.517183e-003
3.012392e+003,6.392448e-003
3.014321e+003,6.191180e-003
3.016249e+003,6.057266e-003
3.018178e+003,5.810111e-003
3.020106e+003,5.492122e-003
3.022035e+003,5.255283e-003
3.023963e+003,5.177349e-003
3.025892e+003,5.122461e-003
3.027820e+003,4.948792e-003
3.029749e+003,4.815931e-003
3.031677e+003,4.812144e-003
3.033606e+003,4.779614e-003
3.035535e+003,4.683880e-003
3.037463e+003,4.599518e-003
3.039392e+003,4.639168e-003
3.041320e+003,4.801692e-003
3.043249e+003,4.933208e-003
3.045177e+003,5.116125e-003
3.047106e+003,5.545311e-003
3.049034e+003,5.956244e-003
3.050963e+003,6.276153e-003
3.052892e+003,6.448808e-003
3.054820e+003,6.395575e-003
3.056749e+003,6.335054e-003
3.058677e+003,6.290912e-003
3.060606e+003,6.254539e-003
3.062534e+003,6.180794e-003
3.064463e+003,6.204019e-003
3.066391e+003,6.319992e-003
3.068320e+003,6.271851e-003
3.070249e+003,6.166982e-003
3.072177e+003,6.123596e-003
3.074105e+003,6.146044e-003
3.076034e+003,6.225362e-003
3.077963e+003,6.224892e-003
3.079891e+003,6.167284e-003
3.081820e+003,6.137912e-003
3.083748e+003,6.099334e-003
3.085677e+003,5.958763e-003
3.087605e+003,5.769683e-003
3.089534e+003,5.652212e-003
3.091462e+003,5.566454e-003
3.093391e+003,5.428941e-003
3.095320e+003,5.396465e-003
3.097248e+003,5.517357e-003
3.099177e+003,5.623512e-003
3.101105e+003,5.613174e-003
3.103034e+003,5.623848e-003
3.104962e+003,5.644122e-003
3.106891e+003,5.592633e-003
3.108819e+003,5.412602e-003
3.110748e+003,5.201627e-003
3.112677e+003,5.056787e-003
3.114605e+003,5.022964e-003
3.116534e+003,5.053502e-003
3.118462e+003,4.961863e-003
3.120391e+003,4.851311e-003
3.122319e+003,4.760921e-003
3.124248e+003,4.761993e-003
3.126176e+003,4.810000e-003
3.128105e+003,4.756767e-003
3.130033e+003,4.707795e-003
3.131962e+003,4.629858e-003
3.133891e+003,4.539949e-003
3.135819e+003,4.523677e-003
3.137748e+003,4.510787e-003
3.139676e+003,4.454377e-003
3.141605e+003,4.274616e-003
3.143533e+003,4.161096e-003
3.145462e+003,4.114231e-003
3.147390e+003,4.119984e-003
3.149319e+003,4.150993e-003
3.151248e+003,4.180365e-003
3.153176e+003,4.180666e-003
3.155104e+003,4.064327e-003
3.157033e+003,4.068507e-003
3.158962e+003,4.097506e-003
3.160890e+003,4.049344e-003
3.162819e+003,4.096703e-003
3.164747e+003,4.143566e-003
3.166676e+003,4.173507e-003
3.168604e+003,4.220445e-003
3.170533e+003,4.243665e-003
3.172461e+003,4.196658e-003
3.174390e+003,4.165980e-003
3.176319e+003,4.230750e-003
3.178247e+003,4.281410e-003
3.180176e+003,4.349979e-003
3.182104e+003,4.312029e-003
3.184033e+003,4.151294e-003
3.185961e+003,4.153803e-003
3.187890e+003,4.189231e-003
3.189818e+003,4.197896e-003
3.191747e+003,4.282380e-003
3.193676e+003,4.337061e-003
3.195604e+003,4.222453e-003
3.197532e+003,4.140255e-003
3.199461e+003,4.127577e-003
3.201390e+003,4.180465e-003
3.203318e+003,4.323474e-003
3.205247e+003,4.409689e-003
3.207175e+003,4.350146e-003
3.209104e+003,4.289373e-003
3.211032e+003,4.288436e-003
3.212961e+003,4.334149e-003
3.214889e+003,4.242628e-003
3.216818e+003,4.136943e-003
3.218747e+003,4.160661e-003
3.220675e+003,4.185450e-003
3.222604e+003,4.142128e-003
3.224532e+003,4.111688e-003
3.226461e+003,4.062052e-003
3.228389e+003,4.040481e-003
3.230318e+003,4.116906e-003
3.232246e+003,4.247614e-003
3.234175e+003,4.351184e-003
3.236104e+003,4.395932e-003
3.238032e+003,4.432752e-003
3.239961e+003,4.427832e-003
3.241889e+003,4.305704e-003
3.243818e+003,4.356572e-003
3.245746e+003,4.370729e-003
3.247675e+003,4.258555e-003
3.249603e+003,4.266385e-003
3.251532e+003,4.302859e-003
3.253460e+003,4.305068e-003
3.255389e+003,4.272575e-003
3.257318e+003,4.237877e-003
3.259246e+003,4.222218e-003
3.261175e+003,4.218572e-003
3.263103e+003,4.335555e-003
3.265032e+003,4.371231e-003
3.266960e+003,4.290913e-003
3.268889e+003,4.310958e-003
3.270817e+003,4.318855e-003
3.272746e+003,4.267054e-003
3.274675e+003,4.237141e-003
3.276603e+003,4.222754e-003
3.278531e+003,4.231319e-003
3.280460e+003,4.340340e-003
3.282389e+003,4.473960e-003
3.284317e+003,4.471048e-003
3.286246e+003,4.426292e-003
3.288174e+003,4.396468e-003
3.290103e+003,4.334015e-003
3.292031e+003,4.262972e-003
3.293960e+003,4.355769e-003
3.295888e+003,4.429170e-003
3.297817e+003,4.408417e-003
3.299746e+003,4.383716e-003
3.301674e+003,4.255443e-003
3.303603e+003,4.218271e-003
3.305531e+003,4.311025e-003
3.307460e+003,4.363902e-003
3.309388e+003,4.374512e-003
3.311317e+003,4.294694e-003
3.313245e+003,4.255912e-003
3.315174e+003,4.405606e-003
3.317103e+003,4.439882e-003
3.319031e+003,4.423078e-003
3.320960e+003,4.507640e-003
3.322888e+003,4.578489e-003
3.324817e+003,4.602967e-003
3.326745e+003,4.600757e-003
3.328674e+003,4.459499e-003
3.330602e+003,4.394861e-003
3.332531e+003,4.476069e-003
3.334459e+003,4.576011e-003
3.336388e+003,4.575542e-003
3.338317e+003,4.518454e-003
3.340245e+003,4.404267e-003
3.342174e+003,4.259961e-003
3.344102e+003,4.275018e-003
3.346031e+003,4.323909e-003
3.347959e+003,4.245941e-003
3.349888e+003,4.164675e-003
3.351816e+003,4.129216e-003
3.353745e+003,4.151093e-003
3.355674e+003,4.137813e-003
3.357602e+003,4.151026e-003
3.359531e+003,4.196223e-003
3.361459e+003,4.100550e-003
3.363388e+003,4.031785e-003
3.365316e+003,4.024428e-003
3.367245e+003,4.037437e-003
3.369173e+003,4.024562e-003
3.371102e+003,3.938055e-003
3.373031e+003,3.796477e-003
3.374959e+003,3.674693e-003
3.376887e+003,3.648831e-003
3.378816e+003,3.672521e-003
3.380745e+003,3.693908e-003
3.382673e+003,3.826193e-003
3.384602e+003,3.926419e-003
3.386530e+003,3.915787e-003
3.388459e+003,3.937620e-003
3.390387e+003,4.004263e-003
3.392316e+003,4.051250e-003
3.394244e+003,3.893186e-003
3.396173e+003,3.611676e-003
3.398102e+003,3.695612e-003
3.400030e+003,4.021084e-003
3.401959e+003,4.091452e-003
3.403887e+003,4.046400e-003
3.405816e+003,3.933675e-003
3.407744e+003,3.804733e-003
3.409673e+003,3.780233e-003
3.411601e+003,3.839129e-003
3.413530e+003,3.913848e-003
3.415458e+003,3.938823e-003
3.417387e+003,3.867076e-003
3.419316e+003,3.939058e-003
3.421244e+003,4.081518e-003
3.423173e+003,4.123295e-003
3.425101e+003,4.076100e-003
3.427030e+003,4.249320e-003
3.428958e+003,4.456653e-003
3.430887e+003,4.403162e-003
3.432815e+003,4.418124e-003
3.434744e+003,4.466830e-003
3.436673e+003,4.393590e-003
3.438601e+003,4.229680e-003
3.440530e+003,4.136107e-003
3.442458e+003,4.144001e-003
3.444387e+003,4.045096e-003
3.446315e+003,3.930331e-003
3.448244e+003,3.803964e-003
3.450172e+003,3.780634e-003
3.452101e+003,3.841135e-003
3.454030e+003,3.676565e-003
3.455958e+003,3.713491e-003
3.457886e+003,3.919699e-003
3.459815e+003,3.929930e-003
3.461744e+003,3.837023e-003
3.463672e+003,3.848924e-003
3.465601e+003,3.909635e-003
3.467529e+003,4.032320e-003
3.469458e+003,4.095900e-003
3.471386e+003,3.986439e-003
3.473315e+003,3.966376e-003
3.475243e+003,4.045330e-003
3.477172e+003,4.140757e-003
3.479101e+003,4.251395e-003
3.481029e+003,4.370696e-003
3.482958e+003,4.515708e-003
3.484886e+003,4.504560e-003
3.486815e+003,4.548621e-003
3.488743e+003,4.670147e-003
3.490672e+003,4.611741e-003
3.492600e+003,4.530474e-003
3.494529e+003,4.629222e-003
3.496458e+003,4.715097e-003
3.498386e+003,4.809163e-003
3.500315e+003,4.791239e-003
3.502243e+003,4.625036e-003
3.504172e+003,4.762931e-003
3.506100e+003,4.925232e-003
3.508029e+003,4.818577e-003
3.509957e+003,4.723337e-003
3.511886e+003,4.834927e-003
3.513814e+003,4.913470e-003
3.515743e+003,4.837004e-003
3.517672e+003,4.768023e-003
3.519600e+003,4.869137e-003
3.521529e+003,5.050049e-003
3.523457e+003,5.036037e-003
3.525386e+003,5.083672e-003
3.527314e+003,5.181306e-003
3.529243e+003,5.210245e-003
3.531171e+003,5.263668e-003
3.533100e+003,5.178757e-003
3.535029e+003,5.135538e-003
3.536957e+003,5.219534e-003
3.538885e+003,5.195591e-003
3.540814e+003,5.244786e-003
3.542743e+003,5.217220e-003
3.544671e+003,5.189622e-003
3.546600e+003,5.321826e-003
3.548528e+003,5.366138e-003
3.550457e+003,5.292612e-003
3.552385e+003,5.317566e-003
3.554314e+003,5.359362e-003
3.556242e+003,5.349231e-003
3.558171e+003,5.274266e-003
3.560100e+003,5.246027e-003
3.562028e+003,5.212022e-003
3.563957e+003,5.072576e-003
3.565885e+003,4.958277e-003
3.567814e+003,5.000473e-003
3.569742e+003,4.955562e-003
3.571671e+003,4.696071e-003
3.573599e+003,4.575643e-003
3.575528e+003,4.575743e-003
3.577457e+003,4.528532e-003
3.579385e+003,4.549157e-003
3.581314e+003,4.587228e-003
3.583242e+003,4.621687e-003
3.585171e+003,4.521836e-003
3.587099e+003,4.323909e-003
3.589028e+003,4.256113e-003
3.590956e+003,4.312831e-003
3.592885e+003,4.368587e-003
3.594813e+003,4.434794e-003
3.596742e+003,4.574873e-003
3.598671e+003,4.500442e-003
3.600599e+003,4.321097e-003
3.602528e+003,4.264678e-003
3.604456e+003,4.369926e-003
3.606385e+003,4.447950e-003
3.608313e+003,4.408819e-003
3.610242e+003,4.484372e-003
3.612170e+003,4.496458e-003
3.614099e+003,4.506937e-003
3.616028e+003,4.546009e-003
3.617956e+003,4.635317e-003
3.619885e+003,4.768693e-003
3.621813e+003,4.680731e-003
3.623742e+003,4.583980e-003
3.625670e+003,4.624533e-003
3.627599e+003,4.584751e-003
3.629527e+003,4.574805e-003
3.631456e+003,4.561311e-003
3.633385e+003,4.568946e-003
3.635313e+003,4.559570e-003
3.637241e+003,4.440920e-003
3.639170e+003,4.236137e-003
3.641099e+003,4.098376e-003
3.643027e+003,4.089880e-003
3.644956e+003,4.090114e-003
3.646884e+003,4.029478e-003
3.648813e+003,3.952465e-003
3.650741e+003,3.847821e-003
3.652670e+003,3.793168e-003
3.654598e+003,3.778862e-003
3.656527e+003,3.735146e-003
3.658456e+003,3.722581e-003
3.660384e+003,3.604259e-003
3.662313e+003,3.446291e-003
3.664241e+003,3.298931e-003
3.666170e+003,3.150786e-003
3.668098e+003,3.113040e-003
3.670027e+003,3.180958e-003
3.671955e+003,3.158162e-003
3.673884e+003,2.996853e-003
3.675813e+003,2.907315e-003
3.677741e+003,2.799153e-003
3.679670e+003,2.690351e-003
3.681598e+003,2.719191e-003
3.683527e+003,2.761304e-003
3.685455e+003,2.797552e-003
3.687384e+003,2.636910e-003
3.689312e+003,2.438241e-003
3.691241e+003,2.354314e-003
3.693169e+003,2.365141e-003
3.695098e+003,2.460366e-003
3.697027e+003,2.405621e-003
3.698955e+003,2.288091e-003
3.700884e+003,2.166796e-003
3.702812e+003,2.123841e-003
3.704741e+003,2.120945e-003
3.706669e+003,1.980191e-003
3.708598e+003,1.862277e-003
3.710526e+003,1.986116e-003
3.712455e+003,2.076330e-003
3.714384e+003,2.090047e-003
3.716312e+003,2.028691e-003
3.718240e+003,1.937688e-003
3.720169e+003,1.925739e-003
3.722098e+003,1.969340e-003
3.724026e+003,2.042606e-003
3.725955e+003,2.006054e-003
3.727883e+003,1.846936e-003
3.729812e+003,1.864739e-003
3.731740e+003,2.006820e-003
3.733669e+003,2.058918e-003
3.735597e+003,1.913459e-003
3.737526e+003,1.824842e-003
3.739455e+003,1.877418e-003
3.741383e+003,1.950734e-003
3.743312e+003,1.920780e-003
3.745240e+003,1.910530e-003
3.747169e+003,1.880246e-003
3.749097e+003,1.832728e-003
3.751026e+003,1.879314e-003
3.752954e+003,1.941914e-003
3.754883e+003,1.934659e-003
3.756812e+003,1.893391e-003
3.758740e+003,1.900413e-003
3.760669e+003,1.918018e-003
3.762597e+003,1.935424e-003
3.764526e+003,1.948205e-003
3.766454e+003,1.964181e-003
3.768383e+003,1.758999e-003
3.770311e+003,1.595116e-003
3.772240e+003,1.610380e-003
3.774168e+003,1.550921e-003
3.776097e+003,1.487214e-003
3.778026e+003,1.487879e-003
3.779954e+003,1.625978e-003
3.781883e+003,1.747688e-003
3.783811e+003,1.687178e-003
3.785740e+003,1.621788e-003
3.787668e+003,1.611910e-003
3.789597e+003,1.669782e-003
3.791525e+003,1.650989e-003
3.793454e+003,1.673640e-003
3.795383e+003,1.821282e-003
3.797311e+003,1.866137e-003
3.799240e+003,1.703843e-003
3.801168e+003,1.635258e-003
3.803097e+003,1.741267e-003
3.805025e+003,1.715685e-003
3.806954e+003,1.494960e-003
3.808882e+003,1.480298e-003
3.810811e+003,1.623817e-003
3.812740e+003,1.654515e-003
3.814668e+003,1.640546e-003
3.816596e+003,1.699253e-003
3.818525e+003,1.662498e-003
3.820454e+003,1.529041e-003
3.822382e+003,1.656843e-003
3.824311e+003,1.833294e-003
3.826239e+003,1.797226e-003
3.828168e+003,1.687477e-003
3.830096e+003,1.510754e-003
3.832025e+003,1.521194e-003
3.833953e+003,1.589030e-003
3.835882e+003,1.604394e-003
3.837811e+003,1.575595e-003
3.839739e+003,1.490804e-003
3.841668e+003,1.537121e-003
3.843596e+003,1.660901e-003
3.845525e+003,1.781589e-003
3.847453e+003,1.836388e-003
3.849382e+003,1.745093e-003
3.851310e+003,1.635856e-003
3.853239e+003,1.692966e-003
3.855167e+003,1.863308e-003
3.857096e+003,1.799023e-003
3.859025e+003,1.568013e-003
3.860953e+003,1.540912e-003
3.862882e+003,1.613241e-003
3.864810e+003,1.558203e-003
3.866739e+003,1.672509e-003
3.868667e+003,1.784849e-003
3.870596e+003,1.767981e-003
3.872524e+003,1.741433e-003
3.874453e+003,1.652453e-003
3.876382e+003,1.569543e-003
3.878310e+003,1.573467e-003
3.880239e+003,1.654016e-003
3.882167e+003,1.626511e-003
3.884096e+003,1.517404e-003
3.886024e+003,1.434752e-003
3.887953e+003,1.463974e-003
3.889881e+003,1.527977e-003
3.891810e+003,1.623451e-003
3.893739e+003,1.634991e-003
3.895667e+003,1.656145e-003
3.897595e+003,1.627043e-003
3.899524e+003,1.532067e-003
3.901453e+003,1.482093e-003
3.903381e+003,1.427405e-003
3.905310e+003,1.396922e-003
3.907238e+003,1.439938e-003
3.909167e+003,1.506099e-003
3.911095e+003,1.547330e-003
3.913024e+003,1.624681e-003
3.914952e+003,1.585372e-003
3.916881e+003,1.406263e-003
3.918810e+003,1.466468e-003
3.920738e+003,1.504336e-003
3.922667e+003,1.524719e-003
3.924595e+003,1.608086e-003
3.926524e+003,1.526913e-003
3.928452e+003,1.557704e-003
3.930381e+003,1.612210e-003
3.932309e+003,1.484521e-003
3.934238e+003,1.453535e-003
3.936167e+003,1.482725e-003
3.938095e+003,1.495426e-003
3.940024e+003,1.557605e-003
3.941952e+003,1.573500e-003
3.943881e+003,1.478569e-003
3.945809e+003,1.396523e-003
3.947738e+003,1.389277e-003
3.949666e+003,1.411083e-003
3.951595e+003,1.422851e-003
3.953523e+003,1.491336e-003
3.955452e+003,1.447451e-003
3.957380e+003,1.304722e-003
3.959309e+003,1.390839e-003
3.961238e+003,1.708467e-003
3.963166e+003,1.666722e-003
3.965095e+003,1.272055e-003
3.967023e+003,1.207757e-003
3.968952e+003,1.501377e-003
3.970880e+003,1.569543e-003
3.972809e+003,1.494661e-003
3.974737e+003,1.528542e-003
3.976666e+003,1.555111e-003
3.978594e+003,1.581381e-003
3.980523e+003,1.604527e-003
3.982452e+003,1.639947e-003
3.984380e+003,1.622553e-003
3.986309e+003,1.575595e-003
3.988237e+003,1.621522e-003
3.990166e+003,1.697190e-003
3.992094e+003,1.629470e-003
3.994023e+003,1.564322e-003
3.995951e+003,1.637586e-003
3.997880e+003,1.663994e-003
3.999809e+003,1.471887e-003
4.001737e+003,0.000000e+000
