3.992094e+002,0.000000e+000
4.011380e+002,0.000000e+000
4.030665e+002,0.000000e+000
4.049951e+002,0.000000e+000
4.069236e+002,0.000000e+000
4.088522e+002,0.000000e+000
4.107807e+002,0.000000e+000
4.127093e+002,0.000000e+000
4.146378e+002,0.000000e+000
4.165664e+002,0.000000e+000
4.184949e+002,0.000000e+000
4.204235e+002,0.000000e+000
4.223520e+002,0.000000e+000
4.242806e+002,0.000000e+000
4.262091e+002,0.000000e+000
4.281377e+002,0.000000e+000
4.300662e+002,0.000000e+000
4.319948e+002,0.000000e+000
4.339233e+002,0.000000e+000
4.358519e+002,0.000000e+000
4.377804e+002,0.000000e+000
4.397090e+002,0.000000e+000
4.416375e+002,0.000000e+000
4.435660e+002,0.000000e+000
4.454946e+002,0.000000e+000
4.474232e+002,0.000000e+000
4.493517e+002,0.000000e+000
4.512802e+002,0.000000e+000
4.532088e+002,0.000000e+000
4.551373e+002,0.000000e+000
4.570659e+002,0.000000e+000
4.589944e+002,0.000000e+000
4.609230e+002,0.000000e+000
4.628515e+002,0.000000e+000
4.647801e+002,0.000000e+000
4.667086e+002,0.000000e+000
4.686372e+002,0.000000e+000
4.705657e+002,0.000000e+000
4.724943e+002,0.000000e+000
4.744228e+002,0.000000e+000
4.763514e+002,0.000000e+000
4.782799e+002,0.000000e+000
4.802085e+002,0.000000e+000
4.821370e+002,0.000000e+000
4.840656e+002,0.000000e+000
4.859941e+002,0.000000e+000
4.879226e+002,0.000000e+000
4.898512e+002,0.000000e+000
4.917798e+002,0.000000e+000
4.937083e+002,0.000000e+000
4.956368e+002,0.000000e+000
4.975654e+002,0.000000e+000
4.994939e+002,0.000000e+000
5.014225e+002,0.000000e+000
5.033510e+002,0.000000e+000
5.052796e+002,0.000000e+000
5.072081e+002,0.000000e+000
5.091367e+002,0.000000e+000
5.110652e+002,0.000000e+000
5.129938e+002,0.000000e+000
5.149223e+002,0.000000e+000
5.168509e+002,0.000000e+000
5.187794e+002,0.000000e+000
5.207079e+002,0.000000e+000
5.226365e+002,0.000000e+000
5.245651e+002,0.000000e+000
5.264936e+002,0.000000e+000
5.284221e+002,0.000000e+000
5.303507e+002,0.000000e+000
5.322792e+002,0.000000e+000
5.342078e+002,0.000000e+000
5.361364e+002,0.000000e+000
5.380649e+002,0.000000e+000
5.399934e+002,0.000000e+000
5.419220e+002,0.000000e+000
5.438505e+002,0.000000e+000
5.457791e+002,0.000000e+000
5.477076e+002,0.000000e+000
5.496362e+002,0.000000e+000
5.515647e+002,0.000000e+000
5.534933e+002,0.000000e+000
5.554218e+002,0.000000e+000
5.573503e+002,0.000000e+000
5.592789e+002,0.000000e+000
5.612075e+002,0.000000e+000
5.631360e+002,0.000000e+000
5.650646e+002,0.000000e+000
5.669931e+002,0.000000e+000
5.689216e+002,0.000000e+000
5.708502e+002,0.000000e+000
5.727787e+002,0.000000e+000
5.747073e+002,0.000000e+000
5.766359e+002,0.000000e+000
5.785644e+002,0.000000e+000
5.804929e+002,0.000000e+000
5.824215e+002,0.000000e+000
5.843500e+002,0.000000e+000
5.862786e+002,0.000000e+000
5.882072e+002,0.000000e+000
5.901357e+002,0.000000e+000
5.920642e+002,0.000000e+000
5.939928e+002,0.000000e+000
5.959213e+002,0.000000e+000
5.978499e+002,0.000000e+000
5.997784e+002,0.000000e+000
6.017070e+002,0.000000e+000
6.036355e+002,0.000000e+000
6.055641e+002,0.000000e+000
6.074926e+002,0.000000e+000
6.094211e+002,0.000000e+000
6.113497e+002,0.000000e+000
6.132783e+002,0.000000e+000
6.152068e+002,0.000000e+000
6.171354e+002,0.000000e+000
6.190639e+002,0.000000e+000
6.209924e+002,0.000000e+000
6.229210e+002,0.000000e+000
6.248495e+002,0.000000e+000
6.267781e+002,0.000000e+000
6.287067e+002,0.000000e+000
6.306352e+002,0.000000e+000
6.325637e+002,0.000000e+000
6.344923e+002,0.000000e+000
6.364208e+002,0.000000e+000
6.383494e+002,0.000000e+000
6.402780e+002,0.000000e+000
6.422065e+002,0.000000e+000
6.441350e+002,0.000000e+000
6.460636e+002,0.000000e+000
6.479921e+002,0.000000e+000
6.499207e+002,0.000000e+000
6.518492e+002,0.000000e+000
6.537778e+002,0.000000e+000
6.557063e+002,0.000000e+000
6.576349e+002,0.000000e+000
6.595634e+002,0.000000e+000
6.614919e+002,0.000000e+000
6.634205e+002,0.000000e+000
6.653491e+002,0.000000e+000
6.672776e+002,0.000000e+000
6.692062e+002,0.000000e+000
6.711347e+002,0.000000e+000
6.730632e+002,0.000000e+000
6.749918e+002,3.623951e-002
6.769203e+002,3.863261e-002
6.788489e+002,4.147293e-002
6.807775e+002,4.266859e-002
6.827060e+002,4.169451e-002
6.846345e+002,4.132466e-002
6.865631e+002,4.284775e-002
6.884916e+002,4.500141e-002
6.904202e+002,4.714112e-002
6.923488e+002,4.958312e-002
6.942773e+002,5.325666e-002
6.962058e+002,5.815227e-002
6.981344e+002,6.515983e-002
7.000629e+002,7.435285e-002
7.019915e+002,8.376877e-002
7.039200e+002,9.259149e-002
7.058486e+002,1.015266e-001
7.077771e+002,1.115303e-001
7.097057e+002,1.236964e-001
7.116342e+002,1.390743e-001
7.135627e+002,1.597433e-001
7.154913e+002,1.902632e-001
7.174199e+002,2.369086e-001
7.193484e+002,2.981348e-001
7.212770e+002,3.551752e-001
7.232055e+002,3.925140e-001
7.251340e+002,3.925253e-001
7.270626e+002,3.489087e-001
7.289911e+002,2.861065e-001
7.309197e+002,2.273206e-001
7.328483e+002,1.768276e-001
7.347768e+002,1.324139e-001
7.367053e+002,9.282489e-002
7.386339e+002,6.068851e-002
7.405624e+002,3.783206e-002
7.424910e+002,2.422065e-002
7.444196e+002,1.685301e-002
7.463481e+002,1.303145e-002
7.482766e+002,1.103865e-002
7.502052e+002,1.017179e-002
7.521337e+002,9.542943e-003
7.540623e+002,9.235714e-003
7.559908e+002,9.140345e-003
7.579194e+002,9.288753e-003
7.598479e+002,9.414391e-003
7.617765e+002,9.974120e-003
7.637050e+002,1.063381e-002
7.656335e+002,1.116442e-002
7.675621e+002,1.190424e-002
7.694907e+002,1.323838e-002
7.714192e+002,1.439670e-002
7.733478e+002,1.505526e-002
7.752763e+002,1.577010e-002
7.772048e+002,1.657344e-002
7.791334e+002,1.733362e-002
7.810620e+002,1.817911e-002
7.829905e+002,1.941175e-002
7.849191e+002,2.139296e-002
7.868476e+002,2.394428e-002
7.887761e+002,2.709145e-002
7.907047e+002,3.073668e-002
7.926332e+002,3.345683e-002
7.945618e+002,3.226339e-002
7.964904e+002,2.736401e-002
7.984189e+002,2.295513e-002
8.003474e+002,2.136999e-002
8.022760e+002,2.156721e-002
8.042045e+002,2.206955e-002
8.061331e+002,2.248180e-002
8.080616e+002,2.276768e-002
8.099902e+002,2.300791e-002
8.119187e+002,2.333931e-002
8.138473e+002,2.356051e-002
8.157758e+002,2.368740e-002
8.177043e+002,2.393661e-002
8.196329e+002,2.425218e-002
8.215615e+002,2.480826e-002
8.234900e+002,2.573316e-002
8.254186e+002,2.669333e-002
8.273471e+002,2.767487e-002
8.292756e+002,2.910671e-002
8.312042e+002,3.100178e-002
8.331328e+002,3.322066e-002
8.350613e+002,3.588495e-002
8.369899e+002,3.873932e-002
8.389184e+002,4.157972e-002
8.408469e+002,4.494444e-002
8.427755e+002,4.830534e-002
8.447040e+002,5.150389e-002
8.466326e+002,5.405129e-002
8.485612e+002,5.446603e-002
8.504896e+002,5.245015e-002
8.524182e+002,4.974327e-002
8.543468e+002,4.778612e-002
8.562753e+002,4.672302e-002
8.582039e+002,4.609883e-002
8.601324e+002,4.635682e-002
8.620609e+002,4.769925e-002
8.639895e+002,5.089191e-002
8.659181e+002,5.735008e-002
8.678466e+002,6.967960e-002
8.697751e+002,8.980895e-002
8.717037e+002,1.093456e-001
8.736322e+002,1.103711e-001
8.755608e+002,9.479039e-002
8.774894e+002,7.819815e-002
8.794178e+002,6.423947e-002
8.813464e+002,5.204233e-002
8.832750e+002,4.225331e-002
8.852035e+002,3.563419e-002
8.871321e+002,3.173715e-002
8.890607e+002,2.961363e-002
8.909891e+002,2.862445e-002
8.929177e+002,2.840957e-002
8.948463e+002,2.860820e-002
8.967748e+002,2.871708e-002
8.987034e+002,2.840490e-002
9.006320e+002,2.770577e-002
9.025604e+002,2.648740e-002
9.044890e+002,2.470706e-002
9.064176e+002,2.270257e-002
9.083461e+002,2.091094e-002
9.102747e+002,1.957002e-002
9.122032e+002,1.863382e-002
9.141317e+002,1.792769e-002
9.160603e+002,1.740555e-002
9.179889e+002,1.708603e-002
9.199174e+002,1.718802e-002
9.218459e+002,1.759580e-002
9.237745e+002,1.801316e-002
9.257030e+002,1.828636e-002
9.276316e+002,1.856016e-002
9.295602e+002,1.903203e-002
9.314886e+002,1.957577e-002
9.334172e+002,2.001842e-002
9.353458e+002,2.046131e-002
9.372743e+002,2.081948e-002
9.392029e+002,2.120536e-002
9.411315e+002,2.160012e-002
9.430599e+002,2.211173e-002
9.449885e+002,2.289669e-002
9.469171e+002,2.384122e-002
9.488456e+002,2.476771e-002
9.507742e+002,2.588285e-002
9.527028e+002,2.732861e-002
9.546312e+002,2.912298e-002
9.565598e+002,3.129184e-002
9.584884e+002,3.386081e-002
9.604169e+002,3.681862e-002
9.623455e+002,4.020937e-002
9.642740e+002,4.407709e-002
9.662025e+002,4.810970e-002
9.681311e+002,5.175339e-002
9.700597e+002,5.432426e-002
9.719882e+002,5.546349e-002
9.739167e+002,5.488880e-002
9.758453e+002,5.262968e-002
9.777738e+002,4.931709e-002
9.797024e+002,4.573363e-002
9.816310e+002,4.243781e-002
9.835594e+002,3.977762e-002
9.854880e+002,3.790820e-002
9.874166e+002,3.676997e-002
9.893451e+002,3.609294e-002
9.912737e+002,3.576880e-002
9.932023e+002,3.576624e-002
9.951307e+002,3.609928e-002
9.970593e+002,3.692893e-002
9.989879e+002,3.835499e-002
1.000916e+003,4.028298e-002
1.002845e+003,4.268391e-002
1.004774e+003,4.606741e-002
1.006702e+003,5.153176e-002
1.008631e+003,6.022801e-002
1.010559e+003,7.467557e-002
1.012488e+003,1.001565e-001
1.014416e+003,1.395249e-001
1.016345e+003,1.787804e-001
1.018273e+003,1.905879e-001
1.020202e+003,1.697615e-001
1.022130e+003,1.358627e-001
1.024059e+003,1.025902e-001
1.025988e+003,7.564703e-002
1.027916e+003,5.932568e-002
1.029845e+003,5.279656e-002
1.031773e+003,5.163210e-002
1.033702e+003,5.254953e-002
1.035630e+003,5.434247e-002
1.037559e+003,5.656536e-002
1.039487e+003,5.885892e-002
1.041416e+003,6.068162e-002
1.043344e+003,6.163699e-002
1.045273e+003,6.170836e-002
1.047202e+003,6.103844e-002
1.049130e+003,5.998817e-002
1.051059e+003,5.891238e-002
1.052987e+003,5.791667e-002
1.054916e+003,5.745392e-002
1.056844e+003,5.796078e-002
1.058773e+003,5.941491e-002
1.060701e+003,6.184798e-002
1.062630e+003,6.540740e-002
1.064558e+003,6.993420e-002
1.066487e+003,7.542233e-002
1.068416e+003,8.235794e-002
1.070344e+003,9.104024e-002
1.072273e+003,1.018698e-001
1.074201e+003,1.156813e-001
1.076130e+003,1.326985e-001
1.078058e+003,1.527853e-001
1.079987e+003,1.750957e-001
1.081915e+003,1.980764e-001
1.083844e+003,2.207587e-001
1.085773e+003,2.431942e-001
1.087701e+003,2.663591e-001
1.089630e+003,2.913206e-001
1.091558e+003,3.177841e-001
1.093487e+003,3.433452e-001
1.095415e+003,3.645583e-001
1.097344e+003,3.778026e-001
1.099272e+003,3.805513e-001
1.101201e+003,3.722234e-001
1.103129e+003,3.543565e-001
1.105058e+003,3.295805e-001
1.106987e+003,3.020495e-001
1.108915e+003,2.777338e-001
1.110844e+003,2.621747e-001
1.112772e+003,2.576808e-001
1.114701e+003,2.618088e-001
1.116629e+003,2.678224e-001
1.118558e+003,2.688171e-001
1.120486e+003,2.620261e-001
1.122415e+003,2.487229e-001
1.124344e+003,2.311439e-001
1.126272e+003,2.110302e-001
1.128201e+003,1.895820e-001
1.130129e+003,1.677118e-001
1.132058e+003,1.463513e-001
1.133986e+003,1.265838e-001
1.135915e+003,1.095051e-001
1.137843e+003,9.527420e-002
1.139772e+003,8.333127e-002
1.141700e+003,7.316834e-002
1.143629e+003,6.443913e-002
1.145557e+003,5.689404e-002
1.147486e+003,5.033369e-002
1.149415e+003,4.457445e-002
1.151343e+003,3.969092e-002
1.153272e+003,3.564224e-002
1.155200e+003,3.240888e-002
1.157129e+003,3.001384e-002
1.159057e+003,2.825791e-002
1.160986e+003,2.684176e-002
1.162914e+003,2.596547e-002
1.164843e+003,2.595252e-002
1.166771e+003,2.710429e-002
1.168700e+003,2.956291e-002
1.170629e+003,3.265640e-002
1.172557e+003,3.502468e-002
1.174486e+003,3.577366e-002
1.176414e+003,3.487558e-002
1.178343e+003,3.279284e-002
1.180271e+003,3.016980e-002
1.182200e+003,2.780411e-002
1.184128e+003,2.616260e-002
1.186057e+003,2.542723e-002
1.187986e+003,2.560939e-002
1.189914e+003,2.655749e-002
1.191843e+003,2.823164e-002
1.193771e+003,3.051915e-002
1.195700e+003,3.321902e-002
1.197628e+003,3.612146e-002
1.199557e+003,3.921584e-002
1.201485e+003,4.259695e-002
1.203414e+003,4.635457e-002
1.205343e+003,5.065121e-002
1.207271e+003,5.548265e-002
1.209200e+003,6.091712e-002
1.211128e+003,6.703334e-002
1.213057e+003,7.425968e-002
1.214985e+003,8.285047e-002
1.216914e+003,9.276741e-002
1.218842e+003,1.039118e-001
1.220771e+003,1.162559e-001
1.222699e+003,1.298595e-001
1.224628e+003,1.453665e-001
1.226557e+003,1.636993e-001
1.228485e+003,1.858097e-001
1.230414e+003,2.130350e-001
1.232342e+003,2.467287e-001
1.234271e+003,2.872815e-001
1.236199e+003,3.333214e-001
1.238128e+003,3.810543e-001
1.240056e+003,4.247111e-001
1.241985e+003,4.572634e-001
1.243913e+003,4.735988e-001
1.245842e+003,4.731606e-001
1.247771e+003,4.597970e-001
1.249699e+003,4.390348e-001
1.251628e+003,4.166166e-001
1.253556e+003,3.965963e-001
1.255485e+003,3.813071e-001
1.257413e+003,3.704554e-001
1.259342e+003,3.607019e-001
1.261270e+003,3.474569e-001
1.263199e+003,3.283853e-001
1.265127e+003,3.038659e-001
1.267056e+003,2.764488e-001
1.268985e+003,2.490640e-001
1.270913e+003,2.237693e-001
1.272842e+003,2.018939e-001
1.274770e+003,1.841064e-001
1.276699e+003,1.700060e-001
1.278627e+003,1.587891e-001
1.280556e+003,1.495075e-001
1.282484e+003,1.411949e-001
1.284413e+003,1.332743e-001
1.286342e+003,1.255366e-001
1.288270e+003,1.176107e-001
1.290199e+003,1.092091e-001
1.292127e+003,1.002675e-001
1.294056e+003,9.104878e-002
1.295984e+003,8.171809e-002
1.297913e+003,7.256859e-002
1.299841e+003,6.410581e-002
1.301770e+003,5.705498e-002
1.303698e+003,5.167908e-002
1.305627e+003,4.727093e-002
1.307556e+003,4.311479e-002
1.309484e+003,3.890660e-002
1.311413e+003,3.489802e-002
1.313341e+003,3.139868e-002
1.315270e+003,2.837296e-002
1.317198e+003,2.585007e-002
1.319127e+003,2.374220e-002
1.321055e+003,2.189590e-002
1.322984e+003,2.047392e-002
1.324912e+003,1.990251e-002
1.326841e+003,2.088497e-002
1.328770e+003,2.472761e-002
1.330698e+003,3.330215e-002
1.332627e+003,4.803557e-002
1.334555e+003,6.765191e-002
1.336484e+003,8.676517e-002
1.338412e+003,9.802516e-002
1.340341e+003,9.632340e-002
1.342269e+003,8.255529e-002
1.344198e+003,6.355494e-002
1.346126e+003,4.627834e-002
1.348055e+003,3.365482e-002
1.349984e+003,2.525515e-002
1.351912e+003,1.982502e-002
1.353841e+003,1.643185e-002
1.355769e+003,1.439814e-002
1.357698e+003,1.325170e-002
1.359626e+003,1.297905e-002
1.361555e+003,1.360082e-002
1.363483e+003,1.518282e-002
1.365412e+003,1.760505e-002
1.367341e+003,2.019898e-002
1.369269e+003,2.207314e-002
1.371198e+003,2.275089e-002
1.373126e+003,2.242810e-002
1.375055e+003,2.158991e-002
1.376983e+003,2.058734e-002
1.378912e+003,1.970563e-002
1.380840e+003,1.888032e-002
1.382769e+003,1.817064e-002
1.384698e+003,1.760181e-002
1.386626e+003,1.716175e-002
1.388555e+003,1.694506e-002
1.390483e+003,1.721463e-002
1.392412e+003,1.815109e-002
1.394340e+003,1.983387e-002
1.396269e+003,2.248139e-002
1.398197e+003,2.644394e-002
1.400126e+003,3.234823e-002
1.402054e+003,4.093025e-002
1.403983e+003,5.297688e-002
1.405911e+003,6.732350e-002
1.407840e+003,7.822619e-002
1.409769e+003,7.824210e-002
1.411697e+003,6.589008e-002
1.413626e+003,4.779566e-002
1.415554e+003,3.148976e-002
1.417483e+003,2.012068e-002
1.419411e+003,1.308230e-002
1.421340e+003,9.022670e-003
1.423268e+003,6.849624e-003
1.425197e+003,5.795001e-003
1.427125e+003,5.539203e-003
1.429054e+003,5.995917e-003
1.430983e+003,7.159245e-003
1.432911e+003,8.764153e-003
1.434840e+003,1.048725e-002
1.436768e+003,1.212211e-002
1.438697e+003,1.341857e-002
1.440625e+003,1.432269e-002
1.442554e+003,1.498491e-002
1.444482e+003,1.561301e-002
1.446411e+003,1.633468e-002
1.448340e+003,1.728600e-002
1.450268e+003,1.840827e-002
1.452197e+003,1.945457e-002
1.454125e+003,2.018545e-002
1.456054e+003,2.039779e-002
1.457982e+003,1.997925e-002
1.459911e+003,1.906793e-002
1.461839e+003,1.799275e-002
1.463768e+003,1.700153e-002
1.465697e+003,1.637669e-002
1.467625e+003,1.638285e-002
1.469554e+003,1.705918e-002
1.471482e+003,1.776535e-002
1.473411e+003,1.732689e-002
1.475339e+003,1.568023e-002
1.477268e+003,1.366572e-002
1.479196e+003,1.150792e-002
1.481125e+003,9.198654e-003
1.483053e+003,6.895809e-003
1.484982e+003,4.708029e-003
1.486911e+003,2.859284e-003
1.488839e+003,1.536423e-003
1.490768e+003,7.377260e-004
1.492696e+003,4.141741e-004
1.494625e+003,6.769588e-004
1.496553e+003,1.713457e-003
1.498482e+003,3.883558e-003
1.500410e+003,8.170830e-003
1.502339e+003,1.497805e-002
1.504267e+003,2.095604e-002
1.506196e+003,2.028869e-002
1.508125e+003,1.336321e-002
1.510053e+003,6.684751e-003
1.511982e+003,2.940706e-003
1.513910e+003,1.285879e-003
1.515839e+003,6.533975e-004
1.517767e+003,5.170330e-004
1.519696e+003,6.136782e-004
1.521624e+003,8.317314e-004
1.523553e+003,1.007548e-003
1.525481e+003,1.145528e-003
1.527410e+003,1.157156e-003
1.529339e+003,9.759987e-004
1.531267e+003,7.019151e-004
1.533196e+003,4.472084e-004
1.535124e+003,2.235466e-004
1.537053e+003,9.049849e-005
1.538981e+003,1.394836e-004
1.540910e+003,2.350171e-004
1.542838e+003,3.076259e-004
1.544767e+003,4.583862e-004
1.546696e+003,7.073248e-004
1.548624e+003,8.993600e-004
1.550553e+003,1.074041e-003
1.552481e+003,1.335032e-003
1.554410e+003,1.490439e-003
1.556338e+003,1.560132e-003
1.558267e+003,1.742431e-003
1.560195e+003,2.018005e-003
1.562124e+003,2.215150e-003
1.564052e+003,2.516484e-003
1.565981e+003,3.020608e-003
1.567910e+003,3.685453e-003
1.569838e+003,4.632269e-003
1.571767e+003,5.967363e-003
1.573695e+003,7.770008e-003
1.575624e+003,9.747093e-003
1.577552e+003,1.104239e-002
1.579481e+003,1.078250e-002
1.581409e+003,9.116929e-003
1.583338e+003,7.014559e-003
1.585266e+003,5.407569e-003
1.587195e+003,4.551902e-003
1.589124e+003,4.124901e-003
1.591052e+003,3.864201e-003
1.592981e+003,3.698018e-003
1.594909e+003,3.638071e-003
1.596838e+003,3.873495e-003
1.598766e+003,4.322269e-003
1.600695e+003,4.843337e-003
1.602623e+003,5.482927e-003
1.604552e+003,6.283146e-003
1.606480e+003,7.205395e-003
1.608409e+003,8.167184e-003
1.610338e+003,9.073012e-003
1.612266e+003,9.864354e-003
1.614195e+003,1.010732e-002
1.616123e+003,9.732386e-003
1.618052e+003,9.083567e-003
1.619980e+003,8.569623e-003
1.621909e+003,8.438149e-003
1.623837e+003,8.576450e-003
1.625766e+003,8.886594e-003
1.627695e+003,9.278666e-003
1.629623e+003,9.693556e-003
1.631552e+003,1.005044e-002
1.633480e+003,1.040678e-002
1.635409e+003,1.091658e-002
1.637337e+003,1.149768e-002
1.639266e+003,1.189920e-002
1.641194e+003,1.224635e-002
1.643123e+003,1.278429e-002
1.645052e+003,1.345100e-002
1.646980e+003,1.409441e-002
1.648909e+003,1.463580e-002
1.650837e+003,1.527334e-002
1.652766e+003,1.610640e-002
1.654694e+003,1.706466e-002
1.656623e+003,1.793162e-002
1.658551e+003,1.888344e-002
1.660480e+003,2.015403e-002
1.662408e+003,2.164420e-002
1.664337e+003,2.329620e-002
1.666266e+003,2.509582e-002
1.668194e+003,2.692509e-002
1.670123e+003,2.879008e-002
1.672051e+003,3.066122e-002
1.673980e+003,3.254417e-002
1.675908e+003,3.458108e-002
1.677837e+003,3.684026e-002
1.679765e+003,3.941585e-002
1.681694e+003,4.197811e-002
1.683622e+003,4.423522e-002
1.685551e+003,4.628494e-002
1.687479e+003,4.836315e-002
1.689408e+003,5.095301e-002
1.691337e+003,5.433109e-002
1.693265e+003,5.875003e-002
1.695194e+003,6.481006e-002
1.697122e+003,7.294026e-002
1.699051e+003,8.353432e-002
1.700979e+003,9.821642e-002
1.702908e+003,1.177140e-001
1.704836e+003,1.445919e-001
1.706765e+003,1.823544e-001
1.708694e+003,2.332712e-001
1.710622e+003,2.962653e-001
1.712551e+003,3.616782e-001
1.714479e+003,4.090742e-001
1.716408e+003,4.221894e-001
1.718336e+003,4.024737e-001
1.720265e+003,3.676500e-001
1.722193e+003,3.290371e-001
1.724122e+003,2.911760e-001
1.726051e+003,2.555018e-001
1.727979e+003,2.228549e-001
1.729908e+003,1.929266e-001
1.731836e+003,1.661332e-001
1.733765e+003,1.414620e-001
1.735693e+003,1.188759e-001
1.737622e+003,9.873123e-002
1.739550e+003,8.003518e-002
1.741479e+003,6.300967e-002
1.743407e+003,4.835778e-002
1.745336e+003,3.631029e-002
1.747265e+003,2.710298e-002
1.749193e+003,2.041651e-002
1.751122e+003,1.563499e-002
1.753050e+003,1.226929e-002
1.754979e+003,9.846492e-003
1.756907e+003,7.990504e-003
1.758836e+003,6.589874e-003
1.760764e+003,5.533196e-003
1.762693e+003,4.586592e-003
1.764621e+003,3.788421e-003
1.766550e+003,3.213569e-003
1.768479e+003,2.658246e-003
1.770407e+003,2.177186e-003
1.772336e+003,1.833227e-003
1.774264e+003,1.505168e-003
1.776193e+003,1.195962e-003
1.778121e+003,9.290443e-004
1.780050e+003,6.839942e-004
1.781978e+003,4.419678e-004
1.783907e+003,2.183419e-004
1.785835e+003,6.249530e-005
1.787764e+003,2.584463e-006
1.789693e+003,-4.549065e-005
1.791621e+003,-1.634195e-004
1.793550e+003,-2.881705e-004
1.795478e+003,-3.909713e-004
1.797407e+003,-4.505879e-004
1.799335e+003,-5.160542e-004
1.801264e+003,-6.504970e-004
1.803192e+003,-6.903951e-004
1.805121e+003,-6.441779e-004
1.807049e+003,-6.256169e-004
1.808978e+003,-6.654179e-004
1.810907e+003,-6.912221e-004
1.812835e+003,-7.211597e-004
1.814764e+003,-7.755713e-004
1.816692e+003,-8.251809e-004
1.818621e+003,-8.537534e-004
1.820549e+003,-9.394267e-004
1.822478e+003,-1.028124e-003
1.824406e+003,-1.154577e-003
1.826335e+003,-1.292324e-003
1.828264e+003,-1.403871e-003
1.830192e+003,-1.494818e-003
1.832121e+003,-1.621069e-003
1.834049e+003,-1.839643e-003
1.835978e+003,-2.051314e-003
1.837906e+003,-2.258432e-003
1.839835e+003,-2.478497e-003
1.841763e+003,-2.646717e-003
1.843692e+003,-2.795153e-003
1.845620e+003,-2.955681e-003
1.847549e+003,-3.136776e-003
1.849478e+003,-3.307471e-003
1.851406e+003,-3.482174e-003
1.853335e+003,-3.613204e-003
1.855263e+003,-3.755364e-003
1.857192e+003,-3.845591e-003
1.859120e+003,-3.947783e-003
1.861049e+003,-4.050903e-003
1.862977e+003,-4.137621e-003
1.864906e+003,-4.167979e-003
1.866834e+003,-4.171162e-003
1.868763e+003,-4.198170e-003
1.870692e+003,-4.291027e-003
1.872620e+003,-4.355556e-003
1.874549e+003,-4.344370e-003
1.876477e+003,-4.248834e-003
1.878406e+003,-4.183009e-003
1.880334e+003,-4.262122e-003
1.882263e+003,-4.361198e-003
1.884191e+003,-4.374418e-003
1.886120e+003,-4.341779e-003
1.888048e+003,-4.276099e-003
1.889977e+003,-4.196890e-003
1.891906e+003,-4.145761e-003
1.893834e+003,-4.141527e-003
1.895763e+003,-4.124296e-003
1.897691e+003,-4.059405e-003
1.899620e+003,-3.907723e-003
1.901548e+003,-3.797442e-003
1.903477e+003,-3.790872e-003
1.905405e+003,-3.823750e-003
1.907334e+003,-3.823750e-003
1.909263e+003,-3.728920e-003
1.911191e+003,-3.609064e-003
1.913120e+003,-3.550208e-003
1.915048e+003,-3.531475e-003
1.916977e+003,-3.533612e-003
1.918905e+003,-3.457258e-003
1.920834e+003,-3.300763e-003
1.922762e+003,-3.195984e-003
1.924691e+003,-3.154309e-003
1.926620e+003,-3.021165e-003
1.928548e+003,-2.874618e-003
1.930477e+003,-2.706223e-003
1.932405e+003,-2.570142e-003
1.934334e+003,-2.417939e-003
1.936262e+003,-2.205524e-003
1.938191e+003,-2.043960e-003
1.940119e+003,-1.868116e-003
1.942048e+003,-1.685303e-003
1.943976e+003,-1.514894e-003
1.945905e+003,-1.319115e-003
1.947833e+003,-1.137293e-003
1.949762e+003,-9.991995e-004
1.951691e+003,-8.957490e-004
1.953619e+003,-8.494544e-004
1.955548e+003,-8.480325e-004
1.957476e+003,-8.768019e-004
1.959405e+003,-9.989680e-004
1.961333e+003,-1.112044e-003
1.963262e+003,-1.249640e-003
1.965190e+003,-1.427088e-003
1.967119e+003,-1.571649e-003
1.969047e+003,-1.718901e-003
1.970976e+003,-1.860066e-003
1.972905e+003,-2.006330e-003
1.974833e+003,-2.166622e-003
1.976762e+003,-2.297622e-003
1.978690e+003,-2.328668e-003
1.980619e+003,-2.349991e-003
1.982547e+003,-2.376585e-003
1.984476e+003,-2.392962e-003
1.986404e+003,-2.494838e-003
1.988333e+003,-2.564707e-003
1.990262e+003,-2.551103e-003
1.992190e+003,-2.633709e-003
1.994119e+003,-2.775366e-003
1.996047e+003,-2.832879e-003
1.997976e+003,-2.859443e-003
1.999904e+003,-2.893248e-003
2.001833e+003,-2.966475e-003
2.003761e+003,-3.021692e-003
2.005690e+003,-3.106478e-003
2.007619e+003,-3.200063e-003
2.009547e+003,-3.230584e-003
2.011476e+003,-3.305136e-003
2.013404e+003,-3.394437e-003
2.015333e+003,-3.418468e-003
2.017261e+003,-3.497688e-003
2.019190e+003,-3.525559e-003
2.021118e+003,-3.518559e-003
2.023047e+003,-3.515897e-003
2.024975e+003,-3.568809e-003
2.026904e+003,-3.688019e-003
2.028833e+003,-3.778752e-003
2.030761e+003,-3.817510e-003
2.032690e+003,-3.837840e-003
2.034618e+003,-3.832585e-003
2.036547e+003,-3.797442e-003
2.038475e+003,-3.792153e-003
2.040404e+003,-3.767321e-003
2.042332e+003,-3.693539e-003
2.044261e+003,-3.636041e-003
2.046189e+003,-3.564800e-003
2.048118e+003,-3.513136e-003
2.050046e+003,-3.450585e-003
2.051975e+003,-3.343410e-003
2.053904e+003,-3.269588e-003
2.055832e+003,-3.269292e-003
2.057761e+003,-3.226473e-003
2.059689e+003,-3.098813e-003
2.061618e+003,-2.975689e-003
2.063546e+003,-2.884953e-003
2.065475e+003,-2.781325e-003
2.067403e+003,-2.730556e-003
2.069332e+003,-2.720810e-003
2.071260e+003,-2.674874e-003
2.073189e+003,-2.602388e-003
2.075118e+003,-2.528572e-003
2.077046e+003,-2.452700e-003
2.078975e+003,-2.431778e-003
2.080903e+003,-2.409702e-003
2.082832e+003,-2.381660e-003
2.084760e+003,-2.342510e-003
2.086689e+003,-2.240599e-003
2.088617e+003,-2.219633e-003
2.090546e+003,-2.280351e-003
2.092475e+003,-2.283614e-003
2.094403e+003,-2.228600e-003
2.096332e+003,-2.208194e-003
2.098260e+003,-2.187854e-003
2.100189e+003,-2.117792e-003
2.102117e+003,-2.092633e-003
2.104046e+003,-2.165073e-003
2.105974e+003,-2.194250e-003
2.107903e+003,-2.153632e-003
2.109832e+003,-2.101932e-003
2.111760e+003,-2.089666e-003
2.113688e+003,-2.123760e-003
2.115617e+003,-2.119903e-003
2.117546e+003,-2.130322e-003
2.119474e+003,-2.185184e-003
2.121403e+003,-2.216864e-003
2.123331e+003,-2.200876e-003
2.125260e+003,-2.217787e-003
2.127188e+003,-2.309454e-003
2.129117e+003,-2.355659e-003
2.131045e+003,-2.327746e-003
2.132974e+003,-2.325768e-003
2.134903e+003,-2.345970e-003
2.136831e+003,-2.422980e-003
2.138760e+003,-2.485218e-003
2.140688e+003,-2.492169e-003
2.142617e+003,-2.533677e-003
2.144545e+003,-2.613191e-003
2.146474e+003,-2.717649e-003
2.148402e+003,-2.798511e-003
2.150331e+003,-2.807301e-003
2.152260e+003,-2.826855e-003
2.154188e+003,-2.873137e-003
2.156117e+003,-2.947355e-003
2.158045e+003,-3.011360e-003
2.159974e+003,-3.096280e-003
2.161902e+003,-3.187531e-003
2.163831e+003,-3.317434e-003
2.165759e+003,-3.402754e-003
2.167688e+003,-3.379280e-003
2.169616e+003,-3.382404e-003
2.171545e+003,-3.478755e-003
2.173474e+003,-3.503538e-003
2.175402e+003,-3.527367e-003
2.177331e+003,-3.632525e-003
2.179259e+003,-3.689662e-003
2.181188e+003,-3.693703e-003
2.183116e+003,-3.663148e-003
2.185045e+003,-3.574922e-003
2.186973e+003,-3.524902e-003
2.188902e+003,-3.533513e-003
2.190831e+003,-3.611857e-003
2.192759e+003,-3.669621e-003
2.194688e+003,-3.641430e-003
2.196616e+003,-3.591648e-003
2.198545e+003,-3.556157e-003
2.200473e+003,-3.493218e-003
2.202402e+003,-3.420638e-003
2.204330e+003,-3.394930e-003
2.206259e+003,-3.355477e-003
2.208188e+003,-3.310890e-003
2.210116e+003,-3.344922e-003
2.212044e+003,-3.334434e-003
2.213973e+003,-3.257157e-003
2.215902e+003,-3.236077e-003
2.217830e+003,-3.172400e-003
2.219759e+003,-3.105656e-003
2.221687e+003,-3.024785e-003
2.223616e+003,-2.970490e-003
2.225544e+003,-3.044724e-003
2.227473e+003,-3.088384e-003
2.229401e+003,-3.005799e-003
2.231330e+003,-2.966376e-003
2.233259e+003,-2.978816e-003
2.235187e+003,-2.981580e-003
2.237116e+003,-2.950481e-003
2.239044e+003,-2.898909e-003
2.240973e+003,-2.916747e-003
2.242901e+003,-2.870043e-003
2.244830e+003,-2.752320e-003
2.246758e+003,-2.721797e-003
2.248687e+003,-2.693644e-003
2.250615e+003,-2.687749e-003
2.252544e+003,-2.673557e-003
2.254473e+003,-2.571229e-003
2.256401e+003,-2.464331e-003
2.258330e+003,-2.403375e-003
2.260258e+003,-2.377870e-003
2.262187e+003,-2.342576e-003
2.264115e+003,-2.266540e-003
2.266044e+003,-2.176711e-003
2.267972e+003,-2.109087e-003
2.269901e+003,-2.047521e-003
2.271830e+003,-1.958669e-003
2.273758e+003,-1.895168e-003
2.275687e+003,-1.896488e-003
2.277615e+003,-1.839280e-003
2.279544e+003,-1.800114e-003
2.281472e+003,-1.815986e-003
2.283401e+003,-1.768139e-003
2.285329e+003,-1.701805e-003
2.287258e+003,-1.708208e-003
2.289187e+003,-1.702399e-003
2.291115e+003,-1.683058e-003
2.293043e+003,-1.717383e-003
2.294972e+003,-1.794076e-003
2.296901e+003,-1.818625e-003
2.298829e+003,-1.859505e-003
2.300758e+003,-1.924033e-003
2.302686e+003,-1.946761e-003
2.304615e+003,-1.949136e-003
2.306543e+003,-1.895465e-003
2.308472e+003,-1.831098e-003
2.310400e+003,-1.906352e-003
2.312329e+003,-1.921823e-003
2.314258e+003,-1.917634e-003
2.316186e+003,-1.914434e-003
2.318115e+003,-1.863101e-003
2.320043e+003,-1.835354e-003
2.321972e+003,-1.804899e-003
2.323900e+003,-1.798927e-003
2.325829e+003,-1.759328e-003
2.327757e+003,-1.741739e-003
2.329686e+003,-1.765961e-003
2.331615e+003,-1.749659e-003
2.333543e+003,-1.718802e-003
2.335472e+003,-1.718307e-003
2.337400e+003,-1.740386e-003
2.339329e+003,-1.743950e-003
2.341257e+003,-1.714974e-003
2.343186e+003,-1.717911e-003
2.345114e+003,-1.718571e-003
2.347043e+003,-1.692960e-003
2.348971e+003,-1.677282e-003
2.350900e+003,-1.677579e-003
2.352829e+003,-1.625591e-003
2.354757e+003,-1.568546e-003
2.356686e+003,-1.546426e-003
2.358614e+003,-1.533054e-003
2.360543e+003,-1.453640e-003
2.362471e+003,-1.381544e-003
2.364400e+003,-1.365029e-003
2.366328e+003,-1.289384e-003
2.368257e+003,-1.202392e-003
2.370186e+003,-1.215675e-003
2.372114e+003,-1.212503e-003
2.374042e+003,-1.158906e-003
2.375971e+003,-1.123975e-003
2.377900e+003,-1.089934e-003
2.379828e+003,-1.065310e-003
2.381757e+003,-1.101667e-003
2.383685e+003,-1.157320e-003
2.385614e+003,-1.154213e-003
2.387542e+003,-1.125165e-003
2.389471e+003,-1.159600e-003
2.391399e+003,-1.184185e-003
2.393328e+003,-1.213923e-003
2.395257e+003,-1.283768e-003
2.397185e+003,-1.306727e-003
2.399114e+003,-1.277260e-003
2.401042e+003,-1.274253e-003
2.402971e+003,-1.339926e-003
2.404899e+003,-1.349141e-003
2.406828e+003,-1.316208e-003
2.408756e+003,-1.341313e-003
2.410685e+003,-1.459782e-003
2.412614e+003,-1.553062e-003
2.414542e+003,-1.533714e-003
2.416471e+003,-1.523413e-003
2.418399e+003,-1.608228e-003
2.420328e+003,-1.724809e-003
2.422256e+003,-1.796716e-003
2.424185e+003,-1.824499e-003
2.426113e+003,-1.826082e-003
2.428042e+003,-1.800675e-003
2.429970e+003,-1.890220e-003
2.431899e+003,-1.935018e-003
2.433828e+003,-1.990102e-003
2.435756e+003,-2.162567e-003
2.437685e+003,-2.228270e-003
2.439613e+003,-2.249466e-003
2.441542e+003,-2.309619e-003
2.443470e+003,-2.374707e-003
2.445399e+003,-2.418302e-003
2.447327e+003,-2.464166e-003
2.449256e+003,-2.477707e-003
2.451185e+003,-2.440905e-003
2.453113e+003,-2.442849e-003
2.455042e+003,-2.538388e-003
2.456970e+003,-2.624915e-003
2.458899e+003,-2.631963e-003
2.460827e+003,-2.610391e-003
2.462756e+003,-2.658836e-003
2.464684e+003,-2.799893e-003
2.466613e+003,-2.821950e-003
2.468542e+003,-2.742442e-003
2.470470e+003,-2.745504e-003
2.472398e+003,-2.848449e-003
2.474327e+003,-2.865533e-003
2.476256e+003,-2.868397e-003
2.478184e+003,-2.897724e-003
2.480113e+003,-2.876329e-003
2.482041e+003,-2.816880e-003
2.483970e+003,-2.808584e-003
2.485898e+003,-2.762757e-003
2.487827e+003,-2.731017e-003
2.489755e+003,-2.762559e-003
2.491684e+003,-2.710635e-003
2.493613e+003,-2.661965e-003
2.495541e+003,-2.625837e-003
2.497470e+003,-2.617439e-003
2.499398e+003,-2.620436e-003
2.501327e+003,-2.519348e-003
2.503255e+003,-2.382319e-003
2.505184e+003,-2.373092e-003
2.507112e+003,-2.401365e-003
2.509041e+003,-2.342312e-003
2.510969e+003,-2.240137e-003
2.512898e+003,-2.201337e-003
2.514827e+003,-2.144367e-003
2.516755e+003,-1.974073e-003
2.518684e+003,-1.939603e-003
2.520612e+003,-1.991455e-003
2.522541e+003,-1.966289e-003
2.524469e+003,-1.863761e-003
2.526398e+003,-1.813775e-003
2.528326e+003,-1.803249e-003
2.530255e+003,-1.788301e-003
2.532184e+003,-1.795858e-003
2.534112e+003,-1.801863e-003
2.536041e+003,-1.811498e-003
2.537969e+003,-1.807638e-003
2.539898e+003,-1.740485e-003
2.541826e+003,-1.718670e-003
2.543755e+003,-1.700947e-003
2.545683e+003,-1.658105e-003
2.547612e+003,-1.656455e-003
2.549541e+003,-1.629420e-003
2.551469e+003,-1.554613e-003
2.553397e+003,-1.531766e-003
2.555326e+003,-1.544246e-003
2.557255e+003,-1.497922e-003
2.559183e+003,-1.456282e-003
2.561112e+003,-1.441322e-003
2.563040e+003,-1.386465e-003
2.564969e+003,-1.285552e-003
2.566897e+003,-1.249376e-003
2.568826e+003,-1.293679e-003
2.570754e+003,-1.278944e-003
2.572683e+003,-1.209992e-003
2.574612e+003,-1.244981e-003
2.576540e+003,-1.291895e-003
2.578469e+003,-1.266192e-003
2.580397e+003,-1.179922e-003
2.582326e+003,-1.103518e-003
2.584254e+003,-1.080184e-003
2.586183e+003,-1.034504e-003
2.588111e+003,-1.014836e-003
2.590040e+003,-1.050667e-003
2.591969e+003,-1.071094e-003
2.593897e+003,-1.038074e-003
2.595826e+003,-1.026868e-003
2.597754e+003,-9.505686e-004
2.599683e+003,-9.216387e-004
2.601611e+003,-9.388646e-004
2.603540e+003,-9.045444e-004
2.605468e+003,-9.039823e-004
2.607397e+003,-9.272926e-004
2.609325e+003,-9.157533e-004
2.611254e+003,-9.133396e-004
2.613183e+003,-9.278547e-004
2.615111e+003,-9.275240e-004
2.617040e+003,-8.881768e-004
2.618968e+003,-8.596397e-004
2.620897e+003,-8.121507e-004
2.622825e+003,-8.084466e-004
2.624754e+003,-8.461144e-004
2.626682e+003,-7.813594e-004
2.628611e+003,-6.856975e-004
2.630540e+003,-6.496038e-004
2.632468e+003,-6.558567e-004
2.634396e+003,-6.970775e-004
2.636325e+003,-7.093172e-004
2.638254e+003,-7.189434e-004
2.640182e+003,-8.024935e-004
2.642111e+003,-7.847330e-004
2.644039e+003,-7.915462e-004
2.645968e+003,-9.073219e-004
2.647896e+003,-9.706696e-004
2.649825e+003,-9.616771e-004
2.651753e+003,-8.916488e-004
2.653682e+003,-8.819273e-004
2.655611e+003,-9.588339e-004
2.657539e+003,-1.039693e-003
2.659468e+003,-1.084183e-003
2.661396e+003,-1.142647e-003
2.663325e+003,-1.198691e-003
2.665253e+003,-1.276533e-003
2.667182e+003,-1.380025e-003
2.669110e+003,-1.452979e-003
2.671039e+003,-1.503899e-003
2.672968e+003,-1.531007e-003
2.674896e+003,-1.551972e-003
2.676825e+003,-1.630510e-003
2.678753e+003,-1.679395e-003
2.680682e+003,-1.635296e-003
2.682610e+003,-1.573201e-003
2.684539e+003,-1.470779e-003
2.686467e+003,-1.392311e-003
2.688396e+003,-1.320304e-003
2.690324e+003,-1.180980e-003
2.692253e+003,-1.083952e-003
2.694182e+003,-1.028058e-003
2.696110e+003,-9.473616e-004
2.698039e+003,-8.607309e-004
2.699967e+003,-7.988886e-004
2.701896e+003,-8.064291e-004
2.703824e+003,-8.358958e-004
2.705753e+003,-7.562552e-004
2.707681e+003,-6.274366e-004
2.709610e+003,-6.098674e-004
2.711539e+003,-6.287270e-004
2.713467e+003,-6.484127e-004
2.715396e+003,-5.939851e-004
2.717324e+003,-5.373666e-004
2.719253e+003,-6.217457e-004
2.721181e+003,-6.466592e-004
2.723110e+003,-6.111910e-004
2.725038e+003,-5.818745e-004
2.726967e+003,-5.431247e-004
2.728896e+003,-5.107259e-004
2.730824e+003,-4.866982e-004
2.732752e+003,-4.817667e-004
2.734681e+003,-4.600212e-004
2.736610e+003,-4.148057e-004
2.738538e+003,-4.438355e-004
2.740467e+003,-4.667403e-004
2.742395e+003,-4.697191e-004
2.744324e+003,-4.980834e-004
2.746252e+003,-5.785655e-004
2.748181e+003,-5.781022e-004
2.750109e+003,-4.983812e-004
2.752038e+003,-5.104280e-004
2.753967e+003,-4.983150e-004
2.755895e+003,-3.929244e-004
2.757824e+003,-3.760741e-004
2.759752e+003,-4.071590e-004
2.761681e+003,-4.010018e-004
2.763609e+003,-4.073576e-004
2.765538e+003,-3.649506e-004
2.767466e+003,-3.170764e-004
2.769395e+003,-2.948591e-004
2.771323e+003,-3.144938e-004
2.773252e+003,-3.221753e-004
2.775181e+003,-2.762169e-004
2.777109e+003,-1.797150e-004
2.779038e+003,-1.244336e-004
2.780966e+003,-1.461297e-004
2.782895e+003,-4.774353e-005
2.784823e+003,1.235917e-005
2.786752e+003,-4.565631e-005
2.788680e+003,-9.008211e-005
2.790609e+003,-6.314889e-005
2.792538e+003,6.799637e-005
2.794466e+003,1.107149e-004
2.796395e+003,7.150914e-005
2.798323e+003,5.023411e-005
2.800252e+003,7.174112e-005
2.802180e+003,4.002776e-005
2.804109e+003,2.405598e-005
2.806037e+003,5.175845e-005
2.807966e+003,-1.650044e-005
2.809895e+003,-1.767673e-004
2.811823e+003,-2.626735e-004
2.813751e+003,-3.422723e-004
2.815680e+003,-3.922624e-004
2.817609e+003,-4.000087e-004
2.819537e+003,-3.343594e-004
2.821466e+003,-2.326380e-004
2.823394e+003,-1.194318e-004
2.825323e+003,2.584532e-005
2.827251e+003,1.510181e-004
2.829180e+003,3.054707e-004
2.831108e+003,4.403094e-004
2.833037e+003,5.440039e-004
2.834966e+003,6.210112e-004
2.836894e+003,6.978994e-004
2.838823e+003,8.110830e-004
2.840751e+003,1.010603e-003
2.842680e+003,1.186825e-003
2.844608e+003,1.429433e-003
2.846537e+003,1.749451e-003
2.848465e+003,2.182713e-003
2.850394e+003,2.736929e-003
2.852323e+003,3.181759e-003
2.854251e+003,3.400371e-003
2.856180e+003,3.481795e-003
2.858108e+003,3.532633e-003
2.860037e+003,3.482830e-003
2.861965e+003,3.354890e-003
2.863894e+003,3.290050e-003
2.865822e+003,3.237871e-003
2.867751e+003,3.175217e-003
2.869679e+003,3.183194e-003
2.871608e+003,3.242277e-003
2.873537e+003,3.286645e-003
2.875465e+003,3.290384e-003
2.877394e+003,3.203455e-003
2.879322e+003,3.164003e-003
2.881251e+003,3.274759e-003
2.883179e+003,3.479958e-003
2.885108e+003,3.655948e-003
2.887036e+003,3.756536e-003
2.888965e+003,3.749350e-003
2.890894e+003,3.803530e-003
2.892822e+003,3.932839e-003
2.894750e+003,3.984667e-003
2.896679e+003,4.043256e-003
2.898608e+003,4.256313e-003
2.900536e+003,4.549123e-003
2.902465e+003,4.943128e-003
2.904393e+003,5.322967e-003
2.906322e+003,5.641605e-003
2.908250e+003,5.853029e-003
2.910179e+003,5.846648e-003
2.912107e+003,5.736375e-003
2.914036e+003,5.440516e-003
2.915965e+003,5.239621e-003
2.917893e+003,5.333902e-003
2.919822e+003,5.500444e-003
2.921750e+003,5.710322e-003
2.923679e+003,5.882114e-003
2.925607e+003,6.070302e-003
2.927536e+003,6.162747e-003
2.929464e+003,6.185970e-003
2.931393e+003,6.176627e-003
2.933322e+003,6.135694e-003
2.935250e+003,6.114590e-003
2.937179e+003,6.080080e-003
2.939107e+003,6.144229e-003
2.941036e+003,6.173535e-003
2.942964e+003,6.246808e-003
2.944893e+003,6.538440e-003
2.946821e+003,6.937689e-003
2.948750e+003,7.316446e-003
2.950678e+003,7.790889e-003
2.952607e+003,8.283108e-003
2.954536e+003,8.667874e-003
2.956464e+003,9.077342e-003
2.958393e+003,9.618886e-003
2.960321e+003,1.006180e-002
2.962250e+003,1.036222e-002
2.964178e+003,1.055942e-002
2.966107e+003,1.058998e-002
2.968035e+003,1.063646e-002
2.969964e+003,1.068916e-002
2.971893e+003,1.054666e-002
2.973821e+003,1.019747e-002
2.975750e+003,9.761189e-003
2.977678e+003,9.307507e-003
2.979607e+003,8.754383e-003
2.981535e+003,8.159992e-003
2.983464e+003,7.673815e-003
2.985392e+003,7.205867e-003
2.987321e+003,6.738827e-003
2.989250e+003,6.384613e-003
2.991178e+003,6.134484e-003
2.993106e+003,5.867134e-003
2.995035e+003,5.606629e-003
2.996964e+003,5.440348e-003
2.998892e+003,5.263567e-003
3.000821e+003,5.102145e-003
3.002749e+003,4.880061e-003
3.004678e+003,4.572663e-003
3.006606e+003,4.313668e-003
3.008535e+003,4.152498e-003
3.010463e+003,3.904453e-003
3.012392e+003,3.599982e-003
3.014321e+003,3.450700e-003
3.016249e+003,3.301134e-003
3.018178e+003,2.971964e-003
3.020106e+003,2.731294e-003
3.022035e+003,2.641544e-003
3.023963e+003,2.503687e-003
3.025892e+003,2.326131e-003
3.027820e+003,2.163166e-003
3.029749e+003,2.038311e-003
3.031677e+003,1.974899e-003
3.033606e+003,1.922777e-003
3.035535e+003,1.883441e-003
3.037463e+003,1.868399e-003
3.039392e+003,1.779193e-003
3.041320e+003,1.784949e-003
3.043249e+003,1.984185e-003
3.045177e+003,2.196567e-003
3.047106e+003,2.419215e-003
3.049034e+003,2.606842e-003
3.050963e+003,2.822263e-003
3.052892e+003,3.032553e-003
3.054820e+003,3.075364e-003
3.056749e+003,3.035022e-003
3.058677e+003,2.996085e-003
3.060606e+003,2.949880e-003
3.062534e+003,2.798719e-003
3.064463e+003,2.747966e-003
3.066391e+003,2.895673e-003
3.068320e+003,3.051606e-003
3.070249e+003,3.033554e-003
3.072177e+003,2.951314e-003
3.074105e+003,2.943308e-003
3.076034e+003,2.914019e-003
3.077963e+003,2.915954e-003
3.079891e+003,2.840706e-003
3.081820e+003,2.720024e-003
3.083748e+003,2.638110e-003
3.085677e+003,2.550679e-003
3.087605e+003,2.523216e-003
3.089534e+003,2.415750e-003
3.091462e+003,2.402489e-003
3.093391e+003,2.469663e-003
3.095320e+003,2.462399e-003
3.097248e+003,2.479260e-003
3.099177e+003,2.450436e-003
3.101105e+003,2.478194e-003
3.103034e+003,2.522217e-003
3.104962e+003,2.593976e-003
3.106891e+003,2.622409e-003
3.108819e+003,2.515218e-003
3.110748e+003,2.383798e-003
3.112677e+003,2.246556e-003
3.114605e+003,2.057154e-003
3.116534e+003,1.998132e-003
3.118462e+003,1.991475e-003
3.120391e+003,1.951400e-003
3.122319e+003,1.942979e-003
3.124248e+003,1.955793e-003
3.126176e+003,1.960054e-003
3.128105e+003,1.973035e-003
3.130033e+003,1.891161e-003
3.131962e+003,1.719378e-003
3.133891e+003,1.635091e-003
3.135819e+003,1.685714e-003
3.137748e+003,1.727495e-003
3.139676e+003,1.623617e-003
3.141605e+003,1.522059e-003
3.143533e+003,1.491203e-003
3.145462e+003,1.476574e-003
3.147390e+003,1.496822e-003
3.149319e+003,1.492600e-003
3.151248e+003,1.481894e-003
3.153176e+003,1.441766e-003
3.155104e+003,1.368535e-003
3.157033e+003,1.352116e-003
3.158962e+003,1.432624e-003
3.160890e+003,1.457458e-003
3.162819e+003,1.510754e-003
3.164747e+003,1.537853e-003
3.166676e+003,1.454532e-003
3.168604e+003,1.493231e-003
3.170533e+003,1.505001e-003
3.172461e+003,1.436314e-003
3.174390e+003,1.456062e-003
3.176319e+003,1.528077e-003
3.178247e+003,1.605425e-003
3.180176e+003,1.677299e-003
3.182104e+003,1.612975e-003
3.184033e+003,1.545301e-003
3.185961e+003,1.626710e-003
3.187890e+003,1.703045e-003
3.189818e+003,1.768015e-003
3.191747e+003,1.721939e-003
3.193676e+003,1.632364e-003
3.195604e+003,1.642741e-003
3.197532e+003,1.580084e-003
3.199461e+003,1.542508e-003
3.201390e+003,1.536356e-003
3.203318e+003,1.515010e-003
3.205247e+003,1.486382e-003
3.207175e+003,1.487945e-003
3.209104e+003,1.558602e-003
3.211032e+003,1.583410e-003
3.212961e+003,1.607653e-003
3.214889e+003,1.595748e-003
3.216818e+003,1.565087e-003
3.218747e+003,1.540812e-003
3.220675e+003,1.511552e-003
3.222604e+003,1.508160e-003
3.224532e+003,1.559633e-003
3.226461e+003,1.698687e-003
3.228389e+003,1.811200e-003
3.230318e+003,1.704774e-003
3.232246e+003,1.620092e-003
3.234175e+003,1.608452e-003
3.236104e+003,1.602100e-003
3.238032e+003,1.617664e-003
3.239961e+003,1.607421e-003
3.241889e+003,1.617098e-003
3.243818e+003,1.733948e-003
3.245746e+003,1.739604e-003
3.247675e+003,1.744394e-003
3.249603e+003,1.811932e-003
3.251532e+003,1.791670e-003
3.253460e+003,1.731586e-003
3.255389e+003,1.670746e-003
3.257318e+003,1.662498e-003
3.259246e+003,1.716650e-003
3.261175e+003,1.725100e-003
3.263103e+003,1.719943e-003
3.265032e+003,1.760862e-003
3.266960e+003,1.737907e-003
3.268889e+003,1.781921e-003
3.270817e+003,1.850164e-003
3.272746e+003,1.798424e-003
3.274675e+003,1.806975e-003
3.276603e+003,1.772439e-003
3.278531e+003,1.893790e-003
3.280460e+003,1.992074e-003
3.282389e+003,2.006953e-003
3.284317e+003,2.069105e-003
3.286246e+003,1.972702e-003
3.288174e+003,1.903275e-003
3.290103e+003,1.933960e-003
3.292031e+003,2.002992e-003
3.293960e+003,2.052493e-003
3.295888e+003,1.977928e-003
3.297817e+003,1.889131e-003
3.299746e+003,1.883641e-003
3.301674e+003,1.952498e-003
3.303603e+003,2.016174e-003
3.305531e+003,1.951433e-003
3.307460e+003,1.823178e-003
3.309388e+003,1.816990e-003
3.311317e+003,1.758633e-003
3.313245e+003,1.797392e-003
3.315174e+003,2.003691e-003
3.317103e+003,2.049996e-003
3.319031e+003,1.867967e-003
3.320960e+003,1.765952e-003
3.322888e+003,1.795330e-003
3.324817e+003,1.826340e-003
3.326745e+003,1.866536e-003
3.328674e+003,1.894123e-003
3.330602e+003,1.867867e-003
3.332531e+003,1.885371e-003
3.334459e+003,1.931197e-003
3.336388e+003,1.950002e-003
3.338317e+003,2.030488e-003
3.340245e+003,1.903907e-003
3.342174e+003,1.756104e-003
3.344102e+003,1.748353e-003
3.346031e+003,1.641178e-003
3.347959e+003,1.692367e-003
3.349888e+003,1.740934e-003
3.351816e+003,1.652918e-003
3.353745e+003,1.594617e-003
3.355674e+003,1.458921e-003
3.357602e+003,1.349357e-003
3.359531e+003,1.437711e-003
3.361459e+003,1.362353e-003
3.363388e+003,1.266704e-003
3.365316e+003,1.253013e-003
3.367245e+003,1.310870e-003
3.369173e+003,1.337791e-003
3.371102e+003,1.305619e-003
3.373031e+003,1.341181e-003
3.374959e+003,1.386817e-003
3.376887e+003,1.316055e-003
3.378816e+003,1.235236e-003
3.380745e+003,1.158020e-003
3.382673e+003,1.142671e-003
3.384602e+003,1.228291e-003
3.386530e+003,1.287973e-003
3.388459e+003,1.206195e-003
3.390387e+003,1.161076e-003
3.392316e+003,1.126194e-003
3.394244e+003,1.005987e-003
3.396173e+003,9.440864e-004
3.398102e+003,9.464441e-004
3.400030e+003,8.728319e-004
3.401959e+003,8.374746e-004
3.403887e+003,8.802689e-004
3.405816e+003,8.354163e-004
3.407744e+003,8.109502e-004
3.409673e+003,9.455143e-004
3.411601e+003,1.051289e-003
3.413530e+003,9.404338e-004
3.415458e+003,8.115477e-004
3.417387e+003,7.537905e-004
3.419316e+003,6.916271e-004
3.421244e+003,5.947655e-004
3.423173e+003,6.071748e-004
3.425101e+003,9.279153e-004
3.427030e+003,1.193104e-003
3.428958e+003,1.166160e-003
3.430887e+003,1.108488e-003
3.432815e+003,1.185031e-003
3.434744e+003,1.181642e-003
3.436673e+003,1.075702e-003
3.438601e+003,1.056271e-003
3.440530e+003,1.131642e-003
3.442458e+003,1.203205e-003
3.444387e+003,1.032391e-003
3.446315e+003,8.565639e-004
3.448244e+003,7.893734e-004
3.450172e+003,8.182202e-004
3.452101e+003,7.773904e-004
3.454030e+003,7.922281e-004
3.455958e+003,8.513184e-004
3.457886e+003,8.859131e-004
3.459815e+003,7.915642e-004
3.461744e+003,7.379916e-004
3.463672e+003,7.495752e-004
3.465601e+003,7.876473e-004
3.467529e+003,9.315347e-004
3.469458e+003,9.851644e-004
3.471386e+003,9.487353e-004
3.473315e+003,9.099519e-004
3.475243e+003,9.471746e-004
3.477172e+003,1.107026e-003
3.479101e+003,1.175462e-003
3.481029e+003,1.123570e-003
3.482958e+003,1.024353e-003
3.484886e+003,1.041258e-003
3.486815e+003,1.112740e-003
3.488743e+003,1.269695e-003
3.490672e+003,1.351551e-003
3.492600e+003,1.337791e-003
3.494529e+003,1.382230e-003
3.496458e+003,1.557704e-003
3.498386e+003,1.633794e-003
3.500315e+003,1.597943e-003
3.502243e+003,1.584740e-003
3.504172e+003,1.619659e-003
3.506100e+003,1.483556e-003
3.508029e+003,1.412645e-003
3.509957e+003,1.455264e-003
3.511886e+003,1.685914e-003
3.513814e+003,1.850197e-003
3.515743e+003,1.746590e-003
3.517672e+003,1.647663e-003
3.519600e+003,1.518368e-003
3.521529e+003,1.394828e-003
3.523457e+003,1.502209e-003
3.525386e+003,1.754940e-003
3.527314e+003,1.858683e-003
3.529243e+003,1.850796e-003
3.531171e+003,1.676135e-003
3.533100e+003,1.489075e-003
3.535029e+003,1.503040e-003
3.536957e+003,1.519133e-003
3.538885e+003,1.587434e-003
3.540814e+003,1.665425e-003
3.542743e+003,1.656710e-003
3.544671e+003,1.679893e-003
3.546600e+003,1.688908e-003
3.548528e+003,1.611578e-003
3.550457e+003,1.666090e-003
3.552385e+003,1.743529e-003
3.554314e+003,1.605492e-003
3.556242e+003,1.521227e-003
3.558171e+003,1.466933e-003
3.560100e+003,1.342178e-003
3.562028e+003,1.382163e-003
3.563957e+003,1.447651e-003
3.565885e+003,1.415504e-003
3.567814e+003,1.219320e-003
3.569742e+003,1.044879e-003
3.571671e+003,1.066369e-003
3.573599e+003,1.160944e-003
3.575528e+003,1.116826e-003
3.577457e+003,1.036542e-003
3.579385e+003,1.129848e-003
3.581314e+003,1.250820e-003
3.583242e+003,1.127988e-003
3.585171e+003,7.993649e-004
3.587099e+003,8.000289e-004
3.589028e+003,8.688810e-004
3.590956e+003,7.607940e-004
3.592885e+003,6.927554e-004
3.594813e+003,6.628219e-004
3.596742e+003,5.819584e-004
3.598671e+003,6.844256e-004
3.600599e+003,8.697775e-004
3.602528e+003,8.671214e-004
3.604456e+003,7.958795e-004
3.606385e+003,8.803021e-004
3.608313e+003,9.575019e-004
3.610242e+003,8.672874e-004
3.612170e+003,8.043111e-004
3.614099e+003,8.657270e-004
3.616028e+003,9.001237e-004
3.617956e+003,8.518496e-004
3.619885e+003,7.807429e-004
3.621813e+003,7.080549e-004
3.623742e+003,6.169963e-004
3.625670e+003,6.415510e-004
3.627599e+003,6.678328e-004
3.629527e+003,6.698903e-004
3.631456e+003,6.949458e-004
3.633385e+003,7.201355e-004
3.635313e+003,7.059640e-004
3.637241e+003,6.840937e-004
3.639170e+003,6.660408e-004
3.641099e+003,6.997248e-004
3.643027e+003,7.370291e-004
3.644956e+003,6.273489e-004
3.646884e+003,4.447208e-004
3.648813e+003,3.164791e-004
3.650741e+003,3.250008e-004
3.652670e+003,4.075742e-004
3.654598e+003,4.072426e-004
3.656527e+003,3.064323e-004
3.658456e+003,1.205915e-004
3.660384e+003,1.504311e-005
3.662313e+003,-3.525319e-005
3.664241e+003,-9.339482e-005
3.666170e+003,-1.753762e-004
3.668098e+003,-1.555365e-004
3.670027e+003,-1.941552e-004
3.671955e+003,-3.429013e-004
3.673884e+003,-4.050404e-004
3.675813e+003,-3.750148e-004
3.677741e+003,-2.819454e-004
3.679670e+003,-3.235990e-004
3.681598e+003,-4.158319e-004
3.683527e+003,-5.521590e-004
3.685455e+003,-6.359066e-004
3.687384e+003,-5.846209e-004
3.689312e+003,-4.858045e-004
3.691241e+003,-5.551703e-004
3.693169e+003,-6.972098e-004
3.695098e+003,-7.725285e-004
3.697027e+003,-7.669387e-004
3.698955e+003,-7.316456e-004
3.700884e+003,-7.108720e-004
3.702812e+003,-7.466960e-004
3.704741e+003,-8.602680e-004
3.706669e+003,-9.236556e-004
3.708598e+003,-9.728515e-004
3.710526e+003,-1.128007e-003
3.712455e+003,-1.146480e-003
3.714384e+003,-1.104146e-003
3.716312e+003,-1.119613e-003
3.718240e+003,-1.084414e-003
3.720169e+003,-1.039462e-003
3.722098e+003,-1.099948e-003
3.724026e+003,-1.171926e-003
3.725955e+003,-1.144200e-003
3.727883e+003,-1.039925e-003
3.729812e+003,-1.007199e-003
3.731740e+003,-1.030537e-003
3.733669e+003,-1.056254e-003
3.735597e+003,-1.177312e-003
3.737526e+003,-1.253902e-003
3.739455e+003,-1.193206e-003
3.741383e+003,-1.211016e-003
3.743312e+003,-1.144299e-003
3.745240e+003,-1.045247e-003
3.747169e+003,-1.195949e-003
3.749097e+003,-1.202094e-003
3.751026e+003,-1.033116e-003
3.752954e+003,-9.892819e-004
3.754883e+003,-1.083026e-003
3.756812e+003,-1.095453e-003
3.758740e+003,-1.141259e-003
3.760669e+003,-1.179922e-003
3.762597e+003,-1.080217e-003
3.764526e+003,-1.049147e-003
3.766454e+003,-1.140367e-003
3.768383e+003,-1.165019e-003
3.770311e+003,-1.115085e-003
3.772240e+003,-1.112705e-003
3.774168e+003,-1.162904e-003
3.776097e+003,-1.264276e-003
3.778026e+003,-1.364897e-003
3.779954e+003,-1.338208e-003
3.781883e+003,-1.327572e-003
3.783811e+003,-1.349373e-003
3.785740e+003,-1.305472e-003
3.787668e+003,-1.243528e-003
3.789597e+003,-1.291234e-003
3.791525e+003,-1.347391e-003
3.793454e+003,-1.343790e-003
3.795383e+003,-1.218913e-003
3.797311e+003,-1.080646e-003
3.799240e+003,-1.093338e-003
3.801168e+003,-1.136864e-003
3.803097e+003,-1.154279e-003
3.805025e+003,-1.338670e-003
3.806954e+003,-1.405919e-003
3.808882e+003,-1.446540e-003
3.810811e+003,-1.433693e-003
3.812740e+003,-1.449578e-003
3.814668e+003,-1.437128e-003
3.816596e+003,-1.329322e-003
3.818525e+003,-1.449017e-003
3.820454e+003,-1.587331e-003
3.822382e+003,-1.451328e-003
3.824311e+003,-1.345178e-003
3.826239e+003,-1.434255e-003
3.828168e+003,-1.393005e-003
3.830096e+003,-1.263714e-003
3.832025e+003,-1.371503e-003
3.833953e+003,-1.407966e-003
3.835882e+003,-1.363807e-003
3.837811e+003,-1.402616e-003
3.839739e+003,-1.387852e-003
3.841668e+003,-1.341974e-003
3.843596e+003,-1.236325e-003
3.845525e+003,-1.241017e-003
3.847453e+003,-1.307025e-003
3.849382e+003,-1.438383e-003
3.851310e+003,-1.453904e-003
3.853239e+003,-1.456183e-003
3.855167e+003,-1.447002e-003
3.857096e+003,-1.407504e-003
3.859025e+003,-1.454829e-003
3.860953e+003,-1.510304e-003
3.862882e+003,-1.459056e-003
3.864810e+003,-1.491978e-003
3.866739e+003,-1.532228e-003
3.868667e+003,-1.488544e-003
3.870596e+003,-1.506804e-003
3.872524e+003,-1.583600e-003
3.874453e+003,-1.722400e-003
3.876382e+003,-1.713225e-003
3.878310e+003,-1.451328e-003
3.880239e+003,-1.281389e-003
3.882167e+003,-1.346532e-003
3.884096e+003,-1.469293e-003
3.886024e+003,-1.514498e-003
3.887953e+003,-1.496007e-003
3.889881e+003,-1.480883e-003
3.891810e+003,-1.515191e-003
3.893739e+003,-1.528464e-003
3.895667e+003,-1.539558e-003
3.897595e+003,-1.467576e-003
3.899524e+003,-1.423918e-003
3.901453e+003,-1.434288e-003
3.903381e+003,-1.442313e-003
3.905310e+003,-1.452517e-003
3.907238e+003,-1.367870e-003
3.909167e+003,-1.360075e-003
3.911095e+003,-1.445813e-003
3.913024e+003,-1.467179e-003
3.914952e+003,-1.311947e-003
3.916881e+003,-1.125495e-003
3.918810e+003,-1.146844e-003
3.920738e+003,-1.348316e-003
3.922667e+003,-1.488676e-003
3.924595e+003,-1.597367e-003
3.926524e+003,-1.635923e-003
3.928452e+003,-1.614698e-003
3.930381e+003,-1.594032e-003
3.932309e+003,-1.461863e-003
3.934238e+003,-1.422696e-003
3.936167e+003,-1.532658e-003
3.938095e+003,-1.480025e-003
3.940024e+003,-1.370975e-003
3.941952e+003,-1.389041e-003
3.943881e+003,-1.456645e-003
3.945809e+003,-1.384285e-003
3.947738e+003,-1.211478e-003
3.949666e+003,-1.200574e-003
3.951595e+003,-1.364369e-003
3.953523e+003,-1.522158e-003
3.955452e+003,-1.609878e-003
3.957380e+003,-1.500101e-003
3.959309e+003,-1.581652e-003
3.961238e+003,-1.759262e-003
3.963166e+003,-1.711310e-003
3.965095e+003,-1.594495e-003
3.967023e+003,-1.467476e-003
3.968952e+003,-1.487818e-003
3.970880e+003,-1.572012e-003
3.972809e+003,-1.586902e-003
3.974737e+003,-1.435246e-003
3.976666e+003,-1.346202e-003
3.978594e+003,-1.542496e-003
3.980523e+003,-1.788136e-003
3.982452e+003,-1.687019e-003
3.984380e+003,-1.521696e-003
3.986309e+003,-1.423323e-003
3.988237e+003,-1.375202e-003
3.990166e+003,-1.383625e-003
3.992094e+003,-1.553227e-003
3.994023e+003,-1.701475e-003
3.995951e+003,-1.605422e-003
3.997880e+003,-1.515290e-003
3.999809e+003,-1.525691e-003
4.001737e+003,0.000000e+000
