3.992094e+002,0.000000e+000
4.011380e+002,0.000000e+000
4.030665e+002,0.000000e+000
4.049951e+002,0.000000e+000
4.069236e+002,0.000000e+000
4.088522e+002,0.000000e+000
4.107807e+002,0.000000e+000
4.127093e+002,0.000000e+000
4.146378e+002,0.000000e+000
4.165664e+002,0.000000e+000
4.184949e+002,0.000000e+000
4.204235e+002,0.000000e+000
4.223520e+002,0.000000e+000
4.242806e+002,0.000000e+000
4.262091e+002,0.000000e+000
4.281377e+002,0.000000e+000
4.300662e+002,0.000000e+000
4.319948e+002,0.000000e+000
4.339233e+002,0.000000e+000
4.358519e+002,0.000000e+000
4.377804e+002,0.000000e+000
4.397090e+002,0.000000e+000
4.416375e+002,0.000000e+000
4.435660e+002,0.000000e+000
4.454946e+002,0.000000e+000
4.474232e+002,0.000000e+000
4.493517e+002,0.000000e+000
4.512802e+002,0.000000e+000
4.532088e+002,0.000000e+000
4.551373e+002,0.000000e+000
4.570659e+002,0.000000e+000
4.589944e+002,0.000000e+000
4.609230e+002,0.000000e+000
4.628515e+002,0.000000e+000
4.647801e+002,0.000000e+000
4.667086e+002,0.000000e+000
4.686372e+002,0.000000e+000
4.705657e+002,0.000000e+000
4.724943e+002,0.000000e+000
4.744228e+002,0.000000e+000
4.763514e+002,0.000000e+000
4.782799e+002,0.000000e+000
4.802085e+002,0.000000e+000
4.821370e+002,0.000000e+000
4.840656e+002,0.000000e+000
4.859941e+002,0.000000e+000
4.879226e+002,0.000000e+000
4.898512e+002,0.000000e+000
4.917798e+002,0.000000e+000
4.937083e+002,0.000000e+000
4.956368e+002,0.000000e+000
4.975654e+002,0.000000e+000
4.994939e+002,0.000000e+000
5.014225e+002,0.000000e+000
5.033510e+002,0.000000e+000
5.052796e+002,0.000000e+000
5.072081e+002,0.000000e+000
5.091367e+002,0.000000e+000
5.110652e+002,0.000000e+000
5.129938e+002,0.000000e+000
5.149223e+002,0.000000e+000
5.168509e+002,0.000000e+000
5.187794e+002,0.000000e+000
5.207079e+002,0.000000e+000
5.226365e+002,0.000000e+000
5.245651e+002,0.000000e+000
5.264936e+002,0.000000e+000
5.284221e+002,0.000000e+000
5.303507e+002,0.000000e+000
5.322792e+002,0.000000e+000
5.342078e+002,0.000000e+000
5.361364e+002,0.000000e+000
5.380649e+002,0.000000e+000
5.399934e+002,0.000000e+000
5.419220e+002,0.000000e+000
5.438505e+002,0.000000e+000
5.457791e+002,0.000000e+000
5.477076e+002,0.000000e+000
5.496362e+002,0.000000e+000
5.515647e+002,0.000000e+000
5.534933e+002,0.000000e+000
5.554218e+002,0.000000e+000
5.573503e+002,0.000000e+000
5.592789e+002,0.000000e+000
5.612075e+002,0.000000e+000
5.631360e+002,0.000000e+000
5.650646e+002,0.000000e+000
5.669931e+002,0.000000e+000
5.689216e+002,0.000000e+000
5.708502e+002,0.000000e+000
5.727787e+002,0.000000e+000
5.747073e+002,0.000000e+000
5.766359e+002,0.000000e+000
5.785644e+002,0.000000e+000
5.804929e+002,0.000000e+000
5.824215e+002,0.000000e+000
5.843500e+002,0.000000e+000
5.862786e+002,0.000000e+000
5.882072e+002,0.000000e+000
5.901357e+002,0.000000e+000
5.920642e+002,0.000000e+000
5.939928e+002,0.000000e+000
5.959213e+002,0.000000e+000
5.978499e+002,0.000000e+000
5.997784e+002,0.000000e+000
6.017070e+002,0.000000e+000
6.036355e+002,0.000000e+000
6.055641e+002,0.000000e+000
6.074926e+002,0.000000e+000
6.094211e+002,0.000000e+000
6.113497e+002,0.000000e+000
6.132783e+002,0.000000e+000
6.152068e+002,0.000000e+000
6.171354e+002,0.000000e+000
6.190639e+002,0.000000e+000
6.209924e+002,0.000000e+000
6.229210e+002,0.000000e+000
6.248495e+002,0.000000e+000
6.267781e+002,0.000000e+000
6.287067e+002,0.000000e+000
6.306352e+002,0.000000e+000
6.325637e+002,0.000000e+000
6.344923e+002,0.000000e+000
6.364208e+002,0.000000e+000
6.383494e+002,0.000000e+000
6.402780e+002,0.000000e+000
6.422065e+002,0.000000e+000
6.441350e+002,0.000000e+000
6.460636e+002,0.000000e+000
6.479921e+002,0.000000e+000
6.499207e+002,0.000000e+000
6.518492e+002,0.000000e+000
6.537778e+002,0.000000e+000
6.557063e+002,0.000000e+000
6.576349e+002,0.000000e+000
6.595634e+002,0.000000e+000
6.614919e+002,0.000000e+000
6.634205e+002,0.000000e+000
6.653491e+002,0.000000e+000
6.672776e+002,0.000000e+000
6.692062e+002,0.000000e+000
6.711347e+002,0.000000e+000
6.730632e+002,0.000000e+000
6.749918e+002,3.520980e-002
6.769203e+002,3.783340e-002
6.788489e+002,3.977432e-002
6.807775e+002,4.053306e-002
6.827060e+002,4.084637e-002
6.846345e+002,4.082416e-002
6.865631e+002,4.132444e-002
6.884916e+002,4.288135e-002
6.904202e+002,4.515505e-002
6.923488e+002,4.785781e-002
6.942773e+002,5.165079e-002
6.962058e+002,5.692052e-002
6.981344e+002,6.388792e-002
7.000629e+002,7.245594e-002
7.019915e+002,8.163379e-002
7.039200e+002,9.067562e-002
7.058486e+002,9.970064e-002
7.077771e+002,1.100582e-001
7.097057e+002,1.226935e-001
7.116342e+002,1.380151e-001
7.135627e+002,1.591048e-001
7.154913e+002,1.907898e-001
7.174199e+002,2.385620e-001
7.193484e+002,3.003525e-001
7.212770e+002,3.562372e-001
7.232055e+002,3.911041e-001
7.251340e+002,3.894092e-001
7.270626e+002,3.451418e-001
7.289911e+002,2.826223e-001
7.309197e+002,2.243764e-001
7.328483e+002,1.732204e-001
7.347768e+002,1.279229e-001
7.367053e+002,8.881202e-002
7.386339e+002,5.766417e-002
7.405624e+002,3.516349e-002
7.424910e+002,2.152156e-002
7.444196e+002,1.437057e-002
7.463481e+002,1.056373e-002
7.482766e+002,8.278887e-003
7.502052e+002,7.005838e-003
7.521337e+002,6.388817e-003
7.540623e+002,6.237362e-003
7.559908e+002,6.111230e-003
7.579194e+002,5.852559e-003
7.598479e+002,6.015369e-003
7.617765e+002,6.672402e-003
7.637050e+002,7.301216e-003
7.656335e+002,8.106077e-003
7.675621e+002,9.097542e-003
7.694907e+002,9.662081e-003
7.714192e+002,1.026104e-002
7.733478e+002,1.128162e-002
7.752763e+002,1.234244e-002
7.772048e+002,1.323677e-002
7.791334e+002,1.412377e-002
7.810620e+002,1.525759e-002
7.829905e+002,1.641554e-002
7.849191e+002,1.811015e-002
7.868476e+002,2.071827e-002
7.887761e+002,2.402342e-002
7.907047e+002,2.771150e-002
7.926332e+002,3.020099e-002
7.945618e+002,2.899342e-002
7.964904e+002,2.440553e-002
7.984189e+002,2.034778e-002
8.003474e+002,1.900852e-002
8.022760e+002,1.909535e-002
8.042045e+002,1.956260e-002
8.061331e+002,1.984948e-002
8.080616e+002,2.008397e-002
8.099902e+002,2.039713e-002
8.119187e+002,2.059918e-002
8.138473e+002,2.087510e-002
8.157758e+002,2.109578e-002
8.177043e+002,2.126437e-002
8.196329e+002,2.169614e-002
8.215615e+002,2.203120e-002
8.234900e+002,2.261777e-002
8.254186e+002,2.364811e-002
8.273471e+002,2.482717e-002
8.292756e+002,2.620821e-002
8.312042e+002,2.785476e-002
8.331328e+002,2.998362e-002
8.350613e+002,3.243309e-002
8.369899e+002,3.517793e-002
8.389184e+002,3.842985e-002
8.408469e+002,4.178654e-002
8.427755e+002,4.528014e-002
8.447040e+002,4.892010e-002
8.466326e+002,5.142298e-002
8.485612e+002,5.188103e-002
8.504896e+002,5.013662e-002
8.524182e+002,4.764030e-002
8.543468e+002,4.563326e-002
8.562753e+002,4.451593e-002
8.582039e+002,4.385803e-002
8.601324e+002,4.386140e-002
8.620609e+002,4.511355e-002
8.639895e+002,4.860807e-002
8.659181e+002,5.585837e-002
8.678466e+002,6.956796e-002
8.697751e+002,9.158137e-002
8.717037e+002,1.116905e-001
8.736322e+002,1.094420e-001
8.755608e+002,9.015779e-002
8.774894e+002,7.236590e-002
8.794178e+002,5.869484e-002
8.813464e+002,4.743011e-002
8.832750e+002,3.868401e-002
8.852035e+002,3.264457e-002
8.871321e+002,2.897752e-002
8.890607e+002,2.703295e-002
8.909891e+002,2.601714e-002
8.929177e+002,2.565182e-002
8.948463e+002,2.559235e-002
8.967748e+002,2.558591e-002
8.987034e+002,2.539579e-002
9.006320e+002,2.479075e-002
9.025604e+002,2.350007e-002
9.044890e+002,2.158674e-002
9.064176e+002,1.962714e-002
9.083461e+002,1.796201e-002
9.102747e+002,1.649094e-002
9.122032e+002,1.535263e-002
9.141317e+002,1.452746e-002
9.160603e+002,1.409519e-002
9.179889e+002,1.393350e-002
9.199174e+002,1.396943e-002
9.218459e+002,1.420925e-002
9.237745e+002,1.457320e-002
9.257030e+002,1.487799e-002
9.276316e+002,1.520176e-002
9.295602e+002,1.563355e-002
9.314886e+002,1.612009e-002
9.334172e+002,1.655169e-002
9.353458e+002,1.695364e-002
9.372743e+002,1.730158e-002
9.392029e+002,1.761806e-002
9.411315e+002,1.808697e-002
9.430599e+002,1.870874e-002
9.449885e+002,1.937644e-002
9.469171e+002,2.018326e-002
9.488456e+002,2.096793e-002
9.507742e+002,2.197829e-002
9.527028e+002,2.332854e-002
9.546312e+002,2.499286e-002
9.565598e+002,2.704543e-002
9.584884e+002,2.950393e-002
9.604169e+002,3.242477e-002
9.623455e+002,3.587401e-002
9.642740e+002,3.974632e-002
9.662025e+002,4.386796e-002
9.681311e+002,4.799923e-002
9.700597e+002,5.144824e-002
9.719882e+002,5.295865e-002
9.739167e+002,5.204255e-002
9.758453e+002,4.922812e-002
9.777738e+002,4.547248e-002
9.797024e+002,4.174178e-002
9.816310e+002,3.851040e-002
9.835594e+002,3.595046e-002
9.854880e+002,3.413844e-002
9.874166e+002,3.312006e-002
9.893451e+002,3.256417e-002
9.912737e+002,3.200600e-002
9.932023e+002,3.180812e-002
9.951307e+002,3.226792e-002
9.970593e+002,3.320267e-002
9.989879e+002,3.462924e-002
1.000916e+003,3.652825e-002
1.002845e+003,3.891436e-002
1.004774e+003,4.227256e-002
1.006702e+003,4.747753e-002
1.008631e+003,5.574473e-002
1.010559e+003,6.950583e-002
1.012488e+003,9.370583e-002
1.014416e+003,1.315273e-001
1.016345e+003,1.704797e-001
1.018273e+003,1.848980e-001
1.020202e+003,1.685817e-001
1.022130e+003,1.386927e-001
1.024059e+003,1.064692e-001
1.025988e+003,7.730140e-002
1.027916e+003,5.865987e-002
1.029845e+003,5.099512e-002
1.031773e+003,4.946035e-002
1.033702e+003,5.035151e-002
1.035630e+003,5.221056e-002
1.037559e+003,5.451836e-002
1.039487e+003,5.663889e-002
1.041416e+003,5.834369e-002
1.043344e+003,5.936070e-002
1.045273e+003,5.936807e-002
1.047202e+003,5.842067e-002
1.049130e+003,5.698244e-002
1.051059e+003,5.551160e-002
1.052987e+003,5.437225e-002
1.054916e+003,5.381588e-002
1.056844e+003,5.406615e-002
1.058773e+003,5.521102e-002
1.060701e+003,5.735261e-002
1.062630e+003,6.050882e-002
1.064558e+003,6.475713e-002
1.066487e+003,7.004849e-002
1.068416e+003,7.649564e-002
1.070344e+003,8.462463e-002
1.072273e+003,9.508848e-002
1.074201e+003,1.083327e-001
1.076130e+003,1.246287e-001
1.078058e+003,1.439961e-001
1.079987e+003,1.655372e-001
1.081915e+003,1.879712e-001
1.083844e+003,2.103815e-001
1.085773e+003,2.326671e-001
1.087701e+003,2.557782e-001
1.089630e+003,2.804306e-001
1.091558e+003,3.061838e-001
1.093487e+003,3.312035e-001
1.095415e+003,3.521112e-001
1.097344e+003,3.655559e-001
1.099272e+003,3.689611e-001
1.101201e+003,3.618801e-001
1.103129e+003,3.459807e-001
1.105058e+003,3.237244e-001
1.106987e+003,2.986847e-001
1.108915e+003,2.764002e-001
1.110844e+003,2.619382e-001
1.112772e+003,2.568874e-001
1.114701e+003,2.595647e-001
1.116629e+003,2.654158e-001
1.118558e+003,2.684292e-001
1.120486e+003,2.650614e-001
1.122415e+003,2.550452e-001
1.124344e+003,2.399234e-001
1.126272e+003,2.213852e-001
1.128201e+003,2.003172e-001
1.130129e+003,1.774846e-001
1.132058e+003,1.542241e-001
1.133986e+003,1.322628e-001
1.135915e+003,1.129372e-001
1.137843e+003,9.676892e-002
1.139772e+003,8.356621e-002
1.141700e+003,7.255214e-002
1.143629e+003,6.301979e-002
1.145557e+003,5.478249e-002
1.147486e+003,4.782948e-002
1.149415e+003,4.202600e-002
1.151343e+003,3.705774e-002
1.153272e+003,3.284033e-002
1.155200e+003,2.944195e-002
1.157129e+003,2.694565e-002
1.159057e+003,2.527085e-002
1.160986e+003,2.399572e-002
1.162914e+003,2.317040e-002
1.164843e+003,2.307297e-002
1.166771e+003,2.406877e-002
1.168700e+003,2.634151e-002
1.170629e+003,2.936590e-002
1.172557e+003,3.179967e-002
1.174486e+003,3.267179e-002
1.176414e+003,3.198428e-002
1.178343e+003,3.014807e-002
1.180271e+003,2.768388e-002
1.182200e+003,2.533305e-002
1.184128e+003,2.368289e-002
1.186057e+003,2.297043e-002
1.187986e+003,2.308454e-002
1.189914e+003,2.400444e-002
1.191843e+003,2.566173e-002
1.193771e+003,2.789872e-002
1.195700e+003,3.043837e-002
1.197628e+003,3.319699e-002
1.199557e+003,3.625698e-002
1.201485e+003,3.963120e-002
1.203414e+003,4.335962e-002
1.205343e+003,4.755556e-002
1.207271e+003,5.226138e-002
1.209200e+003,5.753766e-002
1.211128e+003,6.348142e-002
1.213057e+003,7.043550e-002
1.214985e+003,7.869837e-002
1.216914e+003,8.844960e-002
1.218842e+003,9.968864e-002
1.220771e+003,1.121813e-001
1.222699e+003,1.256892e-001
1.224628e+003,1.406646e-001
1.226557e+003,1.580764e-001
1.228485e+003,1.790615e-001
1.230414e+003,2.050234e-001
1.232342e+003,2.373705e-001
1.234271e+003,2.767039e-001
1.236199e+003,3.219404e-001
1.238128e+003,3.695532e-001
1.240056e+003,4.137349e-001
1.241985e+003,4.481453e-001
1.243913e+003,4.679217e-001
1.245842e+003,4.715366e-001
1.247771e+003,4.620119e-001
1.249699e+003,4.441895e-001
1.251628e+003,4.227825e-001
1.253556e+003,4.020954e-001
1.255485e+003,3.853893e-001
1.257413e+003,3.729244e-001
1.259342e+003,3.617797e-001
1.261270e+003,3.477448e-001
1.263199e+003,3.283443e-001
1.265127e+003,3.040498e-001
1.267056e+003,2.772970e-001
1.268985e+003,2.506858e-001
1.270913e+003,2.261297e-001
1.272842e+003,2.047709e-001
1.274770e+003,1.869898e-001
1.276699e+003,1.724652e-001
1.278627e+003,1.606356e-001
1.280556e+003,1.506599e-001
1.282484e+003,1.417655e-001
1.284413e+003,1.334270e-001
1.286342e+003,1.252922e-001
1.288270e+003,1.169867e-001
1.290199e+003,1.083655e-001
1.292127e+003,9.932265e-002
1.294056e+003,8.998778e-002
1.295984e+003,8.052667e-002
1.297913e+003,7.124192e-002
1.299841e+003,6.268457e-002
1.301770e+003,5.541967e-002
1.303698e+003,4.975289e-002
1.305627e+003,4.520634e-002
1.307556e+003,4.096473e-002
1.309484e+003,3.681744e-002
1.311413e+003,3.283722e-002
1.313341e+003,2.920271e-002
1.315270e+003,2.606534e-002
1.317198e+003,2.350014e-002
1.319127e+003,2.124370e-002
1.321055e+003,1.927071e-002
1.322984e+003,1.774761e-002
1.324912e+003,1.686944e-002
1.326841e+003,1.737024e-002
1.328770e+003,2.038671e-002
1.330698e+003,2.756333e-002
1.332627e+003,4.059396e-002
1.334555e+003,5.931595e-002
1.336484e+003,7.988318e-002
1.338412e+003,9.470414e-002
1.340341e+003,9.659121e-002
1.342269e+003,8.424733e-002
1.344198e+003,6.427417e-002
1.346126e+003,4.544953e-002
1.348055e+003,3.178206e-002
1.349984e+003,2.286358e-002
1.351912e+003,1.721997e-002
1.353841e+003,1.372177e-002
1.355769e+003,1.163808e-002
1.357698e+003,1.061514e-002
1.359626e+003,1.039650e-002
1.361555e+003,1.103793e-002
1.363483e+003,1.272533e-002
1.365412e+003,1.528162e-002
1.367341e+003,1.798287e-002
1.369269e+003,1.988399e-002
1.371198e+003,2.049257e-002
1.373126e+003,2.000850e-002
1.375055e+003,1.914303e-002
1.376983e+003,1.819099e-002
1.378912e+003,1.725631e-002
1.380840e+003,1.648017e-002
1.382769e+003,1.588230e-002
1.384698e+003,1.537707e-002
1.386626e+003,1.495370e-002
1.388555e+003,1.469115e-002
1.390483e+003,1.479999e-002
1.392412e+003,1.558319e-002
1.394340e+003,1.716310e-002
1.396269e+003,1.958253e-002
1.398197e+003,2.327795e-002
1.400126e+003,2.891568e-002
1.402054e+003,3.709126e-002
1.403983e+003,4.870639e-002
1.405911e+003,6.308637e-002
1.407840e+003,7.481946e-002
1.409769e+003,7.629676e-002
1.411697e+003,6.499247e-002
1.413626e+003,4.695004e-002
1.415554e+003,3.016593e-002
1.417483e+003,1.829241e-002
1.419411e+003,1.096881e-002
1.421340e+003,6.748889e-003
1.423268e+003,4.377356e-003
1.425197e+003,3.266380e-003
1.427125e+003,3.111405e-003
1.429054e+003,3.644153e-003
1.430983e+003,4.822899e-003
1.432911e+003,6.568580e-003
1.434840e+003,8.462475e-003
1.436768e+003,1.020429e-002
1.438697e+003,1.155107e-002
1.440625e+003,1.243828e-002
1.442554e+003,1.306754e-002
1.444482e+003,1.367109e-002
1.446411e+003,1.432615e-002
1.448340e+003,1.522142e-002
1.450268e+003,1.633482e-002
1.452197e+003,1.734744e-002
1.454125e+003,1.801533e-002
1.456054e+003,1.816218e-002
1.457982e+003,1.767858e-002
1.459911e+003,1.675169e-002
1.461839e+003,1.572637e-002
1.463768e+003,1.486684e-002
1.465697e+003,1.446236e-002
1.467625e+003,1.488155e-002
1.469554e+003,1.610221e-002
1.471482e+003,1.690152e-002
1.473411e+003,1.579701e-002
1.475339e+003,1.335980e-002
1.477268e+003,1.077587e-002
1.479196e+003,8.305567e-003
1.481125e+003,5.894070e-003
1.483053e+003,3.565672e-003
1.484982e+003,1.464872e-003
1.486911e+003,-2.333666e-004
1.488839e+003,-1.497724e-003
1.490768e+003,-2.282790e-003
1.492696e+003,-2.602618e-003
1.494625e+003,-2.360174e-003
1.496553e+003,-1.351322e-003
1.498482e+003,8.010911e-004
1.500410e+003,4.973459e-003
1.502339e+003,1.172501e-002
1.504267e+003,1.800249e-002
1.506196e+003,1.792492e-002
1.508125e+003,1.117013e-002
1.510053e+003,4.286797e-003
1.511982e+003,3.893006e-004
1.513910e+003,-1.358390e-003
1.515839e+003,-2.000063e-003
1.517767e+003,-2.172590e-003
1.519696e+003,-2.095271e-003
1.521624e+003,-1.855480e-003
1.523553e+003,-1.648533e-003
1.525481e+003,-1.483822e-003
1.527410e+003,-1.426395e-003
1.529339e+003,-1.580530e-003
1.531267e+003,-1.800576e-003
1.533196e+003,-1.941187e-003
1.535124e+003,-1.997227e-003
1.537053e+003,-1.879432e-003
1.538981e+003,-1.651504e-003
1.540910e+003,-1.475534e-003
1.542838e+003,-1.429433e-003
1.544767e+003,-1.441586e-003
1.546696e+003,-1.407966e-003
1.548624e+003,-1.260278e-003
1.550553e+003,-1.092347e-003
1.552481e+003,-9.414435e-004
1.554410e+003,-8.129444e-004
1.556338e+003,-6.618780e-004
1.558267e+003,-4.672036e-004
1.560195e+003,-3.175730e-004
1.562124e+003,-1.279448e-004
1.564052e+003,2.366746e-004
1.565981e+003,6.964392e-004
1.567910e+003,1.355107e-003
1.569838e+003,2.426379e-003
1.571767e+003,3.834750e-003
1.573695e+003,5.655166e-003
1.575624e+003,7.783468e-003
1.577552e+003,9.271355e-003
1.579481e+003,9.108200e-003
1.581409e+003,7.393518e-003
1.583338e+003,5.146937e-003
1.585266e+003,3.384242e-003
1.587195e+003,2.265541e-003
1.589124e+003,1.647331e-003
1.591052e+003,1.366009e-003
1.592981e+003,1.235535e-003
1.594909e+003,1.182107e-003
1.596838e+003,1.281193e-003
1.598766e+003,1.625114e-003
1.600695e+003,2.086118e-003
1.602623e+003,2.640677e-003
1.604552e+003,3.408319e-003
1.606480e+003,4.353125e-003
1.608409e+003,5.382778e-003
1.610338e+003,6.305334e-003
1.612266e+003,7.006242e-003
1.614195e+003,7.290736e-003
1.616123e+003,6.922741e-003
1.618052e+003,6.274809e-003
1.619980e+003,5.841544e-003
1.621909e+003,5.704917e-003
1.623837e+003,5.784323e-003
1.625766e+003,6.006231e-003
1.627695e+003,6.389658e-003
1.629623e+003,6.856221e-003
1.631552e+003,7.248215e-003
1.633480e+003,7.629368e-003
1.635409e+003,8.127211e-003
1.637337e+003,8.635392e-003
1.639266e+003,9.168060e-003
1.641194e+003,9.675700e-003
1.643123e+003,1.003000e-002
1.645052e+003,1.055959e-002
1.646980e+003,1.131604e-002
1.648909e+003,1.200778e-002
1.650837e+003,1.265167e-002
1.652766e+003,1.342421e-002
1.654694e+003,1.432642e-002
1.656623e+003,1.518985e-002
1.658551e+003,1.618756e-002
1.660480e+003,1.753315e-002
1.662408e+003,1.911962e-002
1.664337e+003,2.079932e-002
1.666266e+003,2.256598e-002
1.668194e+003,2.450070e-002
1.670123e+003,2.643165e-002
1.672051e+003,2.822513e-002
1.673980e+003,3.012200e-002
1.675908e+003,3.229669e-002
1.677837e+003,3.470036e-002
1.679765e+003,3.729105e-002
1.681694e+003,3.992358e-002
1.683622e+003,4.223560e-002
1.685551e+003,4.417649e-002
1.687479e+003,4.608129e-002
1.689408e+003,4.857090e-002
1.691337e+003,5.193914e-002
1.693265e+003,5.645188e-002
1.695194e+003,6.264357e-002
1.697122e+003,7.087334e-002
1.699051e+003,8.140466e-002
1.700979e+003,9.606596e-002
1.702908e+003,1.155978e-001
1.704836e+003,1.424823e-001
1.706765e+003,1.801999e-001
1.708694e+003,2.312803e-001
1.710622e+003,2.953132e-001
1.712551e+003,3.632571e-001
1.714479e+003,4.130720e-001
1.716408e+003,4.250736e-001
1.718336e+003,4.014518e-001
1.720265e+003,3.633823e-001
1.722193e+003,3.232000e-001
1.724122e+003,2.851050e-001
1.726051e+003,2.497609e-001
1.727979e+003,2.175115e-001
1.729908e+003,1.880605e-001
1.731836e+003,1.617195e-001
1.733765e+003,1.374783e-001
1.735693e+003,1.153748e-001
1.737622e+003,9.562218e-002
1.739550e+003,7.724950e-002
1.741479e+003,6.048444e-002
1.743407e+003,4.597129e-002
1.745336e+003,3.410443e-002
1.747265e+003,2.511288e-002
1.749193e+003,1.852817e-002
1.751122e+003,1.382269e-002
1.753050e+003,1.040196e-002
1.754979e+003,7.870205e-003
1.756907e+003,5.989871e-003
1.758836e+003,4.508745e-003
1.760764e+003,3.284875e-003
1.762693e+003,2.287724e-003
1.764621e+003,1.469227e-003
1.766550e+003,7.918961e-004
1.768479e+003,2.823938e-004
1.770407e+003,-2.179010e-004
1.772336e+003,-6.283630e-004
1.774264e+003,-8.969394e-004
1.776193e+003,-1.145588e-003
1.778121e+003,-1.484978e-003
1.780050e+003,-1.800675e-003
1.781978e+003,-2.023710e-003
1.783907e+003,-2.215513e-003
1.785835e+003,-2.325505e-003
1.787764e+003,-2.386734e-003
1.789693e+003,-2.530746e-003
1.791621e+003,-2.677805e-003
1.793550e+003,-2.791729e-003
1.795478e+003,-2.870405e-003
1.797407e+003,-2.891799e-003
1.799335e+003,-2.973452e-003
1.801264e+003,-3.115624e-003
1.803192e+003,-3.116808e-003
1.805121e+003,-3.083120e-003
1.807049e+003,-3.146414e-003
1.808978e+003,-3.160526e-003
1.810907e+003,-3.239267e-003
1.812835e+003,-3.349854e-003
1.814764e+003,-3.390162e-003
1.816692e+003,-3.404694e-003
1.818621e+003,-3.387138e-003
1.820549e+003,-3.409954e-003
1.822478e+003,-3.530391e-003
1.824406e+003,-3.664199e-003
1.826335e+003,-3.774186e-003
1.828264e+003,-3.901353e-003
1.830192e+003,-4.049196e-003
1.832121e+003,-4.258021e-003
1.834049e+003,-4.474550e-003
1.835978e+003,-4.667372e-003
1.837906e+003,-4.835041e-003
1.839835e+003,-5.015027e-003
1.841763e+003,-5.178142e-003
1.843692e+003,-5.304113e-003
1.845620e+003,-5.462734e-003
1.847549e+003,-5.667349e-003
1.849478e+003,-5.858922e-003
1.851406e+003,-6.031491e-003
1.853335e+003,-6.136601e-003
1.855263e+003,-6.257068e-003
1.857192e+003,-6.432483e-003
1.859120e+003,-6.541248e-003
1.861049e+003,-6.507107e-003
1.862977e+003,-6.516671e-003
1.864906e+003,-6.606129e-003
1.866834e+003,-6.683791e-003
1.868763e+003,-6.714199e-003
1.870692e+003,-6.736123e-003
1.872620e+003,-6.703498e-003
1.874549e+003,-6.730185e-003
1.876477e+003,-6.746693e-003
1.878406e+003,-6.675993e-003
1.880334e+003,-6.688065e-003
1.882263e+003,-6.725846e-003
1.884191e+003,-6.759775e-003
1.886120e+003,-6.734035e-003
1.888048e+003,-6.668390e-003
1.889977e+003,-6.621075e-003
1.891906e+003,-6.553292e-003
1.893834e+003,-6.506226e-003
1.895763e+003,-6.516899e-003
1.897691e+003,-6.546373e-003
1.899620e+003,-6.457457e-003
1.901548e+003,-6.357290e-003
1.903477e+003,-6.289172e-003
1.905405e+003,-6.243350e-003
1.907334e+003,-6.240183e-003
1.909263e+003,-6.189130e-003
1.911191e+003,-6.070441e-003
1.913120e+003,-6.023518e-003
1.915048e+003,-5.957504e-003
1.916977e+003,-5.840387e-003
1.918905e+003,-5.780263e-003
1.920834e+003,-5.759370e-003
1.922762e+003,-5.678861e-003
1.924691e+003,-5.557416e-003
1.926620e+003,-5.433646e-003
1.928548e+003,-5.331737e-003
1.930477e+003,-5.219787e-003
1.932405e+003,-5.044799e-003
1.934334e+003,-4.905682e-003
1.936262e+003,-4.774712e-003
1.938191e+003,-4.621346e-003
1.940119e+003,-4.383996e-003
1.942048e+003,-4.140936e-003
1.943976e+003,-3.954415e-003
1.945905e+003,-3.777110e-003
1.947833e+003,-3.616753e-003
1.949762e+003,-3.506694e-003
1.951691e+003,-3.360014e-003
1.953619e+003,-3.260249e-003
1.955548e+003,-3.227361e-003
1.957476e+003,-3.230847e-003
1.959405e+003,-3.322465e-003
1.961333e+003,-3.428791e-003
1.963262e+003,-3.561185e-003
1.965190e+003,-3.753459e-003
1.967119e+003,-3.978777e-003
1.969047e+003,-4.213494e-003
1.970976e+003,-4.390097e-003
1.972905e+003,-4.509967e-003
1.974833e+003,-4.636099e-003
1.976762e+003,-4.722996e-003
1.978690e+003,-4.809089e-003
1.980619e+003,-4.878292e-003
1.982547e+003,-4.958654e-003
1.984476e+003,-4.997929e-003
1.986404e+003,-5.001205e-003
1.988333e+003,-4.988823e-003
1.990262e+003,-5.038445e-003
1.992190e+003,-5.098901e-003
1.994119e+003,-5.133579e-003
1.996047e+003,-5.242605e-003
1.997976e+003,-5.330984e-003
1.999904e+003,-5.384789e-003
2.001833e+003,-5.419739e-003
2.003761e+003,-5.456060e-003
2.005690e+003,-5.510045e-003
2.007619e+003,-5.554929e-003
2.009547e+003,-5.581033e-003
2.011476e+003,-5.581197e-003
2.013404e+003,-5.594281e-003
2.015333e+003,-5.662738e-003
2.017261e+003,-5.790791e-003
2.019190e+003,-5.832083e-003
2.021118e+003,-5.862453e-003
2.023047e+003,-5.861047e-003
2.024975e+003,-5.868958e-003
2.026904e+003,-5.962308e-003
2.028833e+003,-6.056619e-003
2.030761e+003,-6.111902e-003
2.032690e+003,-6.103832e-003
2.034618e+003,-6.127029e-003
2.036547e+003,-6.201804e-003
2.038475e+003,-6.224145e-003
2.040404e+003,-6.137026e-003
2.042332e+003,-6.010349e-003
2.044261e+003,-5.925278e-003
2.046189e+003,-5.882687e-003
2.048118e+003,-5.868860e-003
2.050046e+003,-5.779773e-003
2.051975e+003,-5.667349e-003
2.053904e+003,-5.621463e-003
2.055832e+003,-5.569846e-003
2.057761e+003,-5.458088e-003
2.059689e+003,-5.332981e-003
2.061618e+003,-5.290365e-003
2.063546e+003,-5.300446e-003
2.065475e+003,-5.224076e-003
2.067403e+003,-5.101750e-003
2.069332e+003,-5.039264e-003
2.071260e+003,-5.001958e-003
2.073189e+003,-4.972642e-003
2.075118e+003,-4.929794e-003
2.077046e+003,-4.875474e-003
2.078975e+003,-4.831240e-003
2.080903e+003,-4.781988e-003
2.082832e+003,-4.769207e-003
2.084760e+003,-4.750657e-003
2.086689e+003,-4.676452e-003
2.088617e+003,-4.570661e-003
2.090546e+003,-4.523707e-003
2.092475e+003,-4.529543e-003
2.094403e+003,-4.544430e-003
2.096332e+003,-4.544561e-003
2.098260e+003,-4.497867e-003
2.100189e+003,-4.446018e-003
2.102117e+003,-4.445199e-003
2.104046e+003,-4.400823e-003
2.105974e+003,-4.422077e-003
2.107903e+003,-4.481765e-003
2.109832e+003,-4.436934e-003
2.111760e+003,-4.399773e-003
2.113688e+003,-4.380585e-003
2.115617e+003,-4.362576e-003
2.117546e+003,-4.408465e-003
2.119474e+003,-4.458415e-003
2.121403e+003,-4.477076e-003
2.123331e+003,-4.524264e-003
2.125260e+003,-4.563251e-003
2.127188e+003,-4.580660e-003
2.129117e+003,-4.617249e-003
2.131045e+003,-4.676288e-003
2.132974e+003,-4.767765e-003
2.134903e+003,-4.774319e-003
2.136831e+003,-4.711590e-003
2.138760e+003,-4.740530e-003
2.140688e+003,-4.779137e-003
2.142617e+003,-4.837302e-003
2.144545e+003,-4.928680e-003
2.146474e+003,-4.968711e-003
2.148402e+003,-4.990199e-003
2.150331e+003,-5.009655e-003
2.152260e+003,-5.079645e-003
2.154188e+003,-5.203581e-003
2.156117e+003,-5.304276e-003
2.158045e+003,-5.334454e-003
2.159974e+003,-5.398533e-003
2.161902e+003,-5.421146e-003
2.163831e+003,-5.433384e-003
2.165759e+003,-5.501866e-003
2.167688e+003,-5.597651e-003
2.169616e+003,-5.676408e-003
2.171545e+003,-5.679711e-003
2.173474e+003,-5.668363e-003
2.175402e+003,-5.696978e-003
2.177331e+003,-5.726279e-003
2.179259e+003,-5.751097e-003
2.181188e+003,-5.774901e-003
2.183116e+003,-5.832769e-003
2.185045e+003,-5.834535e-003
2.186973e+003,-5.781178e-003
2.188902e+003,-5.769343e-003
2.190831e+003,-5.825283e-003
2.192759e+003,-5.821654e-003
2.194688e+003,-5.748907e-003
2.196616e+003,-5.727783e-003
2.198545e+003,-5.741549e-003
2.200473e+003,-5.715389e-003
2.202402e+003,-5.650342e-003
2.204330e+003,-5.597389e-003
2.206259e+003,-5.591043e-003
2.208188e+003,-5.550022e-003
2.210116e+003,-5.520678e-003
2.212044e+003,-5.484886e-003
2.213973e+003,-5.454522e-003
2.215902e+003,-5.432893e-003
2.217830e+003,-5.382073e-003
2.219759e+003,-5.313834e-003
2.221687e+003,-5.268957e-003
2.223616e+003,-5.218216e-003
2.225544e+003,-5.187801e-003
2.227473e+003,-5.160036e-003
2.229401e+003,-5.081479e-003
2.231330e+003,-5.057146e-003
2.233259e+003,-5.084361e-003
2.235187e+003,-5.105549e-003
2.237116e+003,-5.079056e-003
2.239044e+003,-5.052266e-003
2.240973e+003,-5.045519e-003
2.242901e+003,-5.006871e-003
2.244830e+003,-4.957180e-003
2.246758e+003,-4.919507e-003
2.248687e+003,-4.894313e-003
2.250615e+003,-4.844609e-003
2.252544e+003,-4.840939e-003
2.254473e+003,-4.767929e-003
2.256401e+003,-4.593742e-003
2.258330e+003,-4.517149e-003
2.260258e+003,-4.520624e-003
2.262187e+003,-4.512984e-003
2.264115e+003,-4.469697e-003
2.266044e+003,-4.373499e-003
2.267972e+003,-4.262122e-003
2.269901e+003,-4.245257e-003
2.271830e+003,-4.270555e-003
2.273758e+003,-4.173919e-003
2.275687e+003,-4.068169e-003
2.277615e+003,-4.028416e-003
2.279544e+003,-3.931562e-003
2.281472e+003,-3.834293e-003
2.283401e+003,-3.816525e-003
2.285329e+003,-3.808379e-003
2.287258e+003,-3.839613e-003
2.289187e+003,-3.798066e-003
2.291115e+003,-3.740057e-003
2.293043e+003,-3.769883e-003
2.294972e+003,-3.838398e-003
2.296901e+003,-3.897248e-003
2.298829e+003,-3.895245e-003
2.300758e+003,-3.855279e-003
2.302686e+003,-3.866412e-003
2.304615e+003,-3.918592e-003
2.306543e+003,-3.991089e-003
2.308472e+003,-4.044830e-003
2.310400e+003,-4.019913e-003
2.312329e+003,-3.941741e-003
2.314258e+003,-3.916392e-003
2.316186e+003,-3.915046e-003
2.318115e+003,-3.874064e-003
2.320043e+003,-3.841321e-003
2.321972e+003,-3.887462e-003
2.323900e+003,-3.871601e-003
2.325829e+003,-3.769883e-003
2.327757e+003,-3.730661e-003
2.329686e+003,-3.746331e-003
2.331615e+003,-3.757105e-003
2.333543e+003,-3.744721e-003
2.335472e+003,-3.694229e-003
2.337400e+003,-3.673826e-003
2.339329e+003,-3.676882e-003
2.341257e+003,-3.696233e-003
2.343186e+003,-3.769982e-003
2.345114e+003,-3.766336e-003
2.347043e+003,-3.608473e-003
2.348971e+003,-3.550405e-003
2.350900e+003,-3.609820e-003
2.352829e+003,-3.616129e-003
2.354757e+003,-3.603971e-003
2.356686e+003,-3.570551e-003
2.358614e+003,-3.469420e-003
2.360543e+003,-3.428232e-003
2.362471e+003,-3.416463e-003
2.364400e+003,-3.361855e-003
2.366328e+003,-3.323846e-003
2.368257e+003,-3.368431e-003
2.370186e+003,-3.356364e-003
2.372114e+003,-3.257914e-003
2.374042e+003,-3.211147e-003
2.375971e+003,-3.215159e-003
2.377900e+003,-3.207825e-003
2.379828e+003,-3.109307e-003
2.381757e+003,-3.007675e-003
2.383685e+003,-3.020244e-003
2.385614e+003,-3.083284e-003
2.387542e+003,-3.100918e-003
2.389471e+003,-3.143717e-003
2.391399e+003,-3.194109e-003
2.393328e+003,-3.153191e-003
2.395257e+003,-3.123420e-003
2.397185e+003,-3.173749e-003
2.399114e+003,-3.222000e-003
2.401042e+003,-3.245088e-003
2.402971e+003,-3.255151e-003
2.404899e+003,-3.279454e-003
2.406828e+003,-3.345021e-003
2.408756e+003,-3.403280e-003
2.410685e+003,-3.403313e-003
2.412614e+003,-3.484212e-003
2.414542e+003,-3.591845e-003
2.416471e+003,-3.589709e-003
2.418399e+003,-3.611102e-003
2.420328e+003,-3.679543e-003
2.422256e+003,-3.720806e-003
2.424185e+003,-3.749189e-003
2.426113e+003,-3.815703e-003
2.428042e+003,-3.902995e-003
2.429970e+003,-3.924700e-003
2.431899e+003,-3.897346e-003
2.433828e+003,-3.923255e-003
2.435756e+003,-3.982881e-003
2.437685e+003,-4.091966e-003
2.439613e+003,-4.207456e-003
2.441542e+003,-4.230951e-003
2.443470e+003,-4.249457e-003
2.445399e+003,-4.300968e-003
2.447327e+003,-4.343878e-003
2.449256e+003,-4.385964e-003
2.451185e+003,-4.431555e-003
2.453113e+003,-4.461958e-003
2.455042e+003,-4.496490e-003
2.456970e+003,-4.563414e-003
2.458899e+003,-4.620068e-003
2.460827e+003,-4.659996e-003
2.462756e+003,-4.686121e-003
2.464684e+003,-4.680188e-003
2.466613e+003,-4.643835e-003
2.468542e+003,-4.656325e-003
2.470470e+003,-4.678025e-003
2.472398e+003,-4.693857e-003
2.474327e+003,-4.734631e-003
2.476256e+003,-4.744824e-003
2.478184e+003,-4.756491e-003
2.480113e+003,-4.787887e-003
2.482041e+003,-4.786805e-003
2.483970e+003,-4.727191e-003
2.485898e+003,-4.662422e-003
2.487827e+003,-4.605413e-003
2.489755e+003,-4.545479e-003
2.491684e+003,-4.556234e-003
2.493613e+003,-4.530265e-003
2.495541e+003,-4.522100e-003
2.497470e+003,-4.568726e-003
2.499398e+003,-4.552233e-003
2.501327e+003,-4.453857e-003
2.503255e+003,-4.343714e-003
2.505184e+003,-4.223470e-003
2.507112e+003,-4.139886e-003
2.509041e+003,-4.120949e-003
2.510969e+003,-4.091474e-003
2.512898e+003,-3.972834e-003
2.514827e+003,-3.904078e-003
2.516755e+003,-3.930643e-003
2.518684e+003,-3.916490e-003
2.520612e+003,-3.807295e-003
2.522541e+003,-3.734308e-003
2.524469e+003,-3.706220e-003
2.526398e+003,-3.690943e-003
2.528326e+003,-3.664857e-003
2.530255e+003,-3.646490e-003
2.532184e+003,-3.641430e-003
2.534112e+003,-3.645044e-003
2.536041e+003,-3.635286e-003
2.537969e+003,-3.629831e-003
2.539898e+003,-3.619875e-003
2.541826e+003,-3.634924e-003
2.543755e+003,-3.582973e-003
2.545683e+003,-3.521188e-003
2.547612e+003,-3.493810e-003
2.549541e+003,-3.427936e-003
2.551469e+003,-3.385198e-003
2.553397e+003,-3.401570e-003
2.555326e+003,-3.396475e-003
2.557255e+003,-3.380365e-003
2.559183e+003,-3.385659e-003
2.561112e+003,-3.369680e-003
2.563040e+003,-3.249659e-003
2.564969e+003,-3.189176e-003
2.566897e+003,-3.195195e-003
2.568826e+003,-3.189998e-003
2.570754e+003,-3.215488e-003
2.572683e+003,-3.159309e-003
2.574612e+003,-3.084206e-003
2.576540e+003,-3.097201e-003
2.578469e+003,-3.078646e-003
2.580397e+003,-3.017875e-003
2.582326e+003,-2.975459e-003
2.584254e+003,-2.941135e-003
2.586183e+003,-2.960815e-003
2.588111e+003,-3.030083e-003
2.590040e+003,-3.033011e-003
2.591969e+003,-2.959433e-003
2.593897e+003,-2.919150e-003
2.595826e+003,-2.902957e-003
2.597754e+003,-2.878996e-003
2.599683e+003,-2.809506e-003
2.601611e+003,-2.786099e-003
2.603540e+003,-2.769440e-003
2.605468e+003,-2.758082e-003
2.607397e+003,-2.757719e-003
2.609325e+003,-2.705860e-003
2.611254e+003,-2.706815e-003
2.613183e+003,-2.736977e-003
2.615111e+003,-2.755448e-003
2.617040e+003,-2.734573e-003
2.618968e+003,-2.688145e-003
2.620897e+003,-2.633610e-003
2.622825e+003,-2.594285e-003
2.624754e+003,-2.544383e-003
2.626682e+003,-2.571394e-003
2.628611e+003,-2.599325e-003
2.630540e+003,-2.556044e-003
2.632468e+003,-2.474214e-003
2.634396e+003,-2.431218e-003
2.636325e+003,-2.461102e-003
2.638254e+003,-2.581736e-003
2.640182e+003,-2.615858e-003
2.642111e+003,-2.601037e-003
2.644039e+003,-2.640723e-003
2.645968e+003,-2.637628e-003
2.647896e+003,-2.563159e-003
2.649825e+003,-2.508806e-003
2.651753e+003,-2.526266e-003
2.653682e+003,-2.534435e-003
2.655611e+003,-2.577520e-003
2.657539e+003,-2.679188e-003
2.659468e+003,-2.771185e-003
2.661396e+003,-2.849108e-003
2.663325e+003,-2.907137e-003
2.665253e+003,-2.975920e-003
2.667182e+003,-3.054496e-003
2.669110e+003,-3.162862e-003
2.671039e+003,-3.267878e-003
2.672968e+003,-3.310594e-003
2.674896e+003,-3.291424e-003
2.676825e+003,-3.319012e-003
2.678753e+003,-3.412321e-003
2.680682e+003,-3.453412e-003
2.682610e+003,-3.416101e-003
2.684539e+003,-3.367116e-003
2.686467e+003,-3.228019e-003
2.688396e+003,-3.060353e-003
2.690324e+003,-2.977828e-003
2.692253e+003,-2.886928e-003
2.694182e+003,-2.788206e-003
2.696110e+003,-2.711985e-003
2.698039e+003,-2.685543e-003
2.699967e+003,-2.650801e-003
2.701896e+003,-2.576861e-003
2.703824e+003,-2.530318e-003
2.705753e+003,-2.481001e-003
2.707681e+003,-2.414546e-003
2.709610e+003,-2.397543e-003
2.711539e+003,-2.369401e-003
2.713467e+003,-2.416193e-003
2.715396e+003,-2.421498e-003
2.717324e+003,-2.416621e-003
2.719253e+003,-2.359086e-003
2.721181e+003,-2.247191e-003
2.723110e+003,-2.180601e-003
2.725038e+003,-2.155182e-003
2.726967e+003,-2.160028e-003
2.728896e+003,-2.233116e-003
2.730824e+003,-2.237335e-003
2.732752e+003,-2.154357e-003
2.734681e+003,-2.159204e-003
2.736610e+003,-2.250290e-003
2.738538e+003,-2.294425e-003
2.740467e+003,-2.219337e-003
2.742395e+003,-2.191975e-003
2.744324e+003,-2.233083e-003
2.746252e+003,-2.227973e-003
2.748181e+003,-2.199392e-003
2.750109e+003,-2.153896e-003
2.752038e+003,-2.156435e-003
2.753967e+003,-2.166985e-003
2.755895e+003,-2.122474e-003
2.757824e+003,-2.069089e-003
2.759752e+003,-2.039310e-003
2.761681e+003,-2.072155e-003
2.763609e+003,-2.143741e-003
2.765538e+003,-2.142323e-003
2.767466e+003,-2.098305e-003
2.769395e+003,-2.149676e-003
2.771323e+003,-2.169062e-003
2.773252e+003,-2.140444e-003
2.775181e+003,-2.089105e-003
2.777109e+003,-1.985221e-003
2.779038e+003,-1.955403e-003
2.780966e+003,-1.910211e-003
2.782895e+003,-1.858251e-003
2.784823e+003,-1.861155e-003
2.786752e+003,-1.858416e-003
2.788680e+003,-1.868050e-003
2.790609e+003,-1.889791e-003
2.792538e+003,-1.838752e-003
2.794466e+003,-1.873263e-003
2.796395e+003,-1.863464e-003
2.798323e+003,-1.752563e-003
2.800252e+003,-1.675995e-003
2.802180e+003,-1.659690e-003
2.804109e+003,-1.712037e-003
2.806037e+003,-1.813148e-003
2.807966e+003,-1.899754e-003
2.809895e+003,-1.895795e-003
2.811823e+003,-1.888867e-003
2.813751e+003,-1.961539e-003
2.815680e+003,-2.093161e-003
2.817609e+003,-2.177403e-003
2.819537e+003,-2.059426e-003
2.821466e+003,-1.904504e-003
2.823394e+003,-1.801764e-003
2.825323e+003,-1.713984e-003
2.827251e+003,-1.576634e-003
2.829180e+003,-1.385441e-003
2.831108e+003,-1.220862e-003
2.833037e+003,-1.069177e-003
2.834966e+003,-8.307699e-004
2.836894e+003,-5.406428e-004
2.838823e+003,-3.545551e-004
2.840751e+003,-1.811060e-004
2.842680e+003,1.181058e-004
2.844608e+003,4.978591e-004
2.846537e+003,1.011699e-003
2.848465e+003,1.800121e-003
2.850394e+003,2.589243e-003
2.852323e+003,3.207628e-003
2.854251e+003,3.542522e-003
2.856180e+003,3.626878e-003
2.858108e+003,3.481795e-003
2.860037e+003,3.212134e-003
2.861965e+003,2.946277e-003
2.863894e+003,2.733428e-003
2.865822e+003,2.606042e-003
2.867751e+003,2.578476e-003
2.869679e+003,2.580110e-003
2.871608e+003,2.540814e-003
2.873537e+003,2.516718e-003
2.875465e+003,2.447004e-003
2.877394e+003,2.357646e-003
2.879322e+003,2.401556e-003
2.881251e+003,2.420581e-003
2.883179e+003,2.492123e-003
2.885108e+003,2.548446e-003
2.887036e+003,2.665213e-003
2.888965e+003,2.877928e-003
2.890894e+003,3.027682e-003
2.892822e+003,3.197847e-003
2.894750e+003,3.412861e-003
2.896679e+003,3.585850e-003
2.898608e+003,3.786082e-003
2.900536e+003,4.112457e-003
2.902465e+003,4.582440e-003
2.904393e+003,5.141204e-003
2.906322e+003,5.406026e-003
2.908250e+003,5.489437e-003
2.910179e+003,5.598003e-003
2.912107e+003,5.648922e-003
2.914036e+003,5.729056e-003
2.915965e+003,5.894070e-003
2.917893e+003,6.192322e-003
2.919822e+003,6.499995e-003
2.921750e+003,6.712276e-003
2.923679e+003,6.908568e-003
2.925607e+003,7.116871e-003
2.927536e+003,7.290399e-003
2.929464e+003,7.244307e-003
2.931393e+003,7.112829e-003
2.933322e+003,7.028904e-003
2.935250e+003,6.867902e-003
2.937179e+003,6.701373e-003
2.939107e+003,6.557244e-003
2.941036e+003,6.460377e-003
2.942964e+003,6.543250e-003
2.944893e+003,6.733711e-003
2.946821e+003,6.933952e-003
2.948750e+003,7.143413e-003
2.950678e+003,7.473738e-003
2.952607e+003,7.939917e-003
2.954536e+003,8.521806e-003
2.956464e+003,9.105628e-003
2.958393e+003,9.595817e-003
2.960321e+003,9.973578e-003
2.962250e+003,1.015405e-002
2.964178e+003,1.025453e-002
2.966107e+003,1.036388e-002
2.968035e+003,1.035286e-002
2.969964e+003,1.014252e-002
2.971893e+003,9.813751e-003
2.973821e+003,9.341428e-003
2.975750e+003,8.761313e-003
2.977678e+003,8.192237e-003
2.979607e+003,7.625557e-003
2.981535e+003,7.018095e-003
2.983464e+003,6.349410e-003
2.985392e+003,5.782509e-003
2.987321e+003,5.421694e-003
2.989250e+003,5.120115e-003
2.991178e+003,4.817404e-003
2.993106e+003,4.492173e-003
2.995035e+003,4.268560e-003
2.996964e+003,4.153468e-003
2.998892e+003,3.974702e-003
3.000821e+003,3.802694e-003
3.002749e+003,3.606731e-003
3.004678e+003,3.296961e-003
3.006606e+003,3.056878e-003
3.008535e+003,2.903278e-003
3.010463e+003,2.743931e-003
3.012392e+003,2.554378e-003
3.014321e+003,2.293287e-003
3.016249e+003,2.074532e-003
3.018178e+003,1.923842e-003
3.020106e+003,1.670281e-003
3.022035e+003,1.358963e-003
3.023963e+003,1.145462e-003
3.025892e+003,9.499640e-004
3.027820e+003,7.324820e-004
3.029749e+003,4.718862e-004
3.031677e+003,4.637596e-004
3.033606e+003,5.194878e-004
3.035535e+003,4.563629e-004
3.037463e+003,3.781909e-004
3.039392e+003,3.169433e-004
3.041320e+003,4.263793e-004
3.043249e+003,6.531652e-004
3.045177e+003,7.974728e-004
3.047106e+003,9.598929e-004
3.049034e+003,1.244540e-003
3.050963e+003,1.451108e-003
3.052892e+003,1.536423e-003
3.054820e+003,1.608285e-003
3.056749e+003,1.713290e-003
3.058677e+003,1.696192e-003
3.060606e+003,1.545733e-003
3.062534e+003,1.466501e-003
3.064463e+003,1.526348e-003
3.066391e+003,1.580583e-003
3.068320e+003,1.627009e-003
3.070249e+003,1.614737e-003
3.072177e+003,1.478337e-003
3.074105e+003,1.363383e-003
3.076034e+003,1.294254e-003
3.077963e+003,1.368070e-003
3.079891e+003,1.491536e-003
3.081820e+003,1.573932e-003
3.083748e+003,1.502076e-003
3.085677e+003,1.310671e-003
3.087605e+003,1.128685e-003
3.089534e+003,9.556091e-004
3.091462e+003,9.172899e-004
3.093391e+003,1.016283e-003
3.095320e+003,1.049728e-003
3.097248e+003,9.787218e-004
3.099177e+003,1.007282e-003
3.101105e+003,1.139515e-003
3.103034e+003,1.159050e-003
3.104962e+003,1.104834e-003
3.106891e+003,9.606234e-004
3.108819e+003,8.865772e-004
3.110748e+003,7.873817e-004
3.112677e+003,6.343503e-004
3.114605e+003,6.060135e-004
3.116534e+003,5.933719e-004
3.118462e+003,5.378664e-004
3.120391e+003,5.031003e-004
3.122319e+003,5.268524e-004
3.124248e+003,4.804110e-004
3.126176e+003,4.416030e-004
3.128105e+003,4.942766e-004
3.130033e+003,5.729339e-004
3.131962e+003,5.875988e-004
3.133891e+003,5.224403e-004
3.135819e+003,3.402873e-004
3.137748e+003,1.967945e-004
3.139676e+003,1.181721e-004
3.141605e+003,1.037882e-004
3.143533e+003,1.755133e-004
3.145462e+003,1.806512e-004
3.147390e+003,2.078001e-004
3.149319e+003,2.121428e-004
3.151248e+003,7.101205e-005
3.153176e+003,-8.743193e-005
3.155104e+003,-2.650642e-005
3.157033e+003,1.113778e-004
3.158962e+003,1.615916e-004
3.160890e+003,1.382241e-004
3.162819e+003,1.170121e-004
3.164747e+003,1.448862e-004
3.166676e+003,1.281151e-004
3.168604e+003,4.844467e-005
3.170533e+003,5.802158e-005
3.172461e+003,1.699777e-004
3.174390e+003,2.286188e-004
3.176319e+003,2.401225e-004
3.178247e+003,1.965293e-004
3.180176e+003,1.616911e-004
3.182104e+003,1.901316e-004
3.184033e+003,2.316687e-004
3.185961e+003,2.144302e-004
3.187890e+003,1.883747e-004
3.189818e+003,2.583898e-004
3.191747e+003,3.250008e-004
3.193676e+003,3.317653e-004
3.195604e+003,2.153584e-004
3.197532e+003,7.353066e-005
3.199461e+003,1.640445e-004
3.201390e+003,2.544777e-004
3.203318e+003,2.288177e-004
3.205247e+003,2.711210e-004
3.207175e+003,2.891908e-004
3.209104e+003,2.330279e-004
3.211032e+003,1.846621e-004
3.212961e+003,2.083637e-004
3.214889e+003,2.388959e-004
3.216818e+003,2.308068e-004
3.218747e+003,2.410508e-004
3.220675e+003,2.876987e-004
3.222604e+003,2.467199e-004
3.224532e+003,2.481786e-004
3.226461e+003,2.476813e-004
3.228389e+003,2.879640e-004
3.230318e+003,4.302929e-004
3.232246e+003,4.926511e-004
3.234175e+003,3.873439e-004
3.236104e+003,3.174738e-004
3.238032e+003,2.680045e-004
3.239961e+003,2.285193e-004
3.241889e+003,2.344203e-004
3.243818e+003,2.823938e-004
3.245746e+003,4.228968e-004
3.247675e+003,5.151753e-004
3.249603e+003,4.273411e-004
3.251532e+003,3.884715e-004
3.253460e+003,4.335101e-004
3.255389e+003,4.236928e-004
3.257318e+003,4.314206e-004
3.259246e+003,5.132181e-004
3.261175e+003,5.006456e-004
3.263103e+003,4.237259e-004
3.265032e+003,4.488004e-004
3.266960e+003,4.333775e-004
3.268889e+003,4.182204e-004
3.270817e+003,6.582092e-004
3.272746e+003,7.911990e-004
3.274675e+003,6.527007e-004
3.276603e+003,4.651527e-004
3.278531e+003,3.985202e-004
3.280460e+003,4.775915e-004
3.282389e+003,6.114882e-004
3.284317e+003,6.999903e-004
3.286246e+003,7.387550e-004
3.288174e+003,7.637481e-004
3.290103e+003,7.661048e-004
3.292031e+003,7.330463e-004
3.293960e+003,7.441650e-004
3.295888e+003,7.239191e-004
3.297817e+003,6.163326e-004
3.299746e+003,6.252917e-004
3.301674e+003,6.638506e-004
3.303603e+003,7.525292e-004
3.305531e+003,8.225690e-004
3.307460e+003,8.627058e-004
3.309388e+003,8.925204e-004
3.311317e+003,8.359807e-004
3.313245e+003,7.164847e-004
3.315174e+003,5.950641e-004
3.317103e+003,5.567103e-004
3.319031e+003,5.274828e-004
3.320960e+003,4.857183e-004
3.322888e+003,4.937127e-004
3.324817e+003,6.355781e-004
3.326745e+003,7.431029e-004
3.328674e+003,7.651754e-004
3.330602e+003,8.285112e-004
3.332531e+003,7.572424e-004
3.334459e+003,5.705451e-004
3.336388e+003,4.852871e-004
3.338317e+003,5.165354e-004
3.340245e+003,6.493823e-004
3.342174e+003,6.969702e-004
3.344102e+003,5.643741e-004
3.346031e+003,4.860832e-004
3.347959e+003,5.227720e-004
3.349888e+003,6.112560e-004
3.351816e+003,6.289416e-004
3.353745e+003,5.170993e-004
3.355674e+003,4.444886e-004
3.357602e+003,4.479381e-004
3.359531e+003,4.352348e-004
3.361459e+003,3.629362e-004
3.363388e+003,3.132627e-004
3.365316e+003,2.693639e-004
3.367245e+003,2.902186e-004
3.369173e+003,3.451619e-004
3.371102e+003,1.889714e-004
3.373031e+003,2.226665e-005
3.374959e+003,1.590463e-005
3.376887e+003,1.088921e-004
3.378816e+003,2.393268e-004
3.380745e+003,2.273259e-004
3.382673e+003,1.336501e-004
3.384602e+003,6.226332e-005
3.386530e+003,1.958266e-005
3.388459e+003,-3.154246e-005
3.390387e+003,4.476640e-005
3.392316e+003,5.911515e-005
3.394244e+003,-4.187941e-005
3.396173e+003,-8.726629e-005
3.398102e+003,-2.243258e-004
3.400030e+003,-3.126065e-004
3.401959e+003,-3.379351e-004
3.403887e+003,-4.154346e-004
3.405816e+003,-3.431000e-004
3.407744e+003,-2.571103e-004
3.409673e+003,-2.168082e-004
3.411601e+003,-1.902140e-004
3.413530e+003,-2.994947e-004
3.415458e+003,-4.251004e-004
3.417387e+003,-4.652839e-004
3.419316e+003,-5.429924e-004
3.421244e+003,-4.738233e-004
3.423173e+003,-2.066410e-004
3.425101e+003,-4.797544e-005
3.427030e+003,6.726262e-006
3.428958e+003,1.921817e-005
3.430887e+003,1.497585e-004
3.432815e+003,2.485433e-004
3.434744e+003,5.609955e-005
3.436673e+003,-2.336978e-004
3.438601e+003,-3.086995e-004
3.440530e+003,-2.612165e-004
3.442458e+003,-1.922012e-004
3.444387e+003,-2.518120e-004
3.446315e+003,-3.581638e-004
3.448244e+003,-3.220097e-004
3.450172e+003,-3.876609e-004
3.452101e+003,-5.014922e-004
3.454030e+003,-4.724663e-004
3.455958e+003,-4.266562e-004
3.457886e+003,-4.471786e-004
3.459815e+003,-4.602529e-004
3.461744e+003,-3.508140e-004
3.463672e+003,-1.989243e-004
3.465601e+003,-3.909641e-005
3.467529e+003,-2.382272e-005
3.469458e+003,1.852232e-005
3.471386e+003,3.257198e-005
3.473315e+003,-1.822334e-005
3.475243e+003,3.250571e-005
3.477172e+003,1.332856e-004
3.479101e+003,2.393931e-004
3.481029e+003,2.596165e-004
3.482958e+003,1.622214e-004
3.484886e+003,1.713368e-004
3.486815e+003,3.040450e-004
3.488743e+003,4.040255e-004
3.490672e+003,4.536430e-004
3.492600e+003,4.143068e-004
3.494529e+003,4.841593e-004
3.496458e+003,5.637438e-004
3.498386e+003,6.561518e-004
3.500315e+003,6.297380e-004
3.502243e+003,5.074128e-004
3.504172e+003,4.975938e-004
3.506100e+003,4.987548e-004
3.508029e+003,5.473546e-004
3.509957e+003,6.487186e-004
3.511886e+003,6.100615e-004
3.513814e+003,5.746592e-004
3.515743e+003,6.448030e-004
3.517672e+003,6.651448e-004
3.519600e+003,4.688014e-004
3.521529e+003,3.707293e-004
3.523457e+003,5.480845e-004
3.525386e+003,5.864707e-004
3.527314e+003,4.610065e-004
3.529243e+003,4.567941e-004
3.531171e+003,5.023705e-004
3.533100e+003,5.456958e-004
3.535029e+003,6.392614e-004
3.536957e+003,6.085020e-004
3.538885e+003,4.170927e-004
3.540814e+003,4.174575e-004
3.542743e+003,5.687536e-004
3.544671e+003,6.649457e-004
3.546600e+003,6.359431e-004
3.548528e+003,5.416152e-004
3.550457e+003,5.325253e-004
3.552385e+003,5.727017e-004
3.554314e+003,5.267861e-004
3.556242e+003,3.348491e-004
3.558171e+003,3.007624e-004
3.560100e+003,3.386293e-004
3.562028e+003,3.516945e-004
3.563957e+003,3.071286e-004
3.565885e+003,2.767242e-004
3.567814e+003,2.782494e-004
3.569742e+003,1.624866e-004
3.571671e+003,1.167469e-004
3.573599e+003,1.999105e-004
3.575528e+003,1.972586e-004
3.577457e+003,2.698280e-004
3.579385e+003,2.556381e-004
3.581314e+003,1.355394e-004
3.583242e+003,4.476640e-005
3.585171e+003,6.858800e-006
3.587099e+003,2.713763e-005
3.589028e+003,-1.115480e-004
3.590956e+003,-2.762169e-004
3.592885e+003,-3.095273e-004
3.594813e+003,-3.447553e-004
3.596742e+003,-3.190630e-004
3.598671e+003,-1.435792e-004
3.600599e+003,-4.959882e-005
3.602528e+003,-2.209478e-004
3.604456e+003,-2.749255e-004
3.606385e+003,-1.360271e-004
3.608313e+003,-1.087986e-004
3.610242e+003,-2.454870e-004
3.612170e+003,-2.938989e-004
3.614099e+003,-3.712407e-004
3.616028e+003,-4.066293e-004
3.617956e+003,-2.582693e-004
3.619885e+003,-1.526879e-004
3.621813e+003,-1.549734e-004
3.623742e+003,-1.036309e-004
3.625670e+003,-1.695138e-004
3.627599e+003,-2.785017e-004
3.629527e+003,-2.908195e-004
3.631456e+003,-3.831917e-004
3.633385e+003,-4.084500e-004
3.635313e+003,-3.570713e-004
3.637241e+003,-4.065300e-004
3.639170e+003,-6.144666e-004
3.641099e+003,-7.318110e-004
3.643027e+003,-6.435824e-004
3.644956e+003,-6.142019e-004
3.646884e+003,-8.013690e-004
3.648813e+003,-8.644676e-004
3.650741e+003,-8.588791e-004
3.652670e+003,-9.043460e-004
3.654598e+003,-8.799102e-004
3.656527e+003,-8.638393e-004
3.658456e+003,-9.801907e-004
3.660384e+003,-9.868025e-004
3.662313e+003,-9.140670e-004
3.664241e+003,-1.015397e-003
3.666170e+003,-1.095354e-003
3.668098e+003,-1.113796e-003
3.670027e+003,-1.157254e-003
3.671955e+003,-1.269132e-003
3.673884e+003,-1.335631e-003
3.675813e+003,-1.294339e-003
3.677741e+003,-1.357267e-003
3.679670e+003,-1.418601e-003
3.681598e+003,-1.383195e-003
3.683527e+003,-1.314920e-003
3.685455e+003,-1.386730e-003
3.687384e+003,-1.495644e-003
3.689312e+003,-1.468500e-003
3.691241e+003,-1.494521e-003
3.693169e+003,-1.663353e-003
3.695098e+003,-1.699660e-003
3.697027e+003,-1.681705e-003
3.698955e+003,-1.755665e-003
3.700884e+003,-1.841557e-003
3.702812e+003,-1.869073e-003
3.704741e+003,-1.833473e-003
3.706669e+003,-1.925386e-003
3.708598e+003,-2.117957e-003
3.710526e+003,-2.051380e-003
3.712455e+003,-1.952633e-003
3.714384e+003,-2.045543e-003
3.716312e+003,-2.084258e-003
3.718240e+003,-1.908892e-003
3.720169e+003,-1.859703e-003
3.722098e+003,-2.019522e-003
3.724026e+003,-2.014080e-003
3.725955e+003,-2.003493e-003
3.727883e+003,-2.005967e-003
3.729812e+003,-2.039837e-003
3.731740e+003,-2.098568e-003
3.733669e+003,-2.027107e-003
3.735597e+003,-1.899457e-003
3.737526e+003,-1.860000e-003
3.739455e+003,-1.945871e-003
3.741383e+003,-2.080894e-003
3.743312e+003,-2.148753e-003
3.745240e+003,-2.150137e-003
3.747169e+003,-2.050720e-003
3.749097e+003,-1.946299e-003
3.751026e+003,-1.944650e-003
3.752954e+003,-1.955667e-003
3.754883e+003,-1.984792e-003
3.756812e+003,-2.002174e-003
3.758740e+003,-1.968564e-003
3.760669e+003,-1.965530e-003
3.762597e+003,-1.994225e-003
3.764526e+003,-1.986079e-003
3.766454e+003,-1.958042e-003
3.768383e+003,-1.921032e-003
3.770311e+003,-1.880719e-003
3.772240e+003,-2.020083e-003
3.774168e+003,-2.228864e-003
3.776097e+003,-2.207370e-003
3.778026e+003,-2.116407e-003
3.779954e+003,-2.131970e-003
3.781883e+003,-2.174831e-003
3.783811e+003,-2.148852e-003
3.785740e+003,-2.084917e-003
3.787668e+003,-2.026316e-003
3.789597e+003,-1.886492e-003
3.791525e+003,-1.835156e-003
3.793454e+003,-1.959494e-003
3.795383e+003,-2.172722e-003
3.797311e+003,-2.106812e-003
3.799240e+003,-2.013355e-003
3.801168e+003,-2.183832e-003
3.803097e+003,-2.202162e-003
3.805025e+003,-2.163589e-003
3.806954e+003,-2.156105e-003
3.808882e+003,-2.101338e-003
3.810811e+003,-2.172095e-003
3.812740e+003,-2.291722e-003
3.814668e+003,-2.302928e-003
3.816596e+003,-2.263409e-003
3.818525e+003,-2.255234e-003
3.820454e+003,-2.193162e-003
3.822382e+003,-2.182942e-003
3.824311e+003,-2.291854e-003
3.826239e+003,-2.262651e-003
3.828168e+003,-2.266408e-003
3.830096e+003,-2.334930e-003
3.832025e+003,-2.328668e-003
3.833953e+003,-2.282823e-003
3.835882e+003,-2.375761e-003
3.837811e+003,-2.409603e-003
3.839739e+003,-2.421663e-003
3.841668e+003,-2.413820e-003
3.843596e+003,-2.292513e-003
3.845525e+003,-2.215051e-003
3.847453e+003,-2.336018e-003
3.849382e+003,-2.408515e-003
3.851310e+003,-2.303258e-003
3.853239e+003,-2.176678e-003
3.855167e+003,-2.129267e-003
3.857096e+003,-2.086137e-003
3.859025e+003,-2.078421e-003
3.860953e+003,-2.323626e-003
3.862882e+003,-2.454908e-003
3.864810e+003,-2.335655e-003
3.866739e+003,-2.385976e-003
3.868667e+003,-2.512166e-003
3.870596e+003,-2.354341e-003
3.872524e+003,-2.254707e-003
3.874453e+003,-2.392962e-003
3.876382e+003,-2.413458e-003
3.878310e+003,-2.274319e-003
3.880239e+003,-2.213766e-003
3.882167e+003,-2.330415e-003
3.884096e+003,-2.435501e-003
3.886024e+003,-2.314661e-003
3.887953e+003,-2.318715e-003
3.889881e+003,-2.348014e-003
3.891810e+003,-2.262123e-003
3.893739e+003,-2.344916e-003
3.895667e+003,-2.463507e-003
3.897595e+003,-2.402354e-003
3.899524e+003,-2.431910e-003
3.901453e+003,-2.507686e-003
3.903381e+003,-2.473786e-003
3.905310e+003,-2.362580e-003
3.907238e+003,-2.249235e-003
3.909167e+003,-2.277615e-003
3.911095e+003,-2.383176e-003
3.913024e+003,-2.328965e-003
3.914952e+003,-2.201667e-003
3.916881e+003,-2.222007e-003
3.918810e+003,-2.308927e-003
3.920738e+003,-2.267430e-003
3.922667e+003,-2.277516e-003
3.924595e+003,-2.393852e-003
3.926524e+003,-2.298116e-003
3.928452e+003,-2.208194e-003
3.930381e+003,-2.299369e-003
3.932309e+003,-2.322077e-003
3.934238e+003,-2.229457e-003
3.936167e+003,-2.279362e-003
3.938095e+003,-2.439719e-003
3.940024e+003,-2.466966e-003
3.941952e+003,-2.287108e-003
3.943881e+003,-2.289415e-003
3.945809e+003,-2.356878e-003
3.947738e+003,-2.492960e-003
3.949666e+003,-2.464989e-003
3.951595e+003,-2.441663e-003
3.953523e+003,-2.471183e-003
3.955452e+003,-2.387822e-003
3.957380e+003,-2.333513e-003
3.959309e+003,-2.282625e-003
3.961238e+003,-2.267892e-003
3.963166e+003,-2.389733e-003
3.965095e+003,-2.417939e-003
3.967023e+003,-2.380968e-003
3.968952e+003,-2.310575e-003
3.970880e+003,-2.240236e-003
3.972809e+003,-2.398268e-003
3.974737e+003,-2.537334e-003
3.976666e+003,-2.633511e-003
3.978594e+003,-2.626463e-003
3.980523e+003,-2.467427e-003
3.982452e+003,-2.316606e-003
3.984380e+003,-2.330052e-003
3.986309e+003,-2.431943e-003
3.988237e+003,-2.449702e-003
3.990166e+003,-2.347882e-003
3.992094e+003,-2.285855e-003
3.994023e+003,-2.340598e-003
3.995951e+003,-2.447231e-003
3.997880e+003,-2.486832e-003
3.999809e+003,-2.430460e-003
4.001737e+003,0.000000e+000
