3.992094e+002,0.000000e+000
4.011380e+002,0.000000e+000
4.030665e+002,0.000000e+000
4.049951e+002,0.000000e+000
4.069236e+002,0.000000e+000
4.088522e+002,0.000000e+000
4.107807e+002,0.000000e+000
4.127093e+002,0.000000e+000
4.146378e+002,0.000000e+000
4.165664e+002,0.000000e+000
4.184949e+002,0.000000e+000
4.204235e+002,0.000000e+000
4.223520e+002,0.000000e+000
4.242806e+002,0.000000e+000
4.262091e+002,0.000000e+000
4.281377e+002,0.000000e+000
4.300662e+002,0.000000e+000
4.319948e+002,0.000000e+000
4.339233e+002,0.000000e+000
4.358519e+002,0.000000e+000
4.377804e+002,0.000000e+000
4.397090e+002,0.000000e+000
4.416375e+002,0.000000e+000
4.435660e+002,0.000000e+000
4.454946e+002,0.000000e+000
4.474232e+002,0.000000e+000
4.493517e+002,0.000000e+000
4.512802e+002,0.000000e+000
4.532088e+002,0.000000e+000
4.551373e+002,0.000000e+000
4.570659e+002,0.000000e+000
4.589944e+002,0.000000e+000
4.609230e+002,0.000000e+000
4.628515e+002,0.000000e+000
4.647801e+002,0.000000e+000
4.667086e+002,0.000000e+000
4.686372e+002,0.000000e+000
4.705657e+002,0.000000e+000
4.724943e+002,0.000000e+000
4.744228e+002,0.000000e+000
4.763514e+002,0.000000e+000
4.782799e+002,0.000000e+000
4.802085e+002,0.000000e+000
4.821370e+002,0.000000e+000
4.840656e+002,0.000000e+000
4.859941e+002,0.000000e+000
4.879226e+002,0.000000e+000
4.898512e+002,0.000000e+000
4.917798e+002,0.000000e+000
4.937083e+002,0.000000e+000
4.956368e+002,0.000000e+000
4.975654e+002,0.000000e+000
4.994939e+002,0.000000e+000
5.014225e+002,0.000000e+000
5.033510e+002,0.000000e+000
5.052796e+002,0.000000e+000
5.072081e+002,0.000000e+000
5.091367e+002,0.000000e+000
5.110652e+002,0.000000e+000
5.129938e+002,0.000000e+000
5.149223e+002,0.000000e+000
5.168509e+002,0.000000e+000
5.187794e+002,0.000000e+000
5.207079e+002,0.000000e+000
5.226365e+002,0.000000e+000
5.245651e+002,0.000000e+000
5.264936e+002,0.000000e+000
5.284221e+002,0.000000e+000
5.303507e+002,0.000000e+000
5.322792e+002,0.000000e+000
5.342078e+002,0.000000e+000
5.361364e+002,0.000000e+000
5.380649e+002,0.000000e+000
5.399934e+002,0.000000e+000
5.419220e+002,0.000000e+000
5.438505e+002,0.000000e+000
5.457791e+002,0.000000e+000
5.477076e+002,0.000000e+000
5.496362e+002,0.000000e+000
5.515647e+002,0.000000e+000
5.534933e+002,0.000000e+000
5.554218e+002,0.000000e+000
5.573503e+002,0.000000e+000
5.592789e+002,0.000000e+000
5.612075e+002,0.000000e+000
5.631360e+002,0.000000e+000
5.650646e+002,0.000000e+000
5.669931e+002,0.000000e+000
5.689216e+002,0.000000e+000
5.708502e+002,0.000000e+000
5.727787e+002,0.000000e+000
5.747073e+002,0.000000e+000
5.766359e+002,0.000000e+000
5.785644e+002,0.000000e+000
5.804929e+002,0.000000e+000
5.824215e+002,0.000000e+000
5.843500e+002,0.000000e+000
5.862786e+002,0.000000e+000
5.882072e+002,0.000000e+000
5.901357e+002,0.000000e+000
5.920642e+002,0.000000e+000
5.939928e+002,0.000000e+000
5.959213e+002,0.000000e+000
5.978499e+002,0.000000e+000
5.997784e+002,0.000000e+000
6.017070e+002,0.000000e+000
6.036355e+002,0.000000e+000
6.055641e+002,0.000000e+000
6.074926e+002,0.000000e+000
6.094211e+002,0.000000e+000
6.113497e+002,0.000000e+000
6.132783e+002,0.000000e+000
6.152068e+002,0.000000e+000
6.171354e+002,0.000000e+000
6.190639e+002,0.000000e+000
6.209924e+002,0.000000e+000
6.229210e+002,0.000000e+000
6.248495e+002,0.000000e+000
6.267781e+002,0.000000e+000
6.287067e+002,0.000000e+000
6.306352e+002,0.000000e+000
6.325637e+002,0.000000e+000
6.344923e+002,0.000000e+000
6.364208e+002,0.000000e+000
6.383494e+002,0.000000e+000
6.402780e+002,0.000000e+000
6.422065e+002,0.000000e+000
6.441350e+002,0.000000e+000
6.460636e+002,0.000000e+000
6.479921e+002,0.000000e+000
6.499207e+002,0.000000e+000
6.518492e+002,0.000000e+000
6.537778e+002,0.000000e+000
6.557063e+002,0.000000e+000
6.576349e+002,0.000000e+000
6.595634e+002,0.000000e+000
6.614919e+002,0.000000e+000
6.634205e+002,0.000000e+000
6.653491e+002,0.000000e+000
6.672776e+002,0.000000e+000
6.692062e+002,0.000000e+000
6.711347e+002,0.000000e+000
6.730632e+002,0.000000e+000
6.749918e+002,1.669098e-002
6.769203e+002,1.891088e-002
6.788489e+002,2.069880e-002
6.807775e+002,2.089596e-002
6.827060e+002,2.059203e-002
6.846345e+002,2.049479e-002
6.865631e+002,2.087232e-002
6.884916e+002,2.266109e-002
6.904202e+002,2.511646e-002
6.923488e+002,2.728772e-002
6.942773e+002,2.959061e-002
6.962058e+002,3.361339e-002
6.981344e+002,3.986558e-002
7.000629e+002,4.703946e-002
7.019915e+002,5.428874e-002
7.039200e+002,6.059399e-002
7.058486e+002,6.674713e-002
7.077771e+002,7.413802e-002
7.097057e+002,8.278725e-002
7.116342e+002,9.344008e-002
7.135627e+002,1.076451e-001
7.154913e+002,1.294487e-001
7.174199e+002,1.648401e-001
7.193484e+002,2.175969e-001
7.212770e+002,2.790276e-001
7.232055e+002,3.273408e-001
7.251340e+002,3.334624e-001
7.270626e+002,2.922314e-001
7.289911e+002,2.337238e-001
7.309197e+002,1.810827e-001
7.328483e+002,1.357338e-001
7.347768e+002,9.588072e-002
7.367053e+002,6.105911e-002
7.386339e+002,3.331807e-002
7.405624e+002,1.394127e-002
7.424910e+002,2.555911e-003
7.444196e+002,-3.392530e-003
7.463481e+002,-6.131668e-003
7.482766e+002,-7.516931e-003
7.502052e+002,-8.225726e-003
7.521337e+002,-8.658477e-003
7.540623e+002,-8.710994e-003
7.559908e+002,-8.269452e-003
7.579194e+002,-7.984970e-003
7.598479e+002,-8.081282e-003
7.617765e+002,-8.123592e-003
7.637050e+002,-7.636657e-003
7.656335e+002,-7.032901e-003
7.675621e+002,-6.314023e-003
7.694907e+002,-5.269513e-003
7.714192e+002,-4.237448e-003
7.733478e+002,-3.408080e-003
7.752763e+002,-2.641086e-003
7.772048e+002,-1.727614e-003
7.791334e+002,-8.102655e-004
7.810620e+002,-1.548740e-004
7.829905e+002,9.123757e-004
7.849191e+002,2.510519e-003
7.868476e+002,4.662746e-003
7.887761e+002,7.610046e-003
7.907047e+002,1.130509e-002
7.926332e+002,1.385392e-002
7.945618e+002,1.299738e-002
7.964904e+002,8.926029e-003
7.984189e+002,4.976207e-003
8.003474e+002,3.823084e-003
8.022760e+002,4.409555e-003
8.042045e+002,4.784472e-003
8.061331e+002,5.037043e-003
8.080616e+002,5.584208e-003
8.099902e+002,5.901426e-003
8.119187e+002,6.145910e-003
8.138473e+002,6.422746e-003
8.157758e+002,6.512742e-003
8.177043e+002,6.778605e-003
8.196329e+002,6.960045e-003
8.215615e+002,7.351998e-003
8.234900e+002,8.082548e-003
8.254186e+002,8.715876e-003
8.273471e+002,9.663808e-003
8.292756e+002,1.092301e-002
8.312042e+002,1.238836e-002
8.331328e+002,1.403102e-002
8.350613e+002,1.630444e-002
8.369899e+002,1.888593e-002
8.389184e+002,2.101387e-002
8.408469e+002,2.297127e-002
8.427755e+002,2.502687e-002
8.447040e+002,2.701034e-002
8.466326e+002,2.832765e-002
8.485612e+002,2.823853e-002
8.504896e+002,2.677748e-002
8.524182e+002,2.536263e-002
8.543468e+002,2.446785e-002
8.562753e+002,2.399117e-002
8.582039e+002,2.371410e-002
8.601324e+002,2.407136e-002
8.620609e+002,2.550815e-002
8.639895e+002,2.861900e-002
8.659181e+002,3.424225e-002
8.678466e+002,4.432691e-002
8.697751e+002,5.960898e-002
8.717037e+002,7.339813e-002
8.736322e+002,7.315455e-002
8.755608e+002,6.092855e-002
8.774894e+002,4.775761e-002
8.794178e+002,3.665077e-002
8.813464e+002,2.754847e-002
8.832750e+002,2.053332e-002
8.852035e+002,1.568572e-002
8.871321e+002,1.287746e-002
8.890607e+002,1.150823e-002
8.909891e+002,1.096225e-002
8.929177e+002,1.101785e-002
8.948463e+002,1.124486e-002
8.967748e+002,1.140654e-002
8.987034e+002,1.124949e-002
9.006320e+002,1.048376e-002
9.025604e+002,8.999498e-003
9.044890e+002,7.237333e-003
9.064176e+002,5.401967e-003
9.083461e+002,3.721277e-003
9.102747e+002,2.336225e-003
9.122032e+002,1.318548e-003
9.141317e+002,8.287436e-004
9.160603e+002,5.585019e-004
9.179889e+002,4.981245e-004
9.199174e+002,5.897886e-004
9.218459e+002,7.454595e-004
9.237745e+002,1.112507e-003
9.257030e+002,1.500280e-003
9.276316e+002,1.774968e-003
9.295602e+002,2.123741e-003
9.314886e+002,2.485625e-003
9.334172e+002,2.764939e-003
9.353458e+002,3.022310e-003
9.372743e+002,3.279400e-003
9.392029e+002,3.640611e-003
9.411315e+002,4.050079e-003
9.430599e+002,4.534826e-003
9.449885e+002,5.000842e-003
9.469171e+002,5.488095e-003
9.488456e+002,6.267212e-003
9.507742e+002,7.217826e-003
9.527028e+002,8.151890e-003
9.546312e+002,9.382022e-003
9.565598e+002,1.102448e-002
9.584884e+002,1.284712e-002
9.604169e+002,1.497809e-002
9.623455e+002,1.753843e-002
9.642740e+002,2.040998e-002
9.662025e+002,2.350370e-002
9.681311e+002,2.655992e-002
9.700597e+002,2.906324e-002
9.719882e+002,3.038193e-002
9.739167e+002,3.027140e-002
9.758453e+002,2.871577e-002
9.777738e+002,2.609490e-002
9.797024e+002,2.329529e-002
9.816310e+002,2.089408e-002
9.835594e+002,1.902205e-002
9.854880e+002,1.770554e-002
9.874166e+002,1.686906e-002
9.893451e+002,1.639950e-002
9.912737e+002,1.623155e-002
9.932023e+002,1.653912e-002
9.951307e+002,1.731700e-002
9.970593e+002,1.840741e-002
9.989879e+002,1.988028e-002
1.000916e+003,2.180242e-002
1.002845e+003,2.415973e-002
1.004774e+003,2.736168e-002
1.006702e+003,3.223791e-002
1.008631e+003,3.991657e-002
1.010559e+003,5.250855e-002
1.012488e+003,7.407377e-002
1.014416e+003,1.060257e-001
1.016345e+003,1.354113e-001
1.018273e+003,1.402516e-001
1.020202e+003,1.194526e-001
1.022130e+003,9.053295e-002
1.024059e+003,6.471906e-002
1.025988e+003,4.624623e-002
1.027916e+003,3.669818e-002
1.029845e+003,3.367863e-002
1.031773e+003,3.385225e-002
1.033702e+003,3.520574e-002
1.035630e+003,3.707087e-002
1.037559e+003,3.918911e-002
1.039487e+003,4.113925e-002
1.041416e+003,4.251549e-002
1.043344e+003,4.303641e-002
1.045273e+003,4.262107e-002
1.047202e+003,4.154420e-002
1.049130e+003,3.997760e-002
1.051059e+003,3.836505e-002
1.052987e+003,3.711392e-002
1.054916e+003,3.646024e-002
1.056844e+003,3.660405e-002
1.058773e+003,3.779989e-002
1.060701e+003,4.004463e-002
1.062630e+003,4.317663e-002
1.064558e+003,4.718327e-002
1.066487e+003,5.213422e-002
1.068416e+003,5.812204e-002
1.070344e+003,6.550062e-002
1.072273e+003,7.489209e-002
1.074201e+003,8.663595e-002
1.076130e+003,1.007792e-001
1.078058e+003,1.171035e-001
1.079987e+003,1.348101e-001
1.081915e+003,1.527555e-001
1.083844e+003,1.703045e-001
1.085773e+003,1.877617e-001
1.087701e+003,2.059355e-001
1.089630e+003,2.253815e-001
1.091558e+003,2.450557e-001
1.093487e+003,2.625528e-001
1.095415e+003,2.752539e-001
1.097344e+003,2.809196e-001
1.099272e+003,2.783983e-001
1.101201e+003,2.684428e-001
1.103129e+003,2.524962e-001
1.105058e+003,2.325495e-001
1.106987e+003,2.113460e-001
1.108915e+003,1.931666e-001
1.110844e+003,1.822155e-001
1.112772e+003,1.798867e-001
1.114701e+003,1.836922e-001
1.116629e+003,1.881072e-001
1.118558e+003,1.881323e-001
1.120486e+003,1.823725e-001
1.122415e+003,1.719349e-001
1.124344e+003,1.583193e-001
1.126272e+003,1.430329e-001
1.128201e+003,1.271372e-001
1.130129e+003,1.112638e-001
1.132058e+003,9.617564e-002
1.133986e+003,8.244239e-002
1.135915e+003,7.046122e-002
1.137843e+003,6.014938e-002
1.139772e+003,5.119854e-002
1.141700e+003,4.331543e-002
1.143629e+003,3.626937e-002
1.145557e+003,2.997880e-002
1.147486e+003,2.452927e-002
1.149415e+003,1.977963e-002
1.151343e+003,1.569579e-002
1.153272e+003,1.233337e-002
1.155200e+003,9.654526e-003
1.157129e+003,7.643801e-003
1.159057e+003,6.372206e-003
1.160986e+003,5.511484e-003
1.162914e+003,5.033322e-003
1.164843e+003,5.232646e-003
1.166771e+003,6.410270e-003
1.168700e+003,8.652461e-003
1.170629e+003,1.138916e-002
1.172557e+003,1.349458e-002
1.174486e+003,1.420384e-002
1.176414e+003,1.344461e-002
1.178343e+003,1.182344e-002
1.180271e+003,9.932692e-003
1.182200e+003,8.168197e-003
1.184128e+003,6.943109e-003
1.186057e+003,6.527979e-003
1.187986e+003,6.867431e-003
1.189914e+003,7.861061e-003
1.191843e+003,9.428442e-003
1.193771e+003,1.147128e-002
1.195700e+003,1.385382e-002
1.197628e+003,1.638464e-002
1.199557e+003,1.900734e-002
1.201485e+003,2.193190e-002
1.203414e+003,2.512752e-002
1.205343e+003,2.863995e-002
1.207271e+003,3.264018e-002
1.209200e+003,3.705398e-002
1.211128e+003,4.195734e-002
1.213057e+003,4.774137e-002
1.214985e+003,5.465666e-002
1.216914e+003,6.280194e-002
1.218842e+003,7.210941e-002
1.220771e+003,8.260266e-002
1.222699e+003,9.438317e-002
1.224628e+003,1.077791e-001
1.226557e+003,1.233193e-001
1.228485e+003,1.416545e-001
1.230414e+003,1.635840e-001
1.232342e+003,1.899036e-001
1.234271e+003,2.206252e-001
1.236199e+003,2.539003e-001
1.238128e+003,2.856729e-001
1.240056e+003,3.112851e-001
1.241985e+003,3.273864e-001
1.243913e+003,3.327219e-001
1.245842e+003,3.284231e-001
1.247771e+003,3.177040e-001
1.249699e+003,3.039451e-001
1.251628e+003,2.901467e-001
1.253556e+003,2.786725e-001
1.255485e+003,2.708991e-001
1.257413e+003,2.659232e-001
1.259342e+003,2.609334e-001
1.261270e+003,2.526095e-001
1.263199e+003,2.390849e-001
1.265127e+003,2.210119e-001
1.267056e+003,2.006546e-001
1.268985e+003,1.800602e-001
1.270913e+003,1.610446e-001
1.272842e+003,1.448908e-001
1.274770e+003,1.321222e-001
1.276699e+003,1.224258e-001
1.278627e+003,1.148598e-001
1.280556e+003,1.084256e-001
1.282484e+003,1.024802e-001
1.284413e+003,9.647804e-002
1.286342e+003,9.017614e-002
1.288270e+003,8.342405e-002
1.290199e+003,7.608021e-002
1.292127e+003,6.828558e-002
1.294056e+003,6.014729e-002
1.295984e+003,5.177295e-002
1.297913e+003,4.360386e-002
1.299841e+003,3.627449e-002
1.301770e+003,3.043161e-002
1.303698e+003,2.611692e-002
1.305627e+003,2.266675e-002
1.307556e+003,1.931076e-002
1.309484e+003,1.586549e-002
1.311413e+003,1.254416e-002
1.313341e+003,9.605099e-003
1.315270e+003,7.161333e-003
1.317198e+003,5.048406e-003
1.319127e+003,3.148283e-003
1.321055e+003,1.474314e-003
1.322984e+003,1.994715e-005
1.324912e+003,-8.559690e-004
1.326841e+003,-6.315723e-004
1.328770e+003,1.383792e-003
1.330698e+003,6.484053e-003
1.332627e+003,1.594709e-002
1.334555e+003,2.941504e-002
1.336484e+003,4.360009e-002
1.338412e+003,5.268975e-002
1.340341e+003,5.226706e-002
1.342269e+003,4.282976e-002
1.344198e+003,2.938830e-002
1.346126e+003,1.715327e-002
1.348055e+003,8.253592e-003
1.349984e+003,2.327297e-003
1.351912e+003,-1.487950e-003
1.353841e+003,-3.828020e-003
1.355769e+003,-5.178404e-003
1.357698e+003,-5.784252e-003
1.359626e+003,-5.655706e-003
1.361555e+003,-4.762685e-003
1.363483e+003,-3.048212e-003
1.365412e+003,-6.370646e-004
1.367341e+003,1.854190e-003
1.369269e+003,3.547365e-003
1.371198e+003,4.093125e-003
1.373126e+003,3.700458e-003
1.375055e+003,2.733528e-003
1.376983e+003,1.559567e-003
1.378912e+003,4.025995e-004
1.380840e+003,-5.660243e-004
1.382769e+003,-1.325193e-003
1.384698e+003,-1.945376e-003
1.386626e+003,-2.297919e-003
1.388555e+003,-2.261827e-003
1.390483e+003,-1.787476e-003
1.392412e+003,-7.411059e-004
1.394340e+003,8.514844e-004
1.396269e+003,3.119414e-003
1.398197e+003,6.330179e-003
1.400126e+003,1.099127e-002
1.402054e+003,1.774661e-002
1.403983e+003,2.745933e-002
1.405911e+003,3.922853e-002
1.407840e+003,4.797710e-002
1.409769e+003,4.726679e-002
1.411697e+003,3.634920e-002
1.413626e+003,2.130136e-002
1.415554e+003,8.323501e-003
1.417483e+003,-3.208178e-004
1.419411e+003,-5.434333e-003
1.421340e+003,-8.312265e-003
1.423268e+003,-9.791167e-003
1.425197e+003,-1.042604e-002
1.427125e+003,-1.044034e-002
1.429054e+003,-9.827708e-003
1.430983e+003,-8.674425e-003
1.432911e+003,-7.150023e-003
1.434840e+003,-5.473499e-003
1.436768e+003,-3.926604e-003
1.438697e+003,-2.865303e-003
1.440625e+003,-2.181986e-003
1.442554e+003,-1.690617e-003
1.444482e+003,-1.267282e-003
1.446411e+003,-7.623412e-004
1.448340e+003,-2.962082e-005
1.450268e+003,8.202452e-004
1.452197e+003,1.595182e-003
1.454125e+003,2.088482e-003
1.456054e+003,1.992540e-003
1.457982e+003,1.320675e-003
1.459911e+003,2.922080e-004
1.461839e+003,-9.007088e-004
1.463768e+003,-2.004120e-003
1.465697e+003,-2.735890e-003
1.467625e+003,-3.062985e-003
1.469554e+003,-2.943702e-003
1.471482e+003,-2.732202e-003
1.473411e+003,-3.071243e-003
1.475339e+003,-4.164894e-003
1.477268e+003,-5.691615e-003
1.479196e+003,-7.284937e-003
1.481125e+003,-8.973971e-003
1.483053e+003,-1.070324e-002
1.484982e+003,-1.224208e-002
1.486911e+003,-1.344100e-002
1.488839e+003,-1.429537e-002
1.490768e+003,-1.481016e-002
1.492696e+003,-1.499464e-002
1.494625e+003,-1.471514e-002
1.496553e+003,-1.377278e-002
1.498482e+003,-1.195645e-002
1.500410e+003,-8.581948e-003
1.502339e+003,-3.294548e-003
1.504267e+003,1.153967e-003
1.506196e+003,3.514292e-004
1.508125e+003,-5.072964e-003
1.510053e+003,-1.012941e-002
1.511982e+003,-1.285289e-002
1.513910e+003,-1.397179e-002
1.515839e+003,-1.440222e-002
1.517767e+003,-1.448276e-002
1.519696e+003,-1.436651e-002
1.521624e+003,-1.413680e-002
1.523553e+003,-1.399175e-002
1.525481e+003,-1.390572e-002
1.527410e+003,-1.385553e-002
1.529339e+003,-1.396008e-002
1.531267e+003,-1.415050e-002
1.533196e+003,-1.427735e-002
1.535124e+003,-1.428826e-002
1.537053e+003,-1.429480e-002
1.538981e+003,-1.423356e-002
1.540910e+003,-1.409196e-002
1.542838e+003,-1.402203e-002
1.544767e+003,-1.398382e-002
1.546696e+003,-1.388329e-002
1.548624e+003,-1.380880e-002
1.550553e+003,-1.372707e-002
1.552481e+003,-1.354957e-002
1.554410e+003,-1.332013e-002
1.556338e+003,-1.317246e-002
1.558267e+003,-1.298826e-002
1.560195e+003,-1.272945e-002
1.562124e+003,-1.247421e-002
1.564052e+003,-1.214436e-002
1.565981e+003,-1.166240e-002
1.567910e+003,-1.106093e-002
1.569838e+003,-1.014873e-002
1.571767e+003,-8.831464e-003
1.573695e+003,-7.146960e-003
1.575624e+003,-5.353567e-003
1.577552e+003,-4.258316e-003
1.579481e+003,-4.705788e-003
1.581409e+003,-6.467054e-003
1.583338e+003,-8.477883e-003
1.585266e+003,-9.898869e-003
1.587195e+003,-1.061120e-002
1.589124e+003,-1.096763e-002
1.591052e+003,-1.117703e-002
1.592981e+003,-1.121404e-002
1.594909e+003,-1.117028e-002
1.596838e+003,-1.104090e-002
1.598766e+003,-1.072005e-002
1.600695e+003,-1.029259e-002
1.602623e+003,-9.752907e-003
1.604552e+003,-9.048939e-003
1.606480e+003,-8.278913e-003
1.608409e+003,-7.474137e-003
1.610338e+003,-6.680267e-003
1.612266e+003,-6.126800e-003
1.614195e+003,-6.002735e-003
1.616123e+003,-6.365323e-003
1.618052e+003,-6.983278e-003
1.619980e+003,-7.478208e-003
1.621909e+003,-7.592248e-003
1.623837e+003,-7.436031e-003
1.625766e+003,-7.232150e-003
1.627695e+003,-6.891973e-003
1.629623e+003,-6.571340e-003
1.631552e+003,-6.355168e-003
1.633480e+003,-6.086222e-003
1.635409e+003,-5.660252e-003
1.637337e+003,-5.318711e-003
1.639266e+003,-5.011195e-003
1.641194e+003,-4.661701e-003
1.643123e+003,-4.324294e-003
1.645052e+003,-3.835869e-003
1.646980e+003,-3.263077e-003
1.648909e+003,-2.710635e-003
1.650837e+003,-2.196096e-003
1.652766e+003,-1.529653e-003
1.654694e+003,-7.587690e-004
1.656623e+003,-1.376501e-004
1.658551e+003,6.516388e-004
1.660480e+003,1.739637e-003
1.662408e+003,2.973165e-003
1.664337e+003,4.275721e-003
1.666266e+003,5.686923e-003
1.668194e+003,7.154664e-003
1.670123e+003,8.655132e-003
1.672051e+003,1.010569e-002
1.673980e+003,1.165285e-002
1.675908e+003,1.341276e-002
1.677837e+003,1.532661e-002
1.679765e+003,1.739397e-002
1.681694e+003,1.944359e-002
1.683622e+003,2.138127e-002
1.685551e+003,2.323856e-002
1.687479e+003,2.497634e-002
1.689408e+003,2.705125e-002
1.691337e+003,2.988746e-002
1.693265e+003,3.349065e-002
1.695194e+003,3.826607e-002
1.697122e+003,4.463001e-002
1.699051e+003,5.262156e-002
1.700979e+003,6.370360e-002
1.702908e+003,7.823718e-002
1.704836e+003,9.790335e-002
1.706765e+003,1.250899e-001
1.708694e+003,1.608592e-001
1.710622e+003,2.038554e-001
1.712551e+003,2.470456e-001
1.714479e+003,2.772959e-001
1.716408e+003,2.859880e-001
1.718336e+003,2.750675e-001
1.720265e+003,2.543669e-001
1.722193e+003,2.301378e-001
1.724122e+003,2.053750e-001
1.726051e+003,1.810641e-001
1.727979e+003,1.579207e-001
1.729908e+003,1.359648e-001
1.731836e+003,1.157059e-001
1.733765e+003,9.659548e-002
1.735693e+003,7.871922e-002
1.737622e+003,6.249930e-002
1.739550e+003,4.731264e-002
1.741479e+003,3.334759e-002
1.743407e+003,2.139610e-002
1.745336e+003,1.186750e-002
1.747265e+003,4.668071e-003
1.749193e+003,-5.923307e-004
1.751122e+003,-4.252115e-003
1.753050e+003,-6.828700e-003
1.754979e+003,-8.756069e-003
1.756907e+003,-1.018372e-002
1.758836e+003,-1.126689e-002
1.760764e+003,-1.206735e-002
1.762693e+003,-1.272002e-002
1.764621e+003,-1.328463e-002
1.766550e+003,-1.373250e-002
1.768479e+003,-1.408539e-002
1.770407e+003,-1.436244e-002
1.772336e+003,-1.450244e-002
1.774264e+003,-1.470191e-002
1.776193e+003,-1.494054e-002
1.778121e+003,-1.512823e-002
1.780050e+003,-1.530090e-002
1.781978e+003,-1.543426e-002
1.783907e+003,-1.550982e-002
1.785835e+003,-1.560166e-002
1.787764e+003,-1.564846e-002
1.789693e+003,-1.564136e-002
1.791621e+003,-1.565140e-002
1.793550e+003,-1.570899e-002
1.795478e+003,-1.578833e-002
1.797407e+003,-1.583504e-002
1.799335e+003,-1.578223e-002
1.801264e+003,-1.575631e-002
1.803192e+003,-1.575801e-002
1.805121e+003,-1.573669e-002
1.807049e+003,-1.576510e-002
1.808978e+003,-1.584913e-002
1.810907e+003,-1.588436e-002
1.812835e+003,-1.580350e-002
1.814764e+003,-1.574759e-002
1.816692e+003,-1.574452e-002
1.818621e+003,-1.570768e-002
1.820549e+003,-1.570260e-002
1.822478e+003,-1.578657e-002
1.824406e+003,-1.584542e-002
1.826335e+003,-1.591346e-002
1.828264e+003,-1.600069e-002
1.830192e+003,-1.606395e-002
1.832121e+003,-1.622214e-002
1.834049e+003,-1.640876e-002
1.835978e+003,-1.653100e-002
1.837906e+003,-1.665691e-002
1.839835e+003,-1.676133e-002
1.841763e+003,-1.687025e-002
1.843692e+003,-1.694626e-002
1.845620e+003,-1.702595e-002
1.847549e+003,-1.719248e-002
1.849478e+003,-1.730588e-002
1.851406e+003,-1.738703e-002
1.853335e+003,-1.748392e-002
1.855263e+003,-1.757710e-002
1.857192e+003,-1.761894e-002
1.859120e+003,-1.761722e-002
1.861049e+003,-1.770474e-002
1.862977e+003,-1.779183e-002
1.864906e+003,-1.782147e-002
1.866834e+003,-1.782799e-002
1.868763e+003,-1.777275e-002
1.870692e+003,-1.777799e-002
1.872620e+003,-1.783330e-002
1.874549e+003,-1.781015e-002
1.876477e+003,-1.779911e-002
1.878406e+003,-1.777329e-002
1.880334e+003,-1.772745e-002
1.882263e+003,-1.775846e-002
1.884191e+003,-1.776642e-002
1.886120e+003,-1.772481e-002
1.888048e+003,-1.771568e-002
1.889977e+003,-1.770366e-002
1.891906e+003,-1.763227e-002
1.893834e+003,-1.761108e-002
1.895763e+003,-1.758244e-002
1.897691e+003,-1.752230e-002
1.899620e+003,-1.747332e-002
1.901548e+003,-1.739757e-002
1.903477e+003,-1.735214e-002
1.905405e+003,-1.733794e-002
1.907334e+003,-1.726888e-002
1.909263e+003,-1.716723e-002
1.911191e+003,-1.713378e-002
1.913120e+003,-1.713920e-002
1.915048e+003,-1.709419e-002
1.916977e+003,-1.704822e-002
1.918905e+003,-1.688424e-002
1.920834e+003,-1.672467e-002
1.922762e+003,-1.671016e-002
1.924691e+003,-1.665443e-002
1.926620e+003,-1.657977e-002
1.928548e+003,-1.650329e-002
1.930477e+003,-1.639475e-002
1.932405e+003,-1.628090e-002
1.934334e+003,-1.613824e-002
1.936262e+003,-1.596760e-002
1.938191e+003,-1.581641e-002
1.940119e+003,-1.566808e-002
1.942048e+003,-1.550441e-002
1.943976e+003,-1.534683e-002
1.945905e+003,-1.522681e-002
1.947833e+003,-1.507933e-002
1.949762e+003,-1.492457e-002
1.951691e+003,-1.492687e-002
1.953619e+003,-1.488932e-002
1.955548e+003,-1.486831e-002
1.957476e+003,-1.493369e-002
1.959405e+003,-1.509888e-002
1.961333e+003,-1.522678e-002
1.963262e+003,-1.524015e-002
1.965190e+003,-1.532719e-002
1.967119e+003,-1.548753e-002
1.969047e+003,-1.555071e-002
1.970976e+003,-1.560796e-002
1.972905e+003,-1.573037e-002
1.974833e+003,-1.583948e-002
1.976762e+003,-1.586271e-002
1.978690e+003,-1.588206e-002
1.980619e+003,-1.592314e-002
1.982547e+003,-1.604169e-002
1.984476e+003,-1.615076e-002
1.986404e+003,-1.614163e-002
1.988333e+003,-1.614022e-002
1.990262e+003,-1.619510e-002
1.992190e+003,-1.619047e-002
1.994119e+003,-1.620359e-002
1.996047e+003,-1.623535e-002
1.997976e+003,-1.628421e-002
1.999904e+003,-1.632877e-002
2.001833e+003,-1.640602e-002
2.003761e+003,-1.646242e-002
2.005690e+003,-1.650552e-002
2.007619e+003,-1.654070e-002
2.009547e+003,-1.652829e-002
2.011476e+003,-1.651604e-002
2.013404e+003,-1.652861e-002
2.015333e+003,-1.653110e-002
2.017261e+003,-1.650762e-002
2.019190e+003,-1.649841e-002
2.021118e+003,-1.657030e-002
2.023047e+003,-1.671268e-002
2.024975e+003,-1.677663e-002
2.026904e+003,-1.670653e-002
2.028833e+003,-1.669055e-002
2.030761e+003,-1.682729e-002
2.032690e+003,-1.686898e-002
2.034618e+003,-1.678151e-002
2.036547e+003,-1.678135e-002
2.038475e+003,-1.680402e-002
2.040404e+003,-1.678942e-002
2.042332e+003,-1.673155e-002
2.044261e+003,-1.668568e-002
2.046189e+003,-1.661724e-002
2.048118e+003,-1.653145e-002
2.050046e+003,-1.644328e-002
2.051975e+003,-1.635911e-002
2.053904e+003,-1.632417e-002
2.055832e+003,-1.623210e-002
2.057761e+003,-1.618543e-002
2.059689e+003,-1.618160e-002
2.061618e+003,-1.612777e-002
2.063546e+003,-1.599280e-002
2.065475e+003,-1.590257e-002
2.067403e+003,-1.587309e-002
2.069332e+003,-1.581798e-002
2.071260e+003,-1.580919e-002
2.073189e+003,-1.577328e-002
2.075118e+003,-1.570033e-002
2.077046e+003,-1.564945e-002
2.078975e+003,-1.562909e-002
2.080903e+003,-1.559428e-002
2.082832e+003,-1.555710e-002
2.084760e+003,-1.553648e-002
2.086689e+003,-1.550822e-002
2.088617e+003,-1.546579e-002
2.090546e+003,-1.542429e-002
2.092475e+003,-1.540715e-002
2.094403e+003,-1.537139e-002
2.096332e+003,-1.526785e-002
2.098260e+003,-1.522313e-002
2.100189e+003,-1.525291e-002
2.102117e+003,-1.521801e-002
2.104046e+003,-1.510612e-002
2.105974e+003,-1.509719e-002
2.107903e+003,-1.512528e-002
2.109832e+003,-1.507971e-002
2.111760e+003,-1.503478e-002
2.113688e+003,-1.506154e-002
2.115617e+003,-1.511287e-002
2.117546e+003,-1.510493e-002
2.119474e+003,-1.506378e-002
2.121403e+003,-1.509882e-002
2.123331e+003,-1.512237e-002
2.125260e+003,-1.508227e-002
2.127188e+003,-1.504761e-002
2.129117e+003,-1.509028e-002
2.131045e+003,-1.514032e-002
2.132974e+003,-1.518922e-002
2.134903e+003,-1.517792e-002
2.136831e+003,-1.520486e-002
2.138760e+003,-1.528209e-002
2.140688e+003,-1.528740e-002
2.142617e+003,-1.531609e-002
2.144545e+003,-1.539339e-002
2.146474e+003,-1.546186e-002
2.148402e+003,-1.551516e-002
2.150331e+003,-1.555892e-002
2.152260e+003,-1.561189e-002
2.154188e+003,-1.562180e-002
2.156117e+003,-1.558629e-002
2.158045e+003,-1.563059e-002
2.159974e+003,-1.568042e-002
2.161902e+003,-1.567684e-002
2.163831e+003,-1.577715e-002
2.165759e+003,-1.589935e-002
2.167688e+003,-1.589015e-002
2.169616e+003,-1.586807e-002
2.171545e+003,-1.600094e-002
2.173474e+003,-1.608920e-002
2.175402e+003,-1.607078e-002
2.177331e+003,-1.605922e-002
2.179259e+003,-1.610728e-002
2.181188e+003,-1.618409e-002
2.183116e+003,-1.625884e-002
2.185045e+003,-1.625591e-002
2.186973e+003,-1.623896e-002
2.188902e+003,-1.627212e-002
2.190831e+003,-1.628878e-002
2.192759e+003,-1.626781e-002
2.194688e+003,-1.630572e-002
2.196616e+003,-1.636170e-002
2.198545e+003,-1.628907e-002
2.200473e+003,-1.617569e-002
2.202402e+003,-1.615341e-002
2.204330e+003,-1.619606e-002
2.206259e+003,-1.617700e-002
2.208188e+003,-1.610951e-002
2.210116e+003,-1.606851e-002
2.212044e+003,-1.600369e-002
2.213973e+003,-1.591739e-002
2.215902e+003,-1.588222e-002
2.217830e+003,-1.585271e-002
2.219759e+003,-1.587095e-002
2.221687e+003,-1.587893e-002
2.223616e+003,-1.580335e-002
2.225544e+003,-1.574059e-002
2.227473e+003,-1.578513e-002
2.229401e+003,-1.582667e-002
2.231330e+003,-1.581408e-002
2.233259e+003,-1.578056e-002
2.235187e+003,-1.578596e-002
2.237116e+003,-1.579111e-002
2.239044e+003,-1.574468e-002
2.240973e+003,-1.575932e-002
2.242901e+003,-1.577111e-002
2.244830e+003,-1.571886e-002
2.246758e+003,-1.564507e-002
2.248687e+003,-1.563302e-002
2.250615e+003,-1.558894e-002
2.252544e+003,-1.556481e-002
2.254473e+003,-1.547759e-002
2.256401e+003,-1.538834e-002
2.258330e+003,-1.536132e-002
2.260258e+003,-1.526891e-002
2.262187e+003,-1.516208e-002
2.264115e+003,-1.516823e-002
2.266044e+003,-1.523007e-002
2.267972e+003,-1.520972e-002
2.269901e+003,-1.512861e-002
2.271830e+003,-1.504041e-002
2.273758e+003,-1.501202e-002
2.275687e+003,-1.502306e-002
2.277615e+003,-1.499054e-002
2.279544e+003,-1.496705e-002
2.281472e+003,-1.492774e-002
2.283401e+003,-1.492159e-002
2.285329e+003,-1.493574e-002
2.287258e+003,-1.493139e-002
2.289187e+003,-1.485679e-002
2.291115e+003,-1.486306e-002
2.293043e+003,-1.495348e-002
2.294972e+003,-1.495815e-002
2.296901e+003,-1.500316e-002
2.298829e+003,-1.507962e-002
2.300758e+003,-1.507427e-002
2.302686e+003,-1.506253e-002
2.304615e+003,-1.499730e-002
2.306543e+003,-1.495930e-002
2.308472e+003,-1.505363e-002
2.310400e+003,-1.511312e-002
2.312329e+003,-1.509834e-002
2.314258e+003,-1.506557e-002
2.316186e+003,-1.499336e-002
2.318115e+003,-1.493993e-002
2.320043e+003,-1.500860e-002
2.321972e+003,-1.502242e-002
2.323900e+003,-1.495664e-002
2.325829e+003,-1.492658e-002
2.327757e+003,-1.490472e-002
2.329686e+003,-1.488832e-002
2.331615e+003,-1.486361e-002
2.333543e+003,-1.489562e-002
2.335472e+003,-1.492559e-002
2.337400e+003,-1.492703e-002
2.339329e+003,-1.485368e-002
2.341257e+003,-1.479566e-002
2.343186e+003,-1.485458e-002
2.345114e+003,-1.486860e-002
2.347043e+003,-1.482697e-002
2.348971e+003,-1.481753e-002
2.350900e+003,-1.476434e-002
2.352829e+003,-1.465751e-002
2.354757e+003,-1.468288e-002
2.356686e+003,-1.470342e-002
2.358614e+003,-1.463781e-002
2.360543e+003,-1.457178e-002
2.362471e+003,-1.454820e-002
2.364400e+003,-1.460872e-002
2.366328e+003,-1.454794e-002
2.368257e+003,-1.438664e-002
2.370186e+003,-1.433625e-002
2.372114e+003,-1.443837e-002
2.374042e+003,-1.447494e-002
2.375971e+003,-1.442507e-002
2.377900e+003,-1.434802e-002
2.379828e+003,-1.434122e-002
2.381757e+003,-1.437388e-002
2.383685e+003,-1.437142e-002
2.385614e+003,-1.431333e-002
2.387542e+003,-1.430265e-002
2.389471e+003,-1.434157e-002
2.391399e+003,-1.428707e-002
2.393328e+003,-1.421297e-002
2.395257e+003,-1.422987e-002
2.397185e+003,-1.428919e-002
2.399114e+003,-1.434952e-002
2.401042e+003,-1.435680e-002
2.402971e+003,-1.440934e-002
2.404899e+003,-1.445046e-002
2.406828e+003,-1.447087e-002
2.408756e+003,-1.449302e-002
2.410685e+003,-1.449010e-002
2.412614e+003,-1.443148e-002
2.414542e+003,-1.440815e-002
2.416471e+003,-1.447433e-002
2.418399e+003,-1.453452e-002
2.420328e+003,-1.454224e-002
2.422256e+003,-1.452590e-002
2.424185e+003,-1.455131e-002
2.426113e+003,-1.455284e-002
2.428042e+003,-1.459216e-002
2.429970e+003,-1.470422e-002
2.431899e+003,-1.472939e-002
2.433828e+003,-1.471178e-002
2.435756e+003,-1.477699e-002
2.437685e+003,-1.486345e-002
2.439613e+003,-1.487856e-002
2.441542e+003,-1.486639e-002
2.443470e+003,-1.497790e-002
2.445399e+003,-1.516768e-002
2.447327e+003,-1.521292e-002
2.449256e+003,-1.511754e-002
2.451185e+003,-1.511197e-002
2.453113e+003,-1.518438e-002
2.455042e+003,-1.525007e-002
2.456970e+003,-1.529495e-002
2.458899e+003,-1.531628e-002
2.460827e+003,-1.533848e-002
2.462756e+003,-1.536710e-002
2.464684e+003,-1.542006e-002
2.466613e+003,-1.550905e-002
2.468542e+003,-1.554227e-002
2.470470e+003,-1.550752e-002
2.472398e+003,-1.551826e-002
2.474327e+003,-1.560425e-002
2.476256e+003,-1.567093e-002
2.478184e+003,-1.574548e-002
2.480113e+003,-1.573024e-002
2.482041e+003,-1.563986e-002
2.483970e+003,-1.567009e-002
2.485898e+003,-1.569825e-002
2.487827e+003,-1.566568e-002
2.489755e+003,-1.571567e-002
2.491684e+003,-1.577478e-002
2.493613e+003,-1.575478e-002
2.495541e+003,-1.569426e-002
2.497470e+003,-1.567661e-002
2.499398e+003,-1.567447e-002
2.501327e+003,-1.562049e-002
2.503255e+003,-1.557820e-002
2.505184e+003,-1.553447e-002
2.507112e+003,-1.538121e-002
2.509041e+003,-1.530864e-002
2.510969e+003,-1.541677e-002
2.512898e+003,-1.544341e-002
2.514827e+003,-1.542352e-002
2.516755e+003,-1.538530e-002
2.518684e+003,-1.536240e-002
2.520612e+003,-1.539116e-002
2.522541e+003,-1.541632e-002
2.524469e+003,-1.539109e-002
2.526398e+003,-1.526481e-002
2.528326e+003,-1.518877e-002
2.530255e+003,-1.523785e-002
2.532184e+003,-1.521798e-002
2.534112e+003,-1.511952e-002
2.536041e+003,-1.511488e-002
2.537969e+003,-1.512839e-002
2.539898e+003,-1.512112e-002
2.541826e+003,-1.509546e-002
2.543755e+003,-1.508442e-002
2.545683e+003,-1.505811e-002
2.547612e+003,-1.501657e-002
2.549541e+003,-1.496055e-002
2.551469e+003,-1.492421e-002
2.553397e+003,-1.489386e-002
2.555326e+003,-1.486495e-002
2.557255e+003,-1.489117e-002
2.559183e+003,-1.490997e-002
2.561112e+003,-1.489681e-002
2.563040e+003,-1.491359e-002
2.564969e+003,-1.490747e-002
2.566897e+003,-1.485980e-002
2.568826e+003,-1.485659e-002
2.570754e+003,-1.482438e-002
2.572683e+003,-1.476709e-002
2.574612e+003,-1.474458e-002
2.576540e+003,-1.473862e-002
2.578469e+003,-1.481388e-002
2.580397e+003,-1.476238e-002
2.582326e+003,-1.460555e-002
2.584254e+003,-1.459885e-002
2.586183e+003,-1.462599e-002
2.588111e+003,-1.460962e-002
2.590040e+003,-1.460052e-002
2.591969e+003,-1.460658e-002
2.593897e+003,-1.460036e-002
2.595826e+003,-1.461817e-002
2.597754e+003,-1.457902e-002
2.599683e+003,-1.455224e-002
2.601611e+003,-1.456967e-002
2.603540e+003,-1.460270e-002
2.605468e+003,-1.460728e-002
2.607397e+003,-1.454644e-002
2.609325e+003,-1.454217e-002
2.611254e+003,-1.460167e-002
2.613183e+003,-1.463339e-002
2.615111e+003,-1.465473e-002
2.617040e+003,-1.466187e-002
2.618968e+003,-1.460231e-002
2.620897e+003,-1.455794e-002
2.622825e+003,-1.453163e-002
2.624754e+003,-1.449500e-002
2.626682e+003,-1.442581e-002
2.628611e+003,-1.440729e-002
2.630540e+003,-1.444370e-002
2.632468e+003,-1.442655e-002
2.634396e+003,-1.443648e-002
2.636325e+003,-1.441225e-002
2.638254e+003,-1.445296e-002
2.640182e+003,-1.460578e-002
2.642111e+003,-1.472574e-002
2.644039e+003,-1.472075e-002
2.645968e+003,-1.463871e-002
2.647896e+003,-1.463909e-002
2.649825e+003,-1.465437e-002
2.651753e+003,-1.463544e-002
2.653682e+003,-1.463515e-002
2.655611e+003,-1.467238e-002
2.657539e+003,-1.466962e-002
2.659468e+003,-1.461849e-002
2.661396e+003,-1.464717e-002
2.663325e+003,-1.470829e-002
2.665253e+003,-1.475572e-002
2.667182e+003,-1.472946e-002
2.669110e+003,-1.472648e-002
2.671039e+003,-1.477737e-002
2.672968e+003,-1.480136e-002
2.674896e+003,-1.480232e-002
2.676825e+003,-1.484417e-002
2.678753e+003,-1.488912e-002
2.680682e+003,-1.485595e-002
2.682610e+003,-1.491868e-002
2.684539e+003,-1.488304e-002
2.686467e+003,-1.475181e-002
2.688396e+003,-1.474032e-002
2.690324e+003,-1.471367e-002
2.692253e+003,-1.468740e-002
2.694182e+003,-1.471072e-002
2.696110e+003,-1.466943e-002
2.698039e+003,-1.462929e-002
2.699967e+003,-1.464031e-002
2.701896e+003,-1.460635e-002
2.703824e+003,-1.453128e-002
2.705753e+003,-1.453106e-002
2.707681e+003,-1.457963e-002
2.709610e+003,-1.460151e-002
2.711539e+003,-1.459591e-002
2.713467e+003,-1.457877e-002
2.715396e+003,-1.456496e-002
2.717324e+003,-1.454535e-002
2.719253e+003,-1.456531e-002
2.721181e+003,-1.457111e-002
2.723110e+003,-1.445536e-002
2.725038e+003,-1.438950e-002
2.726967e+003,-1.444844e-002
2.728896e+003,-1.445235e-002
2.730824e+003,-1.441639e-002
2.732752e+003,-1.444430e-002
2.734681e+003,-1.445155e-002
2.736610e+003,-1.447841e-002
2.738538e+003,-1.446738e-002
2.740467e+003,-1.444479e-002
2.742395e+003,-1.446661e-002
2.744324e+003,-1.445357e-002
2.746252e+003,-1.439498e-002
2.748181e+003,-1.438078e-002
2.750109e+003,-1.444039e-002
2.752038e+003,-1.437247e-002
2.753967e+003,-1.430496e-002
2.755895e+003,-1.432263e-002
2.757824e+003,-1.434917e-002
2.759752e+003,-1.433952e-002
2.761681e+003,-1.438225e-002
2.763609e+003,-1.443373e-002
2.765538e+003,-1.433897e-002
2.767466e+003,-1.419844e-002
2.769395e+003,-1.424584e-002
2.771323e+003,-1.434388e-002
2.773252e+003,-1.435494e-002
2.775181e+003,-1.433612e-002
2.777109e+003,-1.431522e-002
2.779038e+003,-1.432814e-002
2.780966e+003,-1.434061e-002
2.782895e+003,-1.429188e-002
2.784823e+003,-1.429037e-002
2.786752e+003,-1.423311e-002
2.788680e+003,-1.415720e-002
2.790609e+003,-1.423532e-002
2.792538e+003,-1.431083e-002
2.794466e+003,-1.421842e-002
2.796395e+003,-1.413459e-002
2.798323e+003,-1.418382e-002
2.800252e+003,-1.420139e-002
2.802180e+003,-1.413546e-002
2.804109e+003,-1.411214e-002
2.806037e+003,-1.406928e-002
2.807966e+003,-1.407820e-002
2.809895e+003,-1.408824e-002
2.811823e+003,-1.408346e-002
2.813751e+003,-1.418366e-002
2.815680e+003,-1.423362e-002
2.817609e+003,-1.423077e-002
2.819537e+003,-1.423516e-002
2.821466e+003,-1.423612e-002
2.823394e+003,-1.423856e-002
2.825323e+003,-1.419815e-002
2.827251e+003,-1.413279e-002
2.829180e+003,-1.404227e-002
2.831108e+003,-1.390976e-002
2.833037e+003,-1.381246e-002
2.834966e+003,-1.374550e-002
2.836894e+003,-1.356929e-002
2.838823e+003,-1.331788e-002
2.840751e+003,-1.310257e-002
2.842680e+003,-1.286003e-002
2.844608e+003,-1.247955e-002
2.846537e+003,-1.194507e-002
2.848465e+003,-1.129837e-002
2.850394e+003,-1.071637e-002
2.852323e+003,-1.040776e-002
2.854251e+003,-1.032342e-002
2.856180e+003,-1.038111e-002
2.858108e+003,-1.058969e-002
2.860037e+003,-1.087425e-002
2.861965e+003,-1.114006e-002
2.863894e+003,-1.135919e-002
2.865822e+003,-1.141486e-002
2.867751e+003,-1.141034e-002
2.869679e+003,-1.140389e-002
2.871608e+003,-1.143323e-002
2.873537e+003,-1.149222e-002
2.875465e+003,-1.141528e-002
2.877394e+003,-1.146340e-002
2.879322e+003,-1.156759e-002
2.881251e+003,-1.151461e-002
2.883179e+003,-1.134824e-002
2.885108e+003,-1.115937e-002
2.887036e+003,-1.113977e-002
2.888965e+003,-1.104771e-002
2.890894e+003,-1.082264e-002
2.892822e+003,-1.071129e-002
2.894750e+003,-1.068093e-002
2.896679e+003,-1.054083e-002
2.898608e+003,-1.027747e-002
2.900536e+003,-1.000331e-002
2.902465e+003,-9.747788e-003
2.904393e+003,-9.435872e-003
2.906322e+003,-9.108644e-003
2.908250e+003,-8.822762e-003
2.910179e+003,-8.628335e-003
2.912107e+003,-8.485032e-003
2.914036e+003,-8.201080e-003
2.915965e+003,-7.877085e-003
2.917893e+003,-7.607225e-003
2.919822e+003,-7.244370e-003
2.921750e+003,-6.983800e-003
2.923679e+003,-6.880232e-003
2.925607e+003,-6.936323e-003
2.927536e+003,-7.084409e-003
2.929464e+003,-7.286762e-003
2.931393e+003,-7.608658e-003
2.933322e+003,-7.863419e-003
2.935250e+003,-8.065735e-003
2.937179e+003,-8.227969e-003
2.939107e+003,-8.354130e-003
2.941036e+003,-8.407237e-003
2.942964e+003,-8.461019e-003
2.944893e+003,-8.405677e-003
2.946821e+003,-8.129738e-003
2.948750e+003,-7.737245e-003
2.950678e+003,-7.419288e-003
2.952607e+003,-7.096469e-003
2.954536e+003,-6.631681e-003
2.956464e+003,-6.252561e-003
2.958393e+003,-6.033844e-003
2.960321e+003,-5.881151e-003
2.962250e+003,-5.810506e-003
2.964178e+003,-5.818483e-003
2.966107e+003,-5.921715e-003
2.968035e+003,-6.093672e-003
2.969964e+003,-6.326269e-003
2.971893e+003,-6.667672e-003
2.973821e+003,-6.997950e-003
2.975750e+003,-7.320060e-003
2.977678e+003,-7.768166e-003
2.979607e+003,-8.202901e-003
2.981535e+003,-8.637365e-003
2.983464e+003,-9.067533e-003
2.985392e+003,-9.418753e-003
2.987321e+003,-9.706575e-003
2.989250e+003,-1.000816e-002
2.991178e+003,-1.024395e-002
2.993106e+003,-1.042950e-002
2.995035e+003,-1.062468e-002
2.996964e+003,-1.079346e-002
2.998892e+003,-1.091151e-002
3.000821e+003,-1.099338e-002
3.002749e+003,-1.109665e-002
3.004678e+003,-1.121368e-002
3.006606e+003,-1.136187e-002
3.008535e+003,-1.157143e-002
3.010463e+003,-1.181862e-002
3.012392e+003,-1.200576e-002
3.014321e+003,-1.217694e-002
3.016249e+003,-1.227516e-002
3.018178e+003,-1.245656e-002
3.020106e+003,-1.267040e-002
3.022035e+003,-1.284482e-002
3.023963e+003,-1.298965e-002
3.025892e+003,-1.308103e-002
3.027820e+003,-1.312739e-002
3.029749e+003,-1.324044e-002
3.031677e+003,-1.336030e-002
3.033606e+003,-1.344688e-002
3.035535e+003,-1.343544e-002
3.037463e+003,-1.344457e-002
3.039392e+003,-1.348575e-002
3.041320e+003,-1.349275e-002
3.043249e+003,-1.340949e-002
3.045177e+003,-1.325561e-002
3.047106e+003,-1.308450e-002
3.049034e+003,-1.282455e-002
3.050963e+003,-1.265221e-002
3.052892e+003,-1.258804e-002
3.054820e+003,-1.255961e-002
3.056749e+003,-1.265270e-002
3.058677e+003,-1.282526e-002
3.060606e+003,-1.289657e-002
3.062534e+003,-1.279791e-002
3.064463e+003,-1.270596e-002
3.066391e+003,-1.262380e-002
3.068320e+003,-1.268060e-002
3.070249e+003,-1.282609e-002
3.072177e+003,-1.290455e-002
3.074105e+003,-1.288326e-002
3.076034e+003,-1.287361e-002
3.077963e+003,-1.286868e-002
3.079891e+003,-1.287406e-002
3.081820e+003,-1.292883e-002
3.083748e+003,-1.296993e-002
3.085677e+003,-1.314703e-002
3.087605e+003,-1.330050e-002
3.089534e+003,-1.333514e-002
3.091462e+003,-1.336878e-002
3.093391e+003,-1.332245e-002
3.095320e+003,-1.329931e-002
3.097248e+003,-1.336724e-002
3.099177e+003,-1.340679e-002
3.101105e+003,-1.331747e-002
3.103034e+003,-1.320479e-002
3.104962e+003,-1.328202e-002
3.106891e+003,-1.335773e-002
3.108819e+003,-1.336644e-002
3.110748e+003,-1.341713e-002
3.112677e+003,-1.344916e-002
3.114605e+003,-1.351967e-002
3.116534e+003,-1.366803e-002
3.118462e+003,-1.375201e-002
3.120391e+003,-1.368951e-002
3.122319e+003,-1.364115e-002
3.124248e+003,-1.365670e-002
3.126176e+003,-1.365249e-002
3.128105e+003,-1.365365e-002
3.130033e+003,-1.364632e-002
3.131962e+003,-1.362786e-002
3.133891e+003,-1.358213e-002
3.135819e+003,-1.362870e-002
3.137748e+003,-1.377609e-002
3.139676e+003,-1.388399e-002
3.141605e+003,-1.393996e-002
3.143533e+003,-1.392719e-002
3.145462e+003,-1.391917e-002
3.147390e+003,-1.385989e-002
3.149319e+003,-1.383236e-002
3.151248e+003,-1.387068e-002
3.153176e+003,-1.397490e-002
3.155104e+003,-1.407560e-002
3.157033e+003,-1.407496e-002
3.158962e+003,-1.401953e-002
3.160890e+003,-1.395966e-002
3.162819e+003,-1.387141e-002
3.164747e+003,-1.384385e-002
3.166676e+003,-1.385315e-002
3.168604e+003,-1.389227e-002
3.170533e+003,-1.391689e-002
3.172461e+003,-1.382748e-002
3.174390e+003,-1.368058e-002
3.176319e+003,-1.365365e-002
3.178247e+003,-1.376566e-002
3.180176e+003,-1.382713e-002
3.182104e+003,-1.387620e-002
3.184033e+003,-1.387517e-002
3.185961e+003,-1.383297e-002
3.187890e+003,-1.388531e-002
3.189818e+003,-1.385832e-002
3.191747e+003,-1.383637e-002
3.193676e+003,-1.387864e-002
3.195604e+003,-1.391490e-002
3.197532e+003,-1.393935e-002
3.199461e+003,-1.391240e-002
3.201390e+003,-1.399906e-002
3.203318e+003,-1.408141e-002
3.205247e+003,-1.395424e-002
3.207175e+003,-1.379153e-002
3.209104e+003,-1.373696e-002
3.211032e+003,-1.378325e-002
3.212961e+003,-1.385152e-002
3.214889e+003,-1.382244e-002
3.216818e+003,-1.386650e-002
3.218747e+003,-1.394557e-002
3.220675e+003,-1.399341e-002
3.222604e+003,-1.399470e-002
3.224532e+003,-1.388881e-002
3.226461e+003,-1.385405e-002
3.228389e+003,-1.380170e-002
3.230318e+003,-1.379788e-002
3.232246e+003,-1.386529e-002
3.234175e+003,-1.369513e-002
3.236104e+003,-1.361328e-002
3.238032e+003,-1.373526e-002
3.239961e+003,-1.373596e-002
3.241889e+003,-1.375378e-002
3.243818e+003,-1.380203e-002
3.245746e+003,-1.387308e-002
3.247675e+003,-1.395876e-002
3.249603e+003,-1.398658e-002
3.251532e+003,-1.401500e-002
3.253460e+003,-1.390575e-002
3.255389e+003,-1.376806e-002
3.257318e+003,-1.381063e-002
3.259246e+003,-1.395918e-002
3.261175e+003,-1.398151e-002
3.263103e+003,-1.382067e-002
3.265032e+003,-1.371619e-002
3.266960e+003,-1.381846e-002
3.268889e+003,-1.392732e-002
3.270817e+003,-1.400082e-002
3.272746e+003,-1.380999e-002
3.274675e+003,-1.365172e-002
3.276603e+003,-1.371689e-002
3.278531e+003,-1.381345e-002
3.280460e+003,-1.378437e-002
3.282389e+003,-1.366973e-002
3.284317e+003,-1.369227e-002
3.286246e+003,-1.381429e-002
3.288174e+003,-1.390726e-002
3.290103e+003,-1.387793e-002
3.292031e+003,-1.379551e-002
3.293960e+003,-1.370412e-002
3.295888e+003,-1.372752e-002
3.297817e+003,-1.382022e-002
3.299746e+003,-1.383172e-002
3.301674e+003,-1.369272e-002
3.303603e+003,-1.362796e-002
3.305531e+003,-1.364520e-002
3.307460e+003,-1.380662e-002
3.309388e+003,-1.394368e-002
3.311317e+003,-1.385989e-002
3.313245e+003,-1.382138e-002
3.315174e+003,-1.375908e-002
3.317103e+003,-1.376675e-002
3.319031e+003,-1.381268e-002
3.320960e+003,-1.379824e-002
3.322888e+003,-1.373285e-002
3.324817e+003,-1.363932e-002
3.326745e+003,-1.361335e-002
3.328674e+003,-1.373105e-002
3.330602e+003,-1.374139e-002
3.332531e+003,-1.369676e-002
3.334459e+003,-1.375131e-002
3.336388e+003,-1.375230e-002
3.338317e+003,-1.378315e-002
3.340245e+003,-1.382504e-002
3.342174e+003,-1.388489e-002
3.344102e+003,-1.397853e-002
3.346031e+003,-1.393389e-002
3.347959e+003,-1.382083e-002
3.349888e+003,-1.391945e-002
3.351816e+003,-1.392696e-002
3.353745e+003,-1.391198e-002
3.355674e+003,-1.397118e-002
3.357602e+003,-1.397256e-002
3.359531e+003,-1.396787e-002
3.361459e+003,-1.395696e-002
3.363388e+003,-1.407820e-002
3.365316e+003,-1.425260e-002
3.367245e+003,-1.429028e-002
3.369173e+003,-1.421076e-002
3.371102e+003,-1.402344e-002
3.373031e+003,-1.403650e-002
3.374959e+003,-1.402023e-002
3.376887e+003,-1.395886e-002
3.378816e+003,-1.406171e-002
3.380745e+003,-1.412564e-002
3.382673e+003,-1.414097e-002
3.384602e+003,-1.411028e-002
3.386530e+003,-1.412253e-002
3.388459e+003,-1.406248e-002
3.390387e+003,-1.396553e-002
3.392316e+003,-1.396698e-002
3.394244e+003,-1.399835e-002
3.396173e+003,-1.406027e-002
3.398102e+003,-1.414501e-002
3.400030e+003,-1.421804e-002
3.401959e+003,-1.418966e-002
3.403887e+003,-1.410438e-002
3.405816e+003,-1.411185e-002
3.407744e+003,-1.413850e-002
3.409673e+003,-1.411891e-002
3.411601e+003,-1.414437e-002
3.413530e+003,-1.427476e-002
3.415458e+003,-1.436215e-002
3.417387e+003,-1.431150e-002
3.419316e+003,-1.428723e-002
3.421244e+003,-1.423230e-002
3.423173e+003,-1.420280e-002
3.425101e+003,-1.425215e-002
3.427030e+003,-1.427280e-002
3.428958e+003,-1.425045e-002
3.430887e+003,-1.424728e-002
3.432815e+003,-1.416095e-002
3.434744e+003,-1.416021e-002
3.436673e+003,-1.428752e-002
3.438601e+003,-1.429672e-002
3.440530e+003,-1.441100e-002
3.442458e+003,-1.453859e-002
3.444387e+003,-1.454092e-002
3.446315e+003,-1.460943e-002
3.448244e+003,-1.462359e-002
3.450172e+003,-1.462990e-002
3.452101e+003,-1.473115e-002
3.454030e+003,-1.471889e-002
3.455958e+003,-1.469297e-002
3.457886e+003,-1.478410e-002
3.459815e+003,-1.472344e-002
3.461744e+003,-1.457598e-002
3.463672e+003,-1.456701e-002
3.465601e+003,-1.455656e-002
3.467529e+003,-1.454804e-002
3.469458e+003,-1.459011e-002
3.471386e+003,-1.458719e-002
3.473315e+003,-1.453724e-002
3.475243e+003,-1.460472e-002
3.477172e+003,-1.457970e-002
3.479101e+003,-1.457303e-002
3.481029e+003,-1.444168e-002
3.482958e+003,-1.431647e-002
3.484886e+003,-1.436026e-002
3.486815e+003,-1.453849e-002
3.488743e+003,-1.464541e-002
3.490672e+003,-1.462368e-002
3.492600e+003,-1.465127e-002
3.494529e+003,-1.459892e-002
3.496458e+003,-1.447142e-002
3.498386e+003,-1.443046e-002
3.500315e+003,-1.450478e-002
3.502243e+003,-1.461113e-002
3.504172e+003,-1.452436e-002
3.506100e+003,-1.433631e-002
3.508029e+003,-1.434317e-002
3.509957e+003,-1.445482e-002
3.511886e+003,-1.455268e-002
3.513814e+003,-1.452526e-002
3.515743e+003,-1.445289e-002
3.517672e+003,-1.455349e-002
3.519600e+003,-1.460750e-002
3.521529e+003,-1.445828e-002
3.523457e+003,-1.449981e-002
3.525386e+003,-1.457704e-002
3.527314e+003,-1.456236e-002
3.529243e+003,-1.449667e-002
3.531171e+003,-1.443847e-002
3.533100e+003,-1.431407e-002
3.535029e+003,-1.419299e-002
3.536957e+003,-1.415829e-002
3.538885e+003,-1.418109e-002
3.540814e+003,-1.436401e-002
3.542743e+003,-1.461334e-002
3.544671e+003,-1.459741e-002
3.546600e+003,-1.454910e-002
3.548528e+003,-1.465521e-002
3.550457e+003,-1.461939e-002
3.552385e+003,-1.451628e-002
3.554314e+003,-1.449170e-002
3.556242e+003,-1.455086e-002
3.558171e+003,-1.457037e-002
3.560100e+003,-1.450068e-002
3.562028e+003,-1.453266e-002
3.563957e+003,-1.473881e-002
3.565885e+003,-1.482477e-002
3.567814e+003,-1.481471e-002
3.569742e+003,-1.488736e-002
3.571671e+003,-1.495248e-002
3.573599e+003,-1.492838e-002
3.575528e+003,-1.489181e-002
3.577457e+003,-1.504096e-002
3.579385e+003,-1.507578e-002
3.581314e+003,-1.510484e-002
3.583242e+003,-1.519872e-002
3.585171e+003,-1.530218e-002
3.587099e+003,-1.533023e-002
3.589028e+003,-1.534401e-002
3.590956e+003,-1.546870e-002
3.592885e+003,-1.541453e-002
3.594813e+003,-1.532044e-002
3.596742e+003,-1.536506e-002
3.598671e+003,-1.538306e-002
3.600599e+003,-1.531270e-002
3.602528e+003,-1.537235e-002
3.604456e+003,-1.546394e-002
3.606385e+003,-1.551746e-002
3.608313e+003,-1.551730e-002
3.610242e+003,-1.547369e-002
3.612170e+003,-1.546793e-002
3.614099e+003,-1.558044e-002
3.616028e+003,-1.556497e-002
3.617956e+003,-1.537197e-002
3.619885e+003,-1.543346e-002
3.621813e+003,-1.561656e-002
3.623742e+003,-1.568486e-002
3.625670e+003,-1.561080e-002
3.627599e+003,-1.559338e-002
3.629527e+003,-1.565111e-002
3.631456e+003,-1.569189e-002
3.633385e+003,-1.569384e-002
3.635313e+003,-1.567214e-002
3.637241e+003,-1.578712e-002
3.639170e+003,-1.585529e-002
3.641099e+003,-1.582747e-002
3.643027e+003,-1.592014e-002
3.644956e+003,-1.602809e-002
3.646884e+003,-1.600423e-002
3.648813e+003,-1.592557e-002
3.650741e+003,-1.594410e-002
3.652670e+003,-1.600647e-002
3.654598e+003,-1.605992e-002
3.656527e+003,-1.607308e-002
3.658456e+003,-1.613409e-002
3.660384e+003,-1.614457e-002
3.662313e+003,-1.613320e-002
3.664241e+003,-1.626637e-002
3.666170e+003,-1.642149e-002
3.668098e+003,-1.652941e-002
3.670027e+003,-1.653662e-002
3.671955e+003,-1.642564e-002
3.673884e+003,-1.647582e-002
3.675813e+003,-1.639408e-002
3.677741e+003,-1.635158e-002
3.679670e+003,-1.651569e-002
3.681598e+003,-1.662375e-002
3.683527e+003,-1.658985e-002
3.685455e+003,-1.661457e-002
3.687384e+003,-1.663670e-002
3.689312e+003,-1.666383e-002
3.691241e+003,-1.673261e-002
3.693169e+003,-1.677153e-002
3.695098e+003,-1.678683e-002
3.697027e+003,-1.678639e-002
3.698955e+003,-1.674740e-002
3.700884e+003,-1.674051e-002
3.702812e+003,-1.677268e-002
3.704741e+003,-1.681422e-002
3.706669e+003,-1.697761e-002
3.708598e+003,-1.713719e-002
3.710526e+003,-1.712079e-002
3.712455e+003,-1.693345e-002
3.714384e+003,-1.682289e-002
3.716312e+003,-1.684565e-002
3.718240e+003,-1.695741e-002
3.720169e+003,-1.698736e-002
3.722098e+003,-1.684093e-002
3.724026e+003,-1.688198e-002
3.725955e+003,-1.705497e-002
3.727883e+003,-1.711728e-002
3.729812e+003,-1.714690e-002
3.731740e+003,-1.713789e-002
3.733669e+003,-1.709062e-002
3.735597e+003,-1.713636e-002
3.737526e+003,-1.705144e-002
3.739455e+003,-1.693807e-002
3.741383e+003,-1.696688e-002
3.743312e+003,-1.713595e-002
3.745240e+003,-1.705857e-002
3.747169e+003,-1.710151e-002
3.749097e+003,-1.716398e-002
3.751026e+003,-1.706189e-002
3.752954e+003,-1.693456e-002
3.754883e+003,-1.697984e-002
3.756812e+003,-1.705800e-002
3.758740e+003,-1.700852e-002
3.760669e+003,-1.700329e-002
3.762597e+003,-1.709409e-002
3.764526e+003,-1.719270e-002
3.766454e+003,-1.727206e-002
3.768383e+003,-1.730543e-002
3.770311e+003,-1.727181e-002
3.772240e+003,-1.718538e-002
3.774168e+003,-1.718885e-002
3.776097e+003,-1.730473e-002
3.778026e+003,-1.730817e-002
3.779954e+003,-1.728932e-002
3.781883e+003,-1.723191e-002
3.783811e+003,-1.711228e-002
3.785740e+003,-1.705835e-002
3.787668e+003,-1.708275e-002
3.789597e+003,-1.711534e-002
3.791525e+003,-1.735857e-002
3.793454e+003,-1.750448e-002
3.795383e+003,-1.740731e-002
3.797311e+003,-1.723296e-002
3.799240e+003,-1.726862e-002
3.801168e+003,-1.730868e-002
3.803097e+003,-1.728967e-002
3.805025e+003,-1.733972e-002
3.806954e+003,-1.719646e-002
3.808882e+003,-1.708798e-002
3.810811e+003,-1.713611e-002
3.812740e+003,-1.729359e-002
3.814668e+003,-1.749172e-002
3.816596e+003,-1.751244e-002
3.818525e+003,-1.745480e-002
3.820454e+003,-1.742851e-002
3.822382e+003,-1.733373e-002
3.824311e+003,-1.727241e-002
3.826239e+003,-1.723404e-002
3.828168e+003,-1.732450e-002
3.830096e+003,-1.748176e-002
3.832025e+003,-1.745938e-002
3.833953e+003,-1.738623e-002
3.835882e+003,-1.742408e-002
3.837811e+003,-1.737509e-002
3.839739e+003,-1.728588e-002
3.841668e+003,-1.734567e-002
3.843596e+003,-1.736774e-002
3.845525e+003,-1.731699e-002
3.847453e+003,-1.727066e-002
3.849382e+003,-1.727063e-002
3.851310e+003,-1.741886e-002
3.853239e+003,-1.739604e-002
3.855167e+003,-1.723242e-002
3.857096e+003,-1.731240e-002
3.859025e+003,-1.735265e-002
3.860953e+003,-1.735156e-002
3.862882e+003,-1.728470e-002
3.864810e+003,-1.728037e-002
3.866739e+003,-1.739588e-002
3.868667e+003,-1.751950e-002
3.870596e+003,-1.758846e-002
3.872524e+003,-1.777605e-002
3.874453e+003,-1.769809e-002
3.876382e+003,-1.754009e-002
3.878310e+003,-1.768266e-002
3.880239e+003,-1.782570e-002
3.882167e+003,-1.764083e-002
3.884096e+003,-1.754334e-002
3.886024e+003,-1.769695e-002
3.887953e+003,-1.783657e-002
3.889881e+003,-1.772895e-002
3.891810e+003,-1.762403e-002
3.893739e+003,-1.766736e-002
3.895667e+003,-1.761903e-002
3.897595e+003,-1.762244e-002
3.899524e+003,-1.766100e-002
3.901453e+003,-1.774005e-002
3.903381e+003,-1.771241e-002
3.905310e+003,-1.759479e-002
3.907238e+003,-1.769288e-002
3.909167e+003,-1.790004e-002
3.911095e+003,-1.784478e-002
3.913024e+003,-1.781670e-002
3.914952e+003,-1.790450e-002
3.916881e+003,-1.785085e-002
3.918810e+003,-1.785289e-002
3.920738e+003,-1.786303e-002
3.922667e+003,-1.781349e-002
3.924595e+003,-1.779444e-002
3.926524e+003,-1.774297e-002
3.928452e+003,-1.773531e-002
3.930381e+003,-1.787957e-002
3.932309e+003,-1.786580e-002
3.934238e+003,-1.779917e-002
3.936167e+003,-1.793823e-002
3.938095e+003,-1.807845e-002
3.940024e+003,-1.804371e-002
3.941952e+003,-1.797489e-002
3.943881e+003,-1.792866e-002
3.945809e+003,-1.799580e-002
3.947738e+003,-1.796188e-002
3.949666e+003,-1.792939e-002
3.951595e+003,-1.791896e-002
3.953523e+003,-1.782840e-002
3.955452e+003,-1.775503e-002
3.957380e+003,-1.788354e-002
3.959309e+003,-1.798334e-002
3.961238e+003,-1.805769e-002
3.963166e+003,-1.810368e-002
3.965095e+003,-1.800877e-002
3.967023e+003,-1.788275e-002
3.968952e+003,-1.789572e-002
3.970880e+003,-1.793899e-002
3.972809e+003,-1.802988e-002
3.974737e+003,-1.809202e-002
3.976666e+003,-1.812300e-002
3.978594e+003,-1.805134e-002
3.980523e+003,-1.799507e-002
3.982452e+003,-1.796179e-002
3.984380e+003,-1.795254e-002
3.986309e+003,-1.792233e-002
3.988237e+003,-1.779068e-002
3.990166e+003,-1.788338e-002
3.992094e+003,-1.820111e-002
3.994023e+003,-1.830271e-002
3.995951e+003,-1.830256e-002
3.997880e+003,-1.831825e-002
3.999809e+003,-1.817023e-002
4.001737e+003,0.000000e+000
