3200.66	58.9388
3200.06	54.7289
3199.47	33.6742
3198.87	54.7123
3198.28	42.08
3197.69	21.0368
3197.09	46.274
3196.5	54.6792
3195.9	46.2601
3195.31	58.8675
3194.71	33.6335
3194.12	37.832
3193.52	46.2321
3192.93	25.2137
3192.33	16.8066
3191.74	54.6131
3191.14	37.8034
3190.55	37.7977
3189.95	41.991
3189.36	4.19847
3188.76	46.1762
3188.17	41.972
3187.57	12.5897
3186.97	50.3512
3186.38	12.5859
3185.78	20.9733
3185.19	4.19403
3184.59	37.7405
3183.99	41.9276
3183.4	25.1527
3182.8	0
3182.2	12.5726
3181.61	37.712
3181.01	50.275
3180.41	58.6453
3179.82	50.2598
3179.22	46.0645
3178.62	50.2446
3178.03	37.6777
3177.43	25.1147
3176.83	29.296
3176.23	4.18451
3175.64	29.2872
3175.04	16.733
3174.44	54.374
3173.84	58.5477
3173.25	37.6321
3172.65	25.0843
3172.05	66.8813
3171.45	45.9739
3170.85	25.0729
3170.26	45.96
3169.66	58.4857
3169.06	50.123
3168.46	29.234
3167.86	50.1078
3167.26	45.9252
3166.66	33.3951
3166.06	16.695
3165.47	20.8656
3164.87	41.7249
3164.27	41.7185
3163.67	16.6849
3163.07	20.8529
3162.47	37.5296
3161.87	41.6933
3161.27	58.3617
3160.67	45.8487
3160.07	25.0046
3159.47	29.1676
3158.87	37.4955
3158.27	12.4966
3157.67	16.6596
3157.07	70.7926
3156.47	45.8
3155.87	70.7711
3155.27	58.2733
3154.67	62.4262
3154.07	37.45
3153.46	33.2839
3152.86	29.119
3152.26	33.2738
3151.66	24.9515
3151.06	49.8955
3150.46	24.944
3149.86	24.9402
3149.26	29.0925
3148.65	24.9326
3148.05	33.2384
3147.45	16.6167
3146.85	-4.15354
3146.25	20.7646
3145.64	62.2843
3145.04	4.15165
3144.44	33.2082
3143.84	8.30079
3143.24	8.29953
3142.63	58.0879
3142.03	53.9305
3141.43	45.6266
3140.82	53.9142
3140.22	37.3195
3139.62	0
3139.02	12.4361
3138.41	8.28945
3137.81	16.5764
3137.21	49.7216
3136.6	20.7142
3136	41.4221
3135.4	37.2742
3134.79	20.7047
3134.19	33.1226
3133.58	12.4191
3132.98	16.5563
3132.38	49.6612
3131.77	33.1024
3131.17	24.8231
3130.56	4.13655
3129.96	28.9514
3129.35	24.8117
3128.75	-4.13466
3128.14	16.5361
3127.54	16.5336
3126.93	0
3126.33	74.3787
3125.72	-16.5261
3125.12	37.178
3124.51	24.7816
3123.91	28.9075
3123.3	82.5802
3122.7	33.027
3122.09	57.7885
3121.49	-8.25425
3120.88	74.277
3120.27	28.8811
3119.67	12.3757
3119.06	32.9969
3118.46	32.9919
3117.85	37.1102
3117.24	45.3501
3116.64	37.099
3116.03	32.9718
3115.42	-4.12085
3114.82	37.082
3114.21	24.7176
3113.6	74.1415
3113	49.4201
3112.39	41.1772
3111.78	61.7564
3111.17	41.1647
3110.57	45.2742
3109.96	45.2673
3109.35	86.4063
3108.74	61.7094
3108.14	45.2467
3107.53	37.0144
3106.92	28.7846
3106.31	45.226
3105.7	53.4408
3105.1	69.8735
3104.49	28.767
3103.88	45.1985
3103.27	28.7583
3102.66	41.077
3102.05	32.8566
3101.44	57.4903
3100.84	86.2223
3100.23	36.9468
3099.62	28.732
3099.01	57.4553
3098.4	53.3432
3097.79	24.6162
3097.18	4.10207
3096.57	20.5072
3095.96	36.9074
3095.35	57.4028
3094.74	32.7966
3094.13	16.3958
3093.52	20.4916
3092.91	32.7816
3092.3	16.3883
3091.69	16.3858
3091.08	20.4791
3090.47	65.5232
3089.86	49.1349
3089.25	69.5972
3088.64	-16.3733
3088.03	20.4635
3087.42	57.2891
3086.81	65.4633
3086.19	65.4533
3085.58	32.7217
3084.97	49.075
3084.36	24.5338
3083.75	-12.265
3083.14	57.228
3082.53	28.6096
3081.91	44.9511
3081.3	32.6867
3080.69	49.0226
3080.08	49.0152
3079.47	12.2519
3078.85	28.5835
3078.24	48.9927
3077.63	24.4926
3077.02	73.4667
3076.4	20.4043
3075.79	24.4814
3075.18	48.9554
3074.57	44.8689
3073.95	-4.07837
3073.34	61.1662
3072.73	-12.2314
3072.11	48.918
3071.5	24.4553
3070.89	20.3763
3070.27	48.8956
3069.66	32.5921
3069.05	20.3669
3068.43	36.6549
3067.82	4.07215
3067.2	36.6437
3066.59	40.709
3065.98	12.2108
3065.36	0
3064.75	24.4142
3064.13	81.3683
3063.52	8.13559
3062.9	8.13434
3062.29	44.7321
3061.67	44.7252
3061.06	60.9796
3060.44	8.12937
3059.83	24.3844
3059.21	36.571
3058.6	24.3769
3057.98	64.9953
3057.37	28.4311
3056.75	4.06096
3056.14	-12.181
3055.52	28.418
3054.9	16.2364
3054.29	44.6433
3053.67	20.2893
3053.06	44.6296
3052.44	40.5662
3051.82	44.616
3051.21	12.1661
3050.59	4.05476
3049.97	48.6496
3049.36	40.5352
3048.74	24.3174
3048.12	20.2614
3047.51	20.2583
3046.89	24.3062
3046.27	20.2521
3045.65	20.249
3045.04	28.3443
3044.42	32.3885
3043.8	40.4794
3043.18	40.4732
3042.57	44.5137
3041.95	56.6452
3041.33	24.2728
3040.71	48.5381
3040.09	56.6191
3039.48	44.4797
3038.86	44.4729
3038.24	48.5084
3037.62	56.5845
3037	48.4936
3036.38	32.3241
3035.76	32.3191
3035.14	32.3142
3034.53	56.5412
3033.91	76.7227
3033.29	28.2619
3032.67	28.2576
3032.05	40.3618
3031.43	12.1067
3030.81	32.2796
3030.19	20.1716
3029.57	28.236
3028.95	40.3309
3028.33	32.2598
3027.71	16.1274
3027.09	12.0937
3026.47	56.4287
3025.85	40.3
3025.23	24.1763
3024.61	36.2589
3023.99	28.1971
3023.37	24.1652
3022.75	48.323
3022.13	48.3156
3021.5	28.1798
3020.88	52.3259
3020.26	68.4156
3019.64	44.2622
3019.02	56.325
3018.4	16.0904
3017.78	48.2638
3017.15	40.2137
3016.53	52.2697
3015.91	48.2416
3015.29	16.0781
3014.67	32.1512
3014.04	72.3291
3013.42	24.106
3012.8	36.1535
3012.18	52.2137
3011.56	40.1582
3010.93	56.2128
3010.31	52.1896
3009.69	32.1118
3009.06	60.2003
3008.44	48.1529
3007.82	28.0849
3007.19	40.1151
3006.57	40.1089
3005.95	52.1336
3005.32	32.0773
3004.7	20.0452
3004.08	64.1349
3003.45	48.0938
3002.83	28.0504
3002.21	52.0856
3001.58	24.0358
3000.96	8.01071
3000.33	24.0284
2999.71	52.0536
2999.08	28.0246
2998.46	48.0348
2997.84	36.0205
2997.21	44.0183
2996.59	28.0074
2995.96	20.0022
2995.34	67.997
2994.71	23.9953
2994.09	39.9859
2993.46	19.9899
2992.83	23.9842
2992.21	11.9903
2991.58	15.9846
2990.96	63.9284
2990.33	39.9491
2989.71	27.9601
2989.08	23.9621
2988.45	27.9515
2987.83	39.9246
2987.2	79.8368
2986.58	47.8947
2985.95	31.9249
2985.32	59.85
2984.7	43.8833
2984.07	43.8765
2983.44	79.7632
2982.82	39.8755
2982.19	23.9216
2981.56	7.97264
2980.93	55.7999
2980.31	67.7466
2979.68	51.7983
2979.05	63.7419
2978.42	51.7824
2977.8	27.8785
2977.17	43.8024
2976.54	43.7956
2975.91	19.904
2975.28	27.8614
2974.66	67.6529
2974.03	43.7687
2973.4	47.7403
2972.77	19.8887
2972.14	35.7942
2971.51	39.7652
2970.88	31.8073
2970.26	51.6789
2969.63	55.6456
2969	43.7148
2968.37	19.8673
2967.74	75.4842
2967.11	39.7224
2966.48	31.773
2965.85	71.4783
2965.22	31.7633
2964.59	51.6073
2963.96	59.5378
2963.33	43.6543
2962.7	23.8078
2962.07	43.6409
2961.44	47.6009
2960.81	31.729
2960.18	59.4828
2959.55	67.4034
2958.92	23.7858
2958.29	75.31
2957.66	63.4092
2957.03	63.3994
2956.4	67.3515
2955.76	67.3411
2955.13	47.5276
2954.5	51.4803
2953.87	71.2694
2953.24	47.5056
2952.61	31.6655
2951.98	43.5334
2951.34	31.6558
2950.71	51.4327
2950.08	35.6018
2949.45	31.6411
2948.82	7.90907
2948.18	15.8157
2947.55	63.253
2946.92	59.2906
2946.29	39.521
2945.65	43.4663
2945.02	90.8702
2944.39	27.6519
2943.76	90.8421
2943.12	67.1338
2942.49	63.175
2941.86	75.0088
2941.22	86.8389
2940.59	55.2526
2939.96	98.6501
2939.32	71.0171
2938.69	122.288
2938.05	74.9394
2937.42	74.9278
2936.79	74.9163
2936.15	110.386
2935.52	78.8349
2934.88	86.705
2934.25	90.6321
2933.61	102.438
2932.98	114.24
2932.34	63.0193
2931.71	129.957
2931.08	141.75
2930.44	98.422
2929.81	118.088
2929.17	110.199
2928.53	98.3764
2927.9	121.968
2927.26	121.949
2926.63	129.797
2925.99	94.383
2925.36	82.5724
2924.72	133.668
2924.08	121.855
2923.45	125.766
2922.81	102.169
2922.18	137.514
2921.54	125.708
2920.9	74.6276
2920.27	109.961
2919.63	90.3108
2918.99	117.778
2918.36	129.536
2917.72	145.215
2917.08	98.1032
2916.44	113.782
2915.81	121.61
2915.17	66.6793
2914.53	105.886
2913.9	90.1852
2913.26	137.217
2912.62	94.0773
2911.98	113.659
2911.34	125.398
2910.71	125.378
2910.07	184.121
2909.43	152.757
2908.79	109.655
2908.15	152.71
2907.51	140.941
2906.88	105.69
2906.24	101.76
2905.6	164.355
2904.96	93.9028
2904.32	125.184
2903.68	132.988
2903.04	164.254
2902.4	136.857
2901.76	78.1918
2901.12	144.633
2900.48	128.977
2899.84	171.942
2899.2	164.101
2898.56	156.263
2897.92	160.144
2897.28	210.889
2896.64	179.619
2896	179.591
2895.36	156.142
2894.72	195.147
2894.08	167.8
2893.44	156.069
2892.8	198.958
2892.16	179.424
2891.52	159.897
2890.88	194.966
2890.24	191.037
2889.59	183.211
2888.95	206.568
2888.31	175.361
2887.67	222.089
2887.03	214.263
2886.39	206.44
2885.74	202.513
2885.1	198.588
2884.46	151.838
2883.82	186.848
2883.18	214.064
2882.53	210.139
2881.89	268.47
2881.25	322.892
2880.6	299.504
2879.96	377.239
2879.32	396.622
2878.68	373.234
2878.03	342.078
2877.39	357.572
2876.75	345.858
2876.1	318.606
2875.46	283.593
2874.82	283.549
2874.17	299.04
2873.53	252.397
2872.88	260.123
2872.24	248.437
2871.6	240.636
2870.95	240.599
2870.31	209.521
2869.66	263.801
2869.02	232.729
2868.37	236.571
2867.73	205.514
2867.08	197.728
2866.44	189.944
2865.79	166.66
2865.15	232.513
2864.5	251.849
2863.86	213.07
2863.21	255.645
2862.57	216.877
2861.92	205.227
2861.28	259.397
2860.63	224.518
2859.98	224.483
2859.34	216.709
2858.69	236.021
2858.05	278.539
2857.4	266.892
2856.75	278.452
2856.11	274.542
2855.46	251.303
2854.81	297.651
2854.17	293.74
2853.52	247.321
2852.87	270.466
2852.23	270.424
2851.58	339.908
2850.93	312.821
2850.28	316.634
2849.64	355.193
2848.99	339.697
2848.34	343.504
2847.69	416.771
2847.05	320.247
2846.4	385.779
2845.75	397.291
2845.1	343.237
2844.45	366.32
2843.8	343.13
2843.16	404.754
2842.51	393.128
2841.86	373.799
2841.21	354.476
2840.56	315.897
2839.91	288.885
2839.26	281.138
2838.61	284.945
2837.96	242.55
2837.31	207.868
2836.66	242.475
2836.01	234.741
2835.36	196.228
2834.72	176.963
2834.07	169.242
2833.42	184.599
2832.76	176.88
2832.11	161.474
2831.46	115.321
2830.81	92.2421
2830.16	107.599
2829.51	107.582
2828.86	84.5158
2828.21	96.0257
2827.56	76.8086
2826.91	103.676
2826.26	95.9809
2825.61	80.6114
2824.96	76.7608
2824.3	95.9361
2823.65	84.4106
2823	69.0525
2822.35	76.713
2821.7	76.7011
2821.04	69.0202
2820.39	65.1756
2819.74	68.9987
2819.09	49.8247
2818.44	42.1528
2817.78	80.4609
2817.13	11.4926
2816.48	61.2844
2815.83	7.65936
2815.17	49.7781
2814.52	49.7703
2813.87	65.0742
2813.21	65.064
2812.56	61.2272
2811.91	76.522
2811.25	38.2551
2810.6	34.4242
2809.95	61.189
2809.29	15.2949
2808.64	38.2312
2807.98	45.8703
2807.33	64.9728
2806.68	57.32
2806.02	64.9525
2805.37	34.3813
2804.71	64.9323
2804.06	42.0085
2803.4	49.6386
2802.75	38.1776
2802.09	61.0746
2801.44	19.0828
2800.78	61.0556
2800.13	91.5691
2799.47	19.0739
2798.82	80.098
2798.16	72.4583
2797.51	64.821
2796.85	22.8744
2796.19	34.3063
2795.54	11.4336
2794.88	38.1062
2794.23	45.7203
2793.57	30.4754
2792.91	19.0442
2792.26	45.6989
2791.6	34.2688
2790.94	45.6846
2790.29	49.4839
2789.63	83.729
2788.97	3.80527
2788.32	41.8514
2787.66	30.4326
2787	76.0697
2786.34	91.2694
2785.69	64.6391
2785.03	64.629
2784.37	87.4256
2783.71	83.6114
2783.06	60.7988
2782.4	87.3846
2781.74	72.176
2781.08	53.174
2780.42	56.9633
2779.76	64.5483
2779.11	79.7236
2778.45	18.9789
2777.79	37.9518
2777.13	37.9458
2776.47	11.382
2775.81	34.1406
2775.15	37.9281
2774.49	72.052
2773.83	30.333
2773.17	64.4475
2772.51	30.3235
2771.86	41.6883
2771.2	64.4172
2770.54	64.4072
2769.88	34.0926
2769.22	34.0873
2768.56	18.9344
2767.9	15.1452
2767.23	-15.1428
2766.57	37.851
2765.91	37.8451
2765.25	34.0553
2764.59	30.2666
2763.93	37.8274
2763.27	34.0393
2762.61	60.5048
2761.95	45.3715
2761.29	30.243
2760.63	60.4764
2759.96	52.9086
2759.3	30.2288
2758.64	18.89
2757.98	49.1064
2757.32	30.2146
2756.65	56.6434
2755.99	33.9807
2755.33	56.6257
2754.67	26.4212
2754.01	67.9296
2753.34	64.1457
2752.68	41.4995
2752.02	26.4047
2751.35	22.629
2750.69	52.7928
2750.03	22.6219
2749.37	60.3157
2748.7	67.8445
2748.04	86.6767
2747.38	48.9835
2746.71	52.7432
2746.05	60.2685
2745.38	26.3633
2744.72	52.7184
2744.06	45.1801
2743.39	79.0528
2742.73	56.4574
2742.06	41.3956
2741.4	30.1012
2740.73	48.9068
2740.07	37.6147
2739.41	75.2176
2738.74	67.6853
2738.08	56.3955
2737.41	56.3867
2736.75	56.3779
2736.08	75.1587
2735.41	71.3896
2734.75	67.6216
2734.08	52.5863
2733.42	22.5335
2732.75	60.0798
2732.09	56.316
2731.42	60.061
2730.75	18.7661
2730.09	67.5474
2729.42	56.2807
2728.76	56.2718
2728.09	78.7682
2727.42	78.7559
2726.76	59.9951
2726.09	86.2294
2725.42	67.4733
2724.75	78.7065
2724.09	44.9681
2723.42	67.4415
2722.75	67.4309
2722.09	56.1836
2721.42	52.4298
2720.75	89.8656
2720.08	82.3638
2719.41	33.689
2718.75	56.1395
2718.08	37.4205
2717.41	82.3121
2716.74	86.0401
2716.07	123.429
2715.41	78.5336
2714.74	85.9995
2714.07	82.2475
2713.4	63.5449
2712.73	74.747
2712.06	56.0514
2711.39	74.7235
2710.72	56.0338
2710.05	104.58
2709.38	56.0162
2708.71	41.0721
2708.04	85.8645
2707.37	115.712
2706.7	63.4451
2706.03	41.0463
2705.36	48.5016
2704.69	63.4152
2704.02	33.5675
2703.35	63.3953
2702.68	37.2855
2702.01	44.7356
2701.34	52.1833
2700.67	63.3554
2700	89.4289
2699.33	89.4149
2698.66	44.7004
2697.99	74.4889
2697.32	33.5148
2696.64	59.5724
2695.97	59.563
2695.3	40.9432
2694.63	26.0506
2693.96	40.9303
2693.29	74.407
2692.61	78.115
2691.94	63.226
2691.27	59.4975
2690.6	44.6161
2689.92	66.9136
2689.25	55.7526
2688.58	55.7438
2687.91	63.1664
2687.23	74.3017
2686.56	55.7175
2685.89	51.9948
2685.21	51.9866
2684.54	44.5529
2683.87	25.9851
2683.19	48.2505
2682.52	37.1099
2681.85	40.8145
2681.17	33.3884
2680.5	48.2201
2679.82	70.4644
2679.15	55.6211
2678.48	40.7823
2677.8	37.069
2677.13	66.7137
2676.45	59.2918
2675.78	51.8721
2675.1	51.8639
2674.43	55.5598
2673.75	40.7374
2673.08	51.8394
2672.4	59.2357
2671.73	22.2099
2671.05	77.7224
2670.37	22.2029
2669.7	48.0987
2669.02	77.6856
2668.35	36.9873
2667.67	77.6612
2667	48.0684
2666.32	44.3638
2665.64	66.5352
2664.97	66.5247
2664.29	59.1238
2663.61	44.3358
2662.94	40.6348
2662.26	44.3219
2661.58	66.4723
2660.91	59.0772
2660.23	73.8348
2659.55	88.5878
2658.87	18.4529
2658.2	77.4899
2657.52	55.3412
2656.84	59.0213
2656.16	40.5707
2655.49	51.6273
2654.81	47.9321
2654.13	33.1785
2653.45	73.7184
2652.77	62.6508
2652.09	66.3256
2651.42	47.8943
2650.74	51.5703
2650.06	51.5622
2649.38	55.2365
2648.7	36.8185
2648.02	80.9879
2647.34	51.5296
2646.66	47.8414
2645.98	36.7952
2645.3	33.1105
2644.62	29.4269
2643.94	51.4889
2643.26	22.0632
2642.58	40.4428
2641.9	47.7885
2641.22	36.7546
2640.54	69.8227
2639.86	47.7659
2639.18	47.7583
2638.5	55.097
2637.82	80.7962
2637.14	51.4077
2636.46	44.0567
2635.78	14.6833
2635.1	44.0428
2634.42	66.0538
2633.73	69.7124
2633.05	36.6849
2632.37	66.0225
2631.69	22.004
2631.01	33.0008
2630.33	36.6618
2629.64	43.9872
2628.96	58.6403
2628.28	25.6511
2627.6	62.2856
2626.91	40.2961
2626.23	51.2778
2625.55	36.6212
2624.87	29.2923
2624.18	69.5583
2623.5	51.2453
2622.82	73.1961
2622.13	62.2068
2621.45	62.197
2620.77	106.084
2620.08	76.8072
2619.4	32.9122
2618.72	40.2196
2618.03	40.2133
2617.35	84.069
2616.67	65.7827
2615.98	54.8102
2615.3	69.4153
2614.61	73.0572
2613.93	65.741
2613.24	73.034
2612.56	65.7202
2611.87	69.3604
2611.19	18.2498
2610.5	72.9878
2609.82	83.9227
2609.13	62.02
2608.45	58.3625
2607.76	80.2357
2607.08	105.749
2606.39	61.9807
2605.71	29.1628
2605.02	25.5134
2604.33	43.7303
2603.65	72.8723
2602.96	36.4304
2602.27	87.419
2601.59	43.7026
2600.9	36.413
2600.21	32.7665
2599.53	36.4015
2598.84	65.5123
2598.15	69.1409
2597.47	47.2995
2596.78	61.8433
2596.09	69.1081
2595.41	65.4604
2594.72	25.4528
2594.03	43.6264
2593.34	65.4293
2592.65	50.8814
2591.97	50.8733
2591.28	79.9311
2590.59	43.5919
2589.9	50.8491
2589.21	21.789
2588.52	29.0474
2587.84	43.5642
2587.15	79.855
2586.46	54.438
2585.77	43.5435
2585.08	79.817
2584.39	97.9417
2583.7	47.1496
2583.01	47.1422
2582.32	83.3921
2581.63	65.253
2580.94	61.6181
2580.25	39.8642
2579.56	65.222
2578.87	76.0802
2578.18	39.8452
2577.49	57.9475
2576.8	39.8326
2576.11	76.0319
2575.42	39.8199
2574.73	90.4854
2574.04	57.9015
2573.35	43.4192
2572.66	43.4123
2571.97	50.6397
2571.28	50.6316
2570.58	28.9278
2569.89	57.8463
2569.2	50.6075
2568.51	14.457
2567.82	46.9777
2567.13	61.4227
2566.43	65.0254
2565.74	68.627
2565.05	36.1138
2564.36	75.8268
2563.66	61.3739
2562.97	32.4869
2562.28	79.3998
2561.59	43.3021
2560.89	54.119
2560.2	46.8957
2559.51	50.495
2558.81	68.518
2558.12	97.3522
2557.43	100.942
2556.73	57.6719
2556.04	61.2666
2555.35	43.2401
2554.65	43.2333
2553.96	39.6242
2553.26	21.6098
2552.57	57.6168
2551.88	46.8062
2551.18	35.9991
2550.49	53.99
2549.79	53.9814
2549.1	53.9728
2548.4	14.3905
2547.71	61.1497
2547.01	25.1753
2546.32	75.5139
2545.62	46.7392
2544.93	21.5685
2544.23	64.6953
2543.53	68.2786
2542.84	61.0816
2542.14	71.8493
2541.45	75.4298
2540.75	64.6438
2540.05	32.3167
2539.36	68.2134
2538.66	71.7921
2537.97	28.7123
2537.27	0
2536.57	7.17578
2535.88	39.4605
2535.18	64.5615
2534.48	32.2756
2533.78	50.1985
2533.09	71.7007
2532.39	64.5203
2531.69	75.2617
2530.99	35.8332
2530.3	32.2447
2529.6	32.2396
2528.9	46.5609
2528.2	64.4587
2527.5	68.0289
2526.81	82.3376
2526.11	71.5865
2525.41	64.4176
2524.71	57.2509
2524.01	32.1985
2523.31	21.4623
2522.61	35.7647
2521.91	42.9108
2521.21	64.356
2520.52	103.668
2519.82	39.3161
2519.12	75.046
2518.42	28.5844
2517.72	53.5872
2517.02	75.0101
2516.32	42.8561
2515.62	85.6985
2514.92	60.6934
2514.22	64.2534
2513.52	35.6906
2512.82	42.8219
2512.11	57.0868
2511.41	53.5103
2510.71	39.2346
2510.01	57.0594
2509.31	53.4847
2508.61	81.9968
2507.91	14.258
2507.21	28.5115
2506.5	71.2674
2505.8	67.6932
2505.1	53.4335
2504.4	64.1099
2503.7	35.6109
2503	60.5289
2502.29	39.1595
2501.59	74.7471
2500.89	24.9117
2500.19	39.1408
2499.48	64.0383
2498.78	28.4569
2498.08	53.3482
2497.37	46.2277
2496.67	56.8865
2495.97	67.542
2495.26	67.5312
2494.56	39.0907
2493.86	42.6376
2493.15	60.3937
2492.45	56.832
2491.75	49.7201
2491.04	63.9156
2490.34	46.1539
2489.63	95.8427
2488.93	63.8849
2488.22	31.9374
2487.52	56.7684
2486.81	46.117
2486.11	28.3751
2485.41	81.5655
2484.7	67.3694
2483.99	49.6327
2483.29	67.3479
2482.58	74.4252
2481.88	88.5872
2481.17	56.6868
2480.47	53.1353
2479.76	56.6686
2479.06	88.5306
2478.35	49.5692
2477.64	24.7806
2476.94	60.1719
2476.23	77.857
2475.52	56.6142
2474.82	28.3026
2474.11	67.2079
2473.4	38.9036
2472.7	84.867
2471.99	95.4601
2471.28	56.5599
2470.57	53.0164
2469.87	21.2032
2469.16	28.2664
2468.45	38.86
2467.74	70.6433
2467.04	74.1635
2466.33	60.0275
2465.62	45.8961
2464.91	70.598
2464.2	70.5867
2463.5	35.2877
2462.79	31.7538
2462.08	42.3317
2461.37	52.9061
2460.66	84.6362
2459.95	63.467
2459.24	81.0837
2458.53	66.9714
2457.82	66.9607
2457.11	52.8552
2456.4	70.4624
2455.69	70.4511
2454.99	73.9618
2454.28	42.2571
2453.57	84.5006
2452.85	42.2435
2452.14	42.2368
2451.43	77.4216
2450.72	42.2232
2450.01	59.8066
2449.3	52.7621
2448.59	59.7874
2447.88	24.6144
2447.17	31.642
2446.46	84.3652
2445.75	28.1172
2445.04	73.7959
2444.32	31.6217
2443.61	63.2333
2442.9	59.7107
2442.19	98.3313
2441.48	70.2254
2440.76	105.321
2440.05	49.142
2439.34	31.5862
2438.63	70.1803
2437.92	59.6437
2437.2	56.1262
2436.49	42.0879
2435.78	56.1082
2435.06	24.5434
2434.35	49.0789
2433.64	63.0913
2432.92	66.5857
2432.21	98.1105
2431.5	91.088
2430.78	91.0734
2430.07	87.5565
2429.36	42.0204
2428.64	77.025
2427.93	49.008
2427.21	45.5001
2426.5	69.9889
2425.78	83.9732
2425.07	48.9765
2424.35	87.444
2423.64	48.9608
2422.92	20.9798
2422.21	59.4333
2421.49	38.4506
2420.78	59.4141
2420.06	76.8765
2419.35	66.3827
2418.63	20.9596
2417.92	52.3905
2417.2	59.3664
2416.48	90.7811
2415.77	59.3473
2415.05	20.9427
2414.34	27.9192
2413.62	62.808
2412.9	55.8204
2412.19	73.2524
2411.47	55.8024
2410.75	66.2547
2410.04	83.6767
2409.32	62.7474
2408.6	17.427
2407.88	59.2424
2407.17	45.2957
2406.45	59.2233
2405.73	45.2811
2405.01	73.1346
2404.29	38.3025
2403.58	48.7407
2402.86	87.023
2402.14	62.6465
2401.42	76.5556
2400.7	62.6263
2399.98	55.6589
2399.27	66.0843
2398.55	48.6858
2397.83	69.54
2397.11	86.911
2396.39	79.9452
2395.67	83.4077
2394.95	62.5457
2394.23	66.0098
2393.51	20.8418
2392.79	59.0424
2392.07	76.3955
2391.35	86.799
2390.63	38.1854
2389.91	24.2959
2389.19	55.5245
2388.47	38.167
2387.75	69.3833
2387.03	41.6233
2386.31	58.9568
2385.59	52.0123
2384.87	24.2685
2384.14	72.7937
2383.42	24.2607
2382.7	72.7703
2381.98	55.4351
2381.26	27.7131
2380.54	27.7086
2379.82	65.7973
2379.09	72.7116
2378.37	58.8523
2377.65	48.4588
2376.93	58.8333
2376.2	34.6022
2375.48	51.895
2374.76	62.2639
2374.04	62.2539
2373.31	72.6178
2372.59	65.6912
2371.87	55.31
2371.14	48.3884
2370.42	48.3806
2369.7	31.0968
2368.97	24.1825
2368.25	62.1736
2367.52	69.0706
2366.8	51.7946
2366.08	48.3338
2365.35	24.163
2364.63	51.7695
2363.9	51.7611
2363.18	79.3542
2362.45	51.7444
2361.73	65.5323
2361	44.8307
2360.28	65.5112
2359.55	13.7896
2358.83	48.2558
2358.1	55.1406
2357.38	34.4573
2356.65	48.2324
2355.93	65.4477
2355.2	44.7728
2354.47	75.757
2353.75	20.6577
2353.02	68.8478
2352.3	75.7203
2351.57	55.0604
2350.84	41.2886
2350.12	72.2434
2349.39	79.111
2348.66	65.342
2347.94	79.0854
2347.21	37.8173
2346.48	30.9365
2345.75	48.1156
2345.03	27.4902
2344.3	48.1
2343.57	61.8329
2342.84	58.3883
2342.11	48.0767
2341.39	54.9359
2340.66	41.1953
2339.93	61.7829
2339.2	30.8864
2338.47	27.4502
2337.74	48.03
2337.02	48.0223
2336.29	44.5849
2335.56	54.8648
2334.83	78.8554
2334.1	71.9868
2333.37	54.8382
2332.64	58.2561
2331.91	20.5577
2331.18	61.663
2330.45	51.3775
2329.72	54.7938
2328.99	89.0255
2328.26	82.1641
2327.53	78.7278
2326.8	58.1807
2326.07	58.1713
2325.34	68.4257
2324.61	64.9939
2323.88	34.2018
2323.14	54.714
2322.41	54.7051
2321.68	58.1148
2320.95	78.6131
2320.22	71.7656
2319.49	64.9202
2318.76	105.905
2318.02	88.8094
2317.29	58.0583
2316.56	68.2928
2315.83	68.2817
2315.1	47.7895
2314.36	37.5428
2313.63	30.7118
2312.9	47.7662
2312.16	75.049
2311.43	68.2153
2310.7	27.2817
2309.97	64.7835
2309.23	51.1366
2308.5	64.7625
2307.76	61.344
2307.03	51.1117
2306.3	40.8828
2305.56	40.8761
2304.83	54.4926
2304.1	51.0786
2303.36	47.6656
2302.63	23.8289
2301.89	68.0716
2301.16	57.8515
2300.42	61.2446
2299.69	20.4115
2298.95	68.0274
2298.22	54.4131
2297.48	6.80053
2296.75	61.1949
2296.01	47.5883
2295.28	44.1819
2294.54	33.9806
2293.8	95.1302
2293.07	44.1604
2292.33	57.7389
2291.6	50.9378
2290.86	40.7436
2290.12	40.737
2289.39	67.884
2288.65	61.0856
2287.91	47.5033
2287.18	50.8882
2286.44	50.8799
2285.7	47.4802
2284.97	37.2998
2284.23	74.5875
2283.49	67.7958
2282.75	64.3955
2282.01	64.3851
2281.28	50.822
2280.54	60.9765
2279.8	20.3222
2279.06	91.4351
2278.32	67.7187
2277.59	47.3954
2276.85	67.6967
2276.11	77.8385
2275.37	23.6861
2274.63	54.1309
2273.89	77.8005
2273.15	81.1699
2272.41	94.6829
2271.67	54.0957
2270.93	40.5652
2270.19	70.9775
2269.45	23.6553
2268.71	60.8181
2267.97	81.0776
2267.23	43.9099
2266.49	67.5426
2265.75	40.519
2265.01	54.0165
2264.27	67.5097
2263.53	74.2485
2262.79	53.9902
2262.05	84.3459
2261.31	74.2123
2260.57	94.4366
2259.83	67.4438
2259.09	57.3179
2258.34	80.9062
2257.6	70.7814
2256.86	43.8099
2256.12	50.5416
2255.38	23.5823
2254.63	40.4201
2253.89	57.2525
2253.15	77.4467
2252.41	67.334
2251.66	40.3938
2250.92	43.7528
2250.18	53.8409
2249.43	57.1966
2248.69	67.2791
2247.95	70.6316
2247.21	36.9915
2246.46	70.6086
2245.72	87.4059
2244.97	67.2243
2244.23	57.1314
2243.49	57.1221
2242.74	80.6298
2242	50.3854
2241.25	70.528
2240.51	63.8007
2239.76	90.6493
2239.02	57.0662
2238.27	77.1946
2237.53	57.0476
2236.78	67.1039
2236.04	67.0929
2235.29	83.8525
2234.55	63.7175
2233.8	100.59
2233.06	53.6393
2232.31	63.6863
2231.57	87.1354
2230.82	63.6655
2230.07	77.0562
2229.33	43.5464
2228.58	60.2852
2227.83	60.2753
2227.09	63.6136
2226.34	56.9081
2225.59	70.2868
2224.85	46.8502
2224.1	76.9556
2223.35	97.0151
2222.6	63.5513
2221.86	43.4753
2221.11	50.1557
2220.36	63.5201
2219.61	43.454
2218.87	63.4994
2218.12	56.806
2217.37	43.4328
2216.62	66.8087
2215.87	46.7584
2215.12	63.4475
2214.37	63.4372
2213.63	83.4563
2212.88	90.1181
2212.13	56.7317
2211.38	73.4055
2210.63	56.7132
2209.88	66.7105
2209.13	66.6996
2208.38	86.6953
2207.63	63.3439
2206.88	86.667
2206.13	46.6592
2205.38	49.9838
2204.63	46.6439
2203.88	29.9805
2203.13	83.2655
2202.38	63.2714
2201.63	99.8859
2200.88	59.9217
2200.12	76.5541
2199.37	66.5579
2198.62	76.5291
2197.87	73.1898
2197.12	76.5041
2196.37	86.4687
2195.62	59.8531
2194.86	56.5187
2194.11	56.5095
2193.36	63.1473
2192.61	86.398
2191.85	89.7063
2191.1	63.1163
2190.35	69.7487
2189.6	96.3039
2188.84	92.9678
2188.09	79.6736
2187.34	56.4263
2186.58	39.8238
2185.83	63.044
2185.08	96.2093
2184.32	66.3404
2183.57	89.5448
2182.82	69.6346
2182.06	89.5155
2181.31	96.1305
2180.55	92.8004
2179.8	96.099
2179.04	96.0833
2178.29	82.8168
2177.53	56.3062
2176.78	76.1665
2176.02	82.7761
2175.27	52.968
2174.51	62.8892
2173.76	79.426
2173	66.1775
2172.25	59.55
2171.49	76.0791
2170.74	92.6029
2169.98	89.281
2169.22	66.1232
2168.47	92.5574
2167.71	79.3219
2166.95	56.1771
2166.2	79.2958
2165.44	59.4621
2164.68	36.332
2163.93	46.2331
2163.17	79.2438
2162.41	52.8205
2161.65	72.6163
2160.9	62.7038
2160.14	52.7945
2159.38	85.7771
2158.62	59.3744
2157.87	69.2587
2157.11	62.6524
2156.35	82.4238
2155.59	85.7067
2154.83	85.6926
2154.07	85.6785
2153.31	85.6645
2152.56	102.122
2151.8	88.93
2151.04	69.1565
2150.28	79.023
2149.52	55.9654
2148.76	82.2886
2148	88.857
2147.24	92.1329
2146.48	59.2186
2145.72	75.6557
2144.96	49.3326
2144.2	75.6309
2143.44	55.8919
2142.68	23.0105
2141.92	52.5868
2141.16	72.295
2140.4	62.4264
2139.64	85.4115
2138.87	59.1213
2138.11	36.1238
2137.35	55.8184
2136.59	72.2238
2135.83	65.6472
2135.07	98.4546
2134.31	45.9379
2133.54	68.8955
2132.78	52.4832
2132.02	59.0339
2131.26	98.3736
2130.49	62.293
2129.73	91.7852
2128.97	85.2151
2128.21	85.2011
2127.44	49.1464
2126.68	91.7248
2125.92	62.2316
2125.15	68.771
2124.39	75.3082
2123.63	98.2119
2122.86	58.9174
2122.1	81.8163
2121.33	42.5375
2120.57	65.4315
2119.81	88.318
2119.04	81.7624
2118.28	91.5589
2117.51	62.119
2116.75	42.4955
2115.98	68.6352
2115.22	68.6239
2114.45	52.2763
2113.69	68.6013
2112.92	78.3886
2112.16	97.9696
2111.39	65.3023
2110.62	71.8207
2109.86	84.865
2109.09	91.378
2108.33	107.678
2107.56	104.398
2106.79	75.0234
2106.03	81.5338
2105.26	117.389
2104.49	65.2055
2103.73	94.5324
2102.96	101.035
2102.19	58.6559
2101.42	87.9694
2100.66	84.6973
2099.89	32.5705
2099.12	107.465
2098.35	100.935
2097.59	78.1306
2096.82	91.1373
2096.05	78.1048
2095.28	104.123
2094.51	71.5725
2093.74	65.0551
2092.98	71.5489
2092.21	68.2854
2091.44	94.2833
2090.67	78.0147
2089.9	97.5022
2089.13	84.488
2088.36	81.2251
2087.59	116.945
2086.82	94.19
2086.05	58.4531
2085.28	71.4309
2084.51	58.4338
2083.74	100.619
2082.97	77.886
2082.2	74.6284
2081.43	58.3952
2080.66	103.797
2079.89	71.3483
2079.12	68.094
2078.35	97.2611
2077.57	74.5545
2076.8	103.711
2076.03	87.4916
2075.26	61.558
2074.49	71.2659
2073.72	77.7318
2072.94	74.4806
2072.17	84.1816
2071.4	87.4049
2070.63	84.1538
2069.86	55.0145
2069.08	84.1259
2068.31	90.5822
2067.54	77.629
2066.76	61.4462
2065.99	58.2025
2065.22	67.8917
2064.44	87.2749
2063.67	87.2605
2062.9	90.4774
2062.12	132.463
2061.35	90.4475
2060.58	87.2028
2059.8	90.4176
2059.03	100.089
2058.25	106.528
2057.48	106.511
2056.7	112.947
2055.93	125.835
2055.15	100.006
2054.38	54.8328
2053.6	61.2736
2052.83	106.405
2052.05	87.0442
2051.28	122.486
2050.5	99.9066
2049.72	116.001
2048.95	74.0997
2048.17	41.8755
2047.4	99.8404
2046.62	77.283
2045.84	109.466
2045.07	96.5718
2044.29	96.5558
2043.51	61.1419
2042.74	112.611
2041.96	86.857
2041.18	106.141
2040.4	90.0441
2039.63	93.2445
2038.85	109.303
2038.07	93.2136
2037.29	115.694
2036.52	125.315
2035.74	128.507
2034.96	122.061
2034.18	96.348
2033.4	102.754
2032.62	80.2634
2031.84	96.3001
2031.07	93.0747
2030.29	112.313
2029.51	105.877
2028.73	121.899
2027.95	102.635
2027.17	92.9975
2026.39	99.3947
2025.61	96.1724
2024.83	105.772
2024.05	86.5265
2023.27	134.574
2022.49	112.127
2021.71	99.2958
2020.93	112.09
2020.15	140.889
2019.37	137.664
2018.59	105.632
2017.8	99.2134
2017.02	92.7972
2016.24	131.174
2015.46	108.761
2014.68	105.544
2013.9	92.7356
2013.11	124.693
2012.33	89.5081
2011.55	111.866
2010.77	134.218
2009.99	127.805
2009.2	111.811
2008.42	127.763
2007.64	127.741
2006.85	111.755
2006.07	127.699
2005.29	118.102
2004.5	108.508
2003.72	146.781
2002.94	111.662
2002.15	114.834
2001.37	105.247
2000.59	121.173
1999.8	127.529
1999.02	127.508
1998.23	137.048
1997.45	108.346
1996.66	95.5833
1995.88	121.052
1995.09	108.292
1994.31	117.827
1993.52	124.176
1992.74	117.788
1991.95	143.232
1991.17	111.384
1990.38	133.639
1989.6	114.528
1988.81	120.871
1988.02	130.392
1987.24	120.831
1986.45	152.603
1985.67	152.578
1984.88	133.483
1984.09	111.218
1983.3	123.907
1982.52	98.4742
1981.73	120.69
1980.94	130.197
1980.16	130.175
1979.37	104.758
1978.58	123.784
1977.79	92.029
1977.01	123.743
1976.22	107.86
1975.43	164.935
1974.64	145.88
1973.85	136.343
1973.06	123.64
1972.27	152.146
1971.49	114.091
1970.7	117.24
1969.91	171.079
1969.12	167.883
1968.33	152.02
1967.54	132.995
1966.75	129.807
1965.96	155.109
1965.17	139.259
1964.38	136.071
1963.59	117.065
1962.8	129.699
1962.01	158.143
1961.22	110.682
1960.43	135.958
1959.64	170.709
1958.85	151.716
1958.06	132.729
1957.26	183.262
1956.47	145.322
1955.68	126.346
1954.89	173.696
1954.1	142.092
1953.31	173.638
1952.51	160.983
1951.72	151.488
1950.93	192.484
1950.14	141.973
1949.34	151.413
1948.55	154.541
1947.76	160.822
1946.97	170.254
1946.17	138.702
1945.38	148.135
1944.59	148.11
1943.79	132.331
1943	160.661
1942.21	176.383
1941.41	163.757
1940.62	151.135
1939.82	179.443
1939.03	179.413
1938.24	151.059
1937.44	147.887
1936.65	166.739
1935.85	191.875
1935.06	185.553
1934.26	160.366
1933.47	204.354
1932.67	198.033
1931.88	163.429
1931.08	213.679
1930.28	204.218
1929.49	179.053
1928.69	179.023
1927.9	185.274
1927.1	185.243
1926.3	204.047
1925.51	238.538
1924.71	163.183
1923.91	207.083
1923.12	185.088
1922.32	181.921
1921.52	188.162
1920.73	175.589
1919.93	175.56
1919.13	188.068
1918.33	203.706
1917.53	153.538
1916.74	175.442
1915.94	194.207
1915.14	162.856
1914.34	150.303
1913.54	190.979
1912.74	169.035
1911.95	162.747
1911.15	172.108
1910.35	187.722
1909.55	172.05
1908.75	175.149
1907.95	162.611
1907.15	184.47
1906.35	175.061
1905.55	171.906
1904.75	200.003
1903.95	168.724
1903.15	206.184
1902.35	171.791
1901.55	196.746
1900.75	202.958
1899.95	181.07
1899.15	193.525
1898.35	243.427
1897.54	177.859
1896.74	193.428
1895.94	224.589
1895.14	224.551
1894.34	243.223
1893.54	202.652
1892.73	190.149
1891.93	239.984
1891.13	205.666
1890.33	165.128
1889.53	224.288
1888.72	205.563
1887.92	217.984
1887.12	202.38
1886.31	202.346
1885.51	239.662
1884.71	214.726
1883.9	196.021
1883.1	220.876
1882.3	214.618
1881.49	186.593
1880.69	217.656
1879.88	248.707
1879.08	192.716
1878.28	208.223
1877.47	205.08
1876.67	205.046
1875.86	214.33
1875.06	214.294
1874.25	173.891
1873.45	211.118
1872.64	198.666
1871.84	229.669
1871.03	223.424
1870.22	242.002
1869.42	257.472
1868.61	232.616
1867.81	220.173
1867	201.533
1866.19	238.699
1865.39	213.863
1864.58	232.421
1863.77	223.086
1862.97	232.343
1862.16	238.498
1861.35	263.233
1860.54	241.515
1859.74	229.091
1858.93	219.766
1858.12	210.445
1857.31	198.033
1856.51	219.656
1855.7	188.686
1854.89	250.509
1854.08	210.268
1853.27	231.875
1852.46	278.203
1851.65	281.247
1850.84	259.569
1850.04	213.181
1849.23	244.036
1848.42	225.464
1847.61	237.778
1846.8	243.913
1845.99	253.133
1845.18	277.782
1844.37	197.501
1843.56	243.749
1842.75	280.727
1841.94	249.836
1841.13	231.29
1840.31	246.668
1839.5	255.875
1838.69	277.408
1837.88	252.707
1837.07	237.258
1836.26	246.461
1835.45	240.259
1834.64	221.74
1833.82	261.732
1833.01	258.609
1832.2	240.097
1831.39	224.668
1830.57	267.71
1829.76	230.746
1828.95	239.935
1828.14	252.197
1827.32	252.155
1826.51	242.888
1825.7	242.848
1824.88	273.542
1824.07	270.423
1823.26	230.435
1822.44	297.979
1821.63	264.143
1820.81	261.028
1820	230.28
1819.19	251.73
1818.37	239.41
1817.56	242.439
1816.74	251.603
1815.93	251.56
1815.11	242.316
1814.3	285.21
1813.48	245.301
1812.67	223.799
1811.85	245.218
1811.03	263.565
1810.22	248.199
1809.4	242.03
1808.59	278.747
1807.77	278.7
1806.95	275.591
1806.14	257.175
1805.32	257.131
1804.5	254.027
1803.69	244.804
1802.87	253.942
1802.05	269.194
1801.24	259.973
1800.42	262.987
1799.6	275.173
1798.78	278.183
1797.96	293.418
1797.15	302.537
1796.33	268.876
1795.51	216.897
1794.69	293.22
1793.87	265.686
1793.05	271.748
1792.23	235.068
1791.42	286.918
1790.6	256.351
1789.78	250.205
1788.96	280.671
1788.14	256.221
1787.32	298.874
1786.5	280.528
1785.68	298.773
1784.86	301.771
1784.04	246.862
1783.22	283.386
1782.4	240.685
1781.58	271.106
1780.76	274.105
1779.93	261.879
1779.11	286.191
1778.29	246.57
1777.47	267.833
1776.65	292.132
1775.83	264.7
1775.01	298.117
1774.18	285.901
1773.36	334.508
1772.54	261.48
1771.72	252.316
1770.89	291.786
1770.07	276.542
1769.25	267.38
1768.43	300.752
1767.6	282.477
1766.78	288.503
1765.96	318.817
1765.13	273.226
1764.31	267.109
1763.49	273.133
1762.66	248.813
1761.84	279.108
1761.01	330.627
1760.19	291.145
1759.36	278.966
1758.54	297.11
1757.72	300.091
1756.89	360.654
1756.07	281.808
1755.24	318.116
1754.41	296.858
1753.59	284.693
1752.76	275.561
1751.94	284.597
1751.11	305.738
1750.29	290.553
1749.46	263.269
1748.63	341.89
1747.81	341.832
1746.98	269.185
1746.15	305.427
1745.33	317.47
1744.5	284.163
1743.67	317.362
1742.85	268.957
1742.02	311.212
1741.19	317.201
1740.36	311.106
1739.54	320.113
1738.71	277.787
1737.88	298.872
1737.05	289.766
1736.22	301.789
1735.39	310.79
1734.57	325.821
1733.74	283.537
1732.91	286.505
1732.08	289.471
1731.25	325.6
1730.42	316.502
1729.59	334.531
1728.76	364.607
1727.93	298.264
1727.1	289.177
1726.27	298.163
1725.44	337.258
1724.61	319.137
1723.78	331.123
1722.95	325.048
1722.12	343.048
1721.29	324.937
1720.46	315.858
1719.62	309.789
1718.79	333.793
1717.96	345.763
1717.13	306.625
1716.3	282.528
1715.47	303.515
1714.63	303.464
1713.8	321.437
1712.97	297.353
1712.14	312.318
1711.31	339.288
1710.47	336.228
1709.64	342.174
1708.81	312.106
1707.97	321.054
1707.14	333
1706.31	314.946
1705.47	323.89
1704.64	332.83
1703.81	329.775
1702.97	341.709
1702.14	368.623
1701.3	335.6
1700.47	353.518
1699.63	281.568
1698.8	341.419
1697.96	362.321
1697.13	284.419
1696.29	314.304
1695.46	344.179
1694.62	344.12
1693.79	299.184
1692.95	317.081
1692.12	352.917
1691.28	308.002
1690.44	328.879
1689.61	367.683
1688.77	319.8
1687.93	313.769
1687.1	301.765
1686.26	331.586
1685.42	331.53
1684.59	307.583
1683.75	307.531
1682.91	331.36
1682.07	361.151
1681.24	343.184
1680.4	364.011
1679.56	381.849
1678.72	345.991
1677.88	328.039
1677.05	333.947
1676.21	327.928
1675.37	351.717
1674.53	339.736
1673.69	336.699
1672.85	315.787
1672.01	348.498
1671.17	336.527
1670.33	351.357
1669.49	398.931
1668.65	342.308
1667.81	321.417
1666.97	395.751
1666.13	392.709
1665.29	300.43
1664.45	347.964
1663.61	324.116
1662.77	353.791
1661.93	353.731
1661.09	335.838
1660.25	368.468
1659.4	353.55
1658.56	389.135
1657.72	314.819
1656.88	383.064
1656.04	338.464
1655.19	371.059
1654.35	356.156
1653.51	364.997
1652.67	353.067
1651.82	332.242
1650.98	358.879
1650.14	358.817
1649.3	400.265
1648.45	403.161
1647.61	352.706
1646.77	340.792
1645.92	349.622
1645.08	328.826
1644.23	385.045
1643.39	361.289
1642.54	367.149
1641.7	343.403
1640.86	364.063
1640.01	364.001
1639.17	340.268
1638.32	349.085
1637.48	349.025
1636.63	372.624
1635.78	351.863
1634.94	360.671
1634.09	381.3
1633.25	351.682
1632.4	348.667
1631.56	336.79
1630.71	446.023
1629.86	366.208
1629.02	375.004
1628.17	333.608
1627.32	371.924
1626.47	339.396
1625.63	395.403
1624.78	401.235
1623.93	395.267
1623.09	401.098
1622.24	392.183
1621.39	392.116
1620.54	350.781
1619.69	303.565
1618.84	359.501
1618	377.117
1617.15	365.269
1616.3	418.22
1615.45	315.084
1614.6	373.914
1613.75	362.075
1612.9	353.184
1612.05	391.378
1611.2	314.814
1610.35	379.477
1609.5	411.765
1608.65	444.042
1607.8	341.06
1606.95	370.398
1606.1	382.092
1605.25	390.842
1604.4	379.022
1603.55	396.583
1602.7	384.767
1601.85	355.334
1600.99	399.316
1600.14	381.633
1599.29	375.698
1598.44	404.979
1597.59	352.096
1596.74	378.438
1595.88	363.707
1595.03	372.443
1594.18	366.515
1593.32	407.495
1592.47	372.251
1591.62	378.049
1590.77	386.774
1589.91	374.989
1589.06	386.641
1588.21	395.361
1587.35	374.796
1586.5	406.936
1585.64	392.23
1584.79	412.649
1583.93	386.243
1583.08	353.996
1582.23	380.261
1581.37	400.667
1580.52	383.054
1579.66	418.071
1578.81	356.615
1577.95	382.857
1577.09	385.713
1576.24	368.117
1575.38	411.87
1574.53	403.038
1573.67	449.69
1572.81	437.934
1571.96	379.478
1571.1	417.354
1570.24	370.593
1569.39	382.2
1568.53	449.226
1567.67	396.651
1566.82	422.827
1565.96	390.684
1565.1	364.381
1564.24	408.036
1563.39	372.998
1562.53	378.761
1561.67	399.087
1560.81	381.543
1559.95	396.038
1559.09	372.677
1558.23	425.012
1557.38	439.491
1556.52	424.866
1555.66	418.973
1554.8	392.72
1553.94	363.567
1553.08	415.849
1552.22	430.315
1551.36	389.543
1550.5	401.102
1549.64	383.597
1548.78	406.775
1547.92	377.654
1547.06	386.303
1546.2	397.853
1545.34	371.652
1544.47	368.685
1543.61	391.842
1542.75	417.893
1541.89	426.526
1541.03	345.223
1540.17	426.379
1539.3	420.505
1538.44	365.342
1537.58	446.452
1536.72	440.578
1535.85	460.788
1534.99	379.578
1534.13	451.938
1533.27	399.722
1532.4	402.55
1531.54	408.271
1530.68	434.256
1529.81	416.814
1528.95	425.424
1528.08	399.309
1527.22	390.561
1526.36	445.452
1525.49	401.995
1524.63	416.383
1523.76	419.202
1522.9	419.13
1522.03	427.728
1521.17	384.311
1520.3	404.468
1519.44	427.507
1518.57	450.537
1517.7	404.259
1516.84	424.398
1515.97	381.027
1515.11	412.708
1514.24	435.721
1513.37	464.496
1512.51	406.725
1511.64	415.307
1510.77	386.399
1509.91	403.631
1509.04	392.031
1508.17	412.138
1507.3	412.067
1506.44	455.212
1505.57	414.805
1504.7	397.453
1503.83	368.588
1502.96	428.986
1502.09	405.883
1501.23	382.788
1500.36	443.151
1499.49	463.215
1498.62	460.258
1497.75	391.152
1496.88	445.721
1496.01	439.894
1495.14	431.194
1494.27	477.105
1493.4	402.308
1492.53	399.366
1491.66	399.297
1490.79	476.775
1489.92	427.875
1489.05	424.93
1488.18	419.115
1487.31	393.211
1486.44	410.361
1485.56	438.982
1484.69	436.037
1483.82	418.753
1482.95	421.548
1482.08	467.35
1481.21	381.269
1480.33	449.991
1479.46	412.659
1478.59	435.509
1477.72	386.734
1476.84	406.717
1475.97	443.874
1475.1	501.062
1474.22	478.073
1473.35	449.368
1472.48	432.12
1471.6	506.437
1470.73	497.767
1469.85	431.896
1468.98	489.016
1468.11	486.072
1467.23	554.598
1466.36	517.344
1465.48	517.255
1464.61	531.451
1463.73	528.502
1462.86	562.686
1461.98	528.319
1461.11	536.794
1460.23	548.12
1459.35	553.733
1458.48	507.977
1457.6	539.275
1456.73	590.532
1455.85	524.826
1454.97	524.735
1454.1	550.306
1453.22	516.001
1452.34	490.258
1451.46	524.371
1450.59	458.745
1449.71	518.492
1448.83	515.554
1447.95	518.312
1447.08	529.612
1446.2	503.898
1445.32	506.657
1444.44	552.103
1443.56	563.389
1442.68	560.446
1441.81	614.393
1440.93	600.067
1440.05	651.144
1439.17	690.832
1438.29	693.554
1437.41	653.647
1436.53	645.009
1435.65	585.237
1434.77	613.54
1433.89	548.114
1433.01	576.414
1432.13	547.924
1431.25	533.636
1430.37	542.057
1429.48	473.863
1428.6	516.336
1427.72	507.737
1426.84	465.108
1425.96	530.245
1425.08	513.142
1424.19	504.549
1423.31	495.96
1422.43	433.535
1421.55	464.623
1420.67	498.534
1419.78	472.958
1418.9	475.707
1418.02	461.469
1417.13	489.695
1416.25	523.571
1415.37	503.673
1414.48	577.143
1413.6	489.355
1412.71	480.785
1411.83	452.425
1410.95	474.963
1410.06	491.841
1409.18	471.972
1408.29	454.936
1407.41	457.682
1406.52	477.375
1405.64	457.522
1404.75	513.917
1403.87	463.01
1402.98	451.638
1402.1	479.782
1401.21	414.798
1400.32	459.866
1399.44	437.22
1398.55	470.987
1397.66	439.887
1396.78	473.642
1395.89	484.835
1395	417.111
1394.12	425.492
1393.23	442.322
1392.34	484.497
1391.45	475.964
1390.57	475.881
1389.68	470.167
1388.79	441.937
1387.9	439.045
1387.01	444.596
1386.12	526.108
1385.24	514.764
1384.35	520.3
1383.46	486.466
1382.57	424.529
1381.68	444.132
1380.79	438.433
1379.9	432.737
1379.01	502.899
1378.12	455.058
1377.23	469.021
1376.34	474.555
1375.45	482.895
1374.56	457.548
1373.67	482.727
1372.78	432.133
1371.89	479.753
1370.99	493.694
1370.1	479.585
1369.21	431.832
1368.32	496.24
1367.43	479.334
1366.54	476.448
1365.64	484.771
1364.75	451.067
1363.86	459.391
1362.97	478.916
1362.07	484.433
1361.18	433.953
1360.29	473.067
1359.39	444.997
1358.5	422.533
1357.61	461.628
1356.71	433.575
1355.82	458.67
1354.93	486.552
1354.03	500.446
1353.14	452.839
1352.24	458.349
1351.35	477.829
1350.45	477.746
1349.56	472.076
1348.66	458.029
1347.77	407.686
1346.87	438.326
1345.98	432.666
1345.08	452.127
1344.18	429.725
1343.29	429.649
1342.39	437.943
1341.5	515.957
1340.6	482.405
1339.7	423.773
1338.81	465.511
1337.91	451.495
1337.01	451.416
1336.11	465.267
1335.22	428.973
1334.32	426.113
1333.42	414.901
1332.52	392.555
1331.63	425.89
1330.73	428.598
1329.83	392.349
1328.93	428.448
1328.03	378.304
1327.13	428.298
1326.23	433.785
1325.33	433.709
1324.43	400.276
1323.53	430.777
1322.64	452.932
1321.74	391.731
1320.84	419.44
1319.94	424.921
1319.03	435.954
1318.13	421.996
1317.23	413.595
1316.33	394.095
1315.43	402.35
1314.53	349.567
1313.63	380.019
1312.73	421.553
1311.83	399.296
1310.92	385.364
1310.02	440.734
1309.12	393.543
1308.22	446.122
1307.32	407.257
1306.41	407.186
1305.51	432.04
1304.61	407.043
1303.71	370.981
1302.8	404.132
1301.9	417.899
1301	417.826
1300.09	431.585
1299.19	409.381
1298.28	470.152
1297.38	478.365
1296.48	511.456
1295.57	519.659
1294.67	619.06
1293.76	602.372
1292.86	593.978
1291.95	502.721
1291.05	425.305
1290.14	408.663
1289.24	356.137
1288.33	336.752
1287.42	311.855
1286.52	331.115
1285.61	353.128
1284.71	336.516
1283.8	325.425
1282.89	308.824
1281.99	314.283
1281.08	278.395
1280.17	292.126
1279.26	281.053
1278.36	256.209
1277.45	280.954
1276.54	358.016
1275.63	297.376
1274.72	297.324
1273.82	313.787
1272.91	264.195
1272	305.422
1271.09	324.625
1270.18	269.557
1269.27	288.76
1268.36	277.711
1267.45	241.923
1266.54	285.859
1265.64	305.046
1264.73	299.497
1263.82	252.742
1262.91	238.964
1261.99	269.13
1261.08	252.609
1260.17	280.017
1259.26	249.775
1258.35	266.197
1257.44	246.943
1256.53	274.333
1255.62	277.028
1254.71	293.433
1253.79	244.027
1252.88	241.243
1251.97	276.832
1251.06	257.601
1250.15	249.335
1249.23	241.073
1248.32	251.987
1247.41	208.126
1246.49	254.636
1245.58	229.953
1244.67	221.702
1243.75	218.926
1242.84	216.151
1241.93	240.734
1241.01	232.486
1240.1	254.322
1239.18	278.885
1238.27	229.629
1237.35	218.656
1236.44	240.479
1235.53	232.24
1234.61	207.613
1233.69	223.964
1232.78	226.656
1231.86	196.582
1230.95	259.334
1230.03	231.994
1229.12	207.394
1228.2	215.542
1227.28	215.504
1226.37	229.103
1225.45	204.52
1224.53	215.39
1223.62	218.078
1222.7	239.844
1221.78	198.926
1220.86	196.166
1219.95	166.167
1219.03	182.479
1218.11	220.57
1217.19	236.867
1216.27	225.937
1215.35	209.567
1214.44	206.809
1213.52	204.052
1212.6	209.456
1211.68	214.858
1210.76	225.697
1209.84	209.345
1208.92	201.153
1208	233.731
1207.08	214.669
1206.16	201.047
1205.24	203.727
1204.32	244.43
1203.4	236.24
1202.48	211.764
1201.56	190.011
1200.64	184.55
1199.71	203.511
1198.79	198.049
1197.87	217.002
1196.95	216.964
1196.03	208.791
1195.1	192.487
1194.18	227.691
1193.26	195.129
1192.34	173.418
1191.41	195.06
1190.49	203.152
1189.57	186.867
1188.65	230.157
1187.72	205.751
1186.8	213.835
1185.87	205.678
1184.95	192.113
1184.03	189.374
1183.1	200.159
1182.18	227.168
1181.25	219.016
1180.33	200.053
1179.4	197.315
1178.48	205.387
1177.55	191.841
1176.63	189.106
1175.7	224.185
1174.78	183.637
1173.85	210.606
1172.92	210.568
1172	221.327
1171.07	215.891
1170.15	242.834
1169.22	172.652
1168.29	256.234
1167.36	196.861
1166.44	221.092
1165.51	202.183
1164.58	250.662
1163.65	183.247
1162.73	188.604
1161.8	207.427
1160.87	183.15
1159.94	223.511
1159.01	191.162
1158.08	161.517
1157.16	212.626
1156.23	247.571
1155.3	196.408
1154.37	166.782
1153.44	188.269
1152.51	188.236
1151.58	231.22
1150.65	182.793
1149.72	193.511
1148.79	177.354
1147.86	185.382
1146.93	220.27
1146	222.917
1145.07	206.766
1144.13	185.251
1143.2	177.165
1142.27	209.339
1141.34	185.152
1140.41	190.485
1139.48	187.769
1138.54	209.191
1137.61	166.25
1136.68	174.264
1135.75	214.44
1134.81	176.882
1133.88	200.966
1132.95	259.87
1132.01	208.931
1131.08	278.525
1130.15	270.442
1129.21	275.749
1128.28	361.354
1127.35	323.823
1126.41	299.683
1125.48	299.63
1124.54	272.829
1123.61	205.922
1122.67	264.71
1121.74	181.789
1120.8	189.775
1119.87	195.086
1118.93	211.083
1117.99	178.988
1117.06	144.233
1116.12	168.242
1115.19	189.573
1114.25	197.548
1113.31	216.196
1112.38	162.785
1111.44	165.425
1110.5	208.078
1109.56	146.695
1108.63	192.003
1107.69	210.633
1106.75	154.614
1105.81	162.583
1104.88	173.213
1103.94	181.175
1103	178.479
1102.06	173.12
1101.12	178.415
1100.18	167.734
1099.24	162.38
1098.3	154.367
1097.36	183.61
1096.42	186.238
1095.49	170.245
1094.55	156.916
1093.6	143.593
1092.66	178.13
1091.72	162.149
1090.78	207.301
1089.84	159.434
1088.9	180.659
1087.96	201.877
1087.02	212.465
1086.08	140.733
1085.14	161.947
1084.19	148.646
1083.25	177.812
1082.31	172.474
1081.37	169.79
1080.43	185.675
1079.48	188.293
1078.54	164.396
1077.6	169.669
1076.65	166.988
1075.71	177.559
1074.77	148.381
1073.82	182.794
1072.88	164.22
1071.93	169.487
1070.99	174.752
1070.05	172.074
1069.1	206.452
1068.16	193.183
1067.21	201.086
1066.27	166.66
1065.32	222.174
1064.38	251.223
1063.43	267.042
1062.49	311.934
1061.54	272.233
1060.59	301.253
1059.65	277.42
1058.7	224.538
1057.75	203.369
1056.81	174.285
1055.86	200.656
1054.91	168.943
1053.97	179.47
1053.02	174.16
1052.07	142.469
1051.12	160.909
1050.18	155.605
1049.23	168.762
1048.28	121.276
1047.33	181.881
1046.38	147.587
1045.43	134.386
1044.48	147.535
1043.54	147.508
1042.59	144.848
1041.64	202.751
1040.69	200.082
1039.74	165.828
1038.79	134.218
1037.84	139.456
1036.89	165.739
1035.94	155.188
1034.99	131.492
1034.04	152.503
1033.08	141.96
1032.13	165.591
1031.18	160.305
1030.23	139.257
1029.28	154.994
1028.33	144.46
1027.37	168.069
1026.42	118.152
1025.47	160.133
1024.52	136.482
1023.57	154.827
1022.61	157.423
1021.66	162.642
1020.71	141.63
1019.75	120.626
1018.8	120.605
1017.85	133.69
1016.89	146.77
1015.94	151.985
1014.98	172.917
1014.03	120.497
1013.07	96.9038
1012.12	120.453
1011.16	107.341
1010.21	167.527
1009.25	125.623
1008.3	133.45
1007.34	143.891
1006.39	136.018
1005.43	115.072
1004.48	154.273
1003.52	135.945
1002.56	143.762
1001.61	128.056
1000.65	143.711
999.693	114.948
998.736	159.331
997.778	130.576
996.821	167.107
995.863	148.803
994.905	140.946
993.947	138.311
992.989	130.459
992.031	140.87
991.072	114.762
990.114	125.173
989.155	135.579
988.196	130.341
987.237	138.137
986.277	130.295
985.318	114.639
984.358	153.692
983.398	156.269
982.438	127.597
981.478	127.574
980.517	124.948
979.557	137.939
978.596	153.527
977.635	135.287
976.674	143.067
975.713	202.858
974.751	166.418
973.79	158.588
972.828	155.961
971.866	124.746
970.904	132.519
969.942	119.505
968.979	122.081
968.017	135.044
967.054	119.441
966.091	124.611
965.128	121.993
964.164	121.971
963.201	184.222
962.237	147.87
961.273	173.78
960.309	142.63
959.345	145.197
958.381	145.171
957.416	158.104
956.451	134.753
955.486	160.638
954.521	155.428
953.556	134.68
952.591	111.35
951.625	181.235
950.659	132.019
949.693	137.171
948.727	134.559
947.761	173.343
946.794	165.551
945.828	137.072
944.861	168.077
943.894	170.632
942.927	139.583
941.959	142.142
940.992	152.453
940.024	149.842
939.056	154.981
938.088	165.283
937.12	116.194
936.152	123.917
935.183	149.707
934.214	118.711
933.246	149.653
932.276	162.524
931.307	136.702
930.338	141.835
929.368	149.545
928.398	152.095
927.428	180.42
926.458	146.887
925.488	172.625
924.517	157.138
923.547	151.958
922.576	136.48
921.605	159.627
920.634	139.005
919.662	126.112
918.691	138.955
917.719	149.221
916.747	141.477
915.775	192.888
914.803	167.14
913.831	133.688
912.858	161.939
911.885	167.049
910.912	136.185
909.939	166.989
908.966	148.979
907.992	174.633
907.019	107.842
906.045	141.196
905.071	179.672
904.097	166.808
903.122	179.607
902.148	161.617
901.173	164.153
900.198	158.994
899.223	171.785
898.248	156.373
897.273	176.849
896.297	197.318
895.321	225.465
894.345	192.123
893.369	158.793
892.393	197.175
891.416	189.458
890.44	163.826
889.463	153.559
888.486	153.531
887.509	140.712
886.531	133.012
885.554	148.333
884.576	115.065
883.598	168.732
882.62	181.482
881.642	138.003
880.664	186.526
879.685	176.274
878.706	181.35
877.727	163.441
876.748	171.071
875.769	178.699
874.789	140.381
873.81	168.426
872.83	163.293
871.85	183.671
870.87	219.346
869.889	226.956
868.909	170.824
867.928	201.382
866.947	170.762
865.966	170.731
864.985	170.7
864.003	145.196
863.022	162.997
862.04	155.329
861.058	165.484
860.076	193.454
859.094	190.874
858.111	160.305
857.128	155.188
856.146	170.421
855.162	195.822
854.179	150.018
853.196	188.124
852.212	152.505
851.229	213.469
850.245	154.991
849.261	182.907
848.276	200.653
847.292	210.774
846.307	195.502
845.322	175.158
844.337	167.512
843.352	147.181
842.367	144.617
841.381	182.641
840.396	192.753
839.41	182.575
838.424	167.33
837.437	177.439
836.451	154.597
835.464	162.171
834.477	169.742
833.49	157.046
832.503	154.485
831.516	151.925
830.528	159.492
829.541	164.525
828.553	210.048
827.565	202.419
826.577	225.15
825.588	209.933
824.6	257.944
823.611	225.028
822.622	202.235
821.633	189.561
820.643	192.053
819.654	164.226
818.664	174.301
817.674	164.167
816.684	217.166
815.694	209.552
814.704	227.184
813.713	181.714
812.723	191.774
811.732	191.739
810.741	194.227
809.749	168.972
808.758	143.726
807.766	153.784
806.774	199.126
805.782	183.969
804.79	168.818
803.798	191.46
802.805	163.719
801.812	196.427
800.819	191.355
799.826	156.077
798.833	234.073
797.84	186.218
796.846	178.636
795.852	188.666
794.858	221.327
793.864	226.316
792.87	241.36
791.875	165.905
790.88	180.954
789.885	183.434
788.89	190.937
787.895	218.533
786.9	261.188
785.904	220.965
784.908	220.924
783.912	218.374
782.916	208.296
781.92	155.566
780.923	175.607
779.926	168.05
778.929	170.527
777.932	173.004
776.935	190.52
775.938	172.94
774.94	182.933
773.942	205.448
772.944	200.401
771.946	172.814
770.948	187.807
769.949	185.269
768.95	215.274
767.951	185.202
766.952	217.697
765.953	240.174
764.954	185.1
763.954	197.571
762.954	202.536
761.954	182.499
760.954	147.472
759.954	167.438
758.953	194.892
757.952	192.358
756.951	192.323
755.95	199.779
754.949	199.743
753.948	207.195
752.946	224.629
751.944	207.12
750.942	199.597
749.94	276.89
748.937	256.887
747.935	249.359
746.932	214.41
745.929	201.907
744.926	204.362
743.923	204.325
742.919	204.288
741.916	211.723
740.912	214.175
739.908	234.055
738.903	196.67
737.899	216.546
736.894	184.155
735.89	236.372
734.885	196.526
733.88	226.336
732.874	211.374
731.869	243.658
730.863	238.641
729.857	236.112
728.851	243.524
727.845	221.119
726.838	235.983
725.832	206.136
724.825	216.031
723.818	223.44
722.811	260.632
721.804	250.657
720.796	200.985
719.788	195.987
718.78	208.353
717.772	218.234
716.764	218.194
715.756	240.465
714.747	250.336
713.738	223.03
712.729	220.512
711.72	225.426
710.71	257.582
709.701	302.108
708.691	252.536
707.681	210.408
706.671	195.52
705.661	254.872
704.65	264.721
703.64	222.622
702.629	153.333
701.618	180.505
700.606	232.388
699.595	229.874
698.583	212.532
697.572	212.493
696.56	271.744
695.547	214.885
694.535	150.639
693.523	182.709
692.51	217.235
691.497	194.982
690.484	224.559
689.471	207.247
688.457	187.475
687.443	150.445
686.43	212.064
685.416	239.145
684.401	219.381
683.387	261.238
682.372	246.405
681.358	243.896
680.343	256.167
679.327	261.046
678.312	258.535
677.297	251.102
676.281	194.446
675.265	201.792
674.249	211.597
673.233	250.918
672.216	248.412
671.2	213.939
670.183	223.735
669.166	208.944
668.148	226.11
667.131	213.782
666.113	216.2
665.096	194.052
664.078	194.017
663.06	216.08
662.041	220.95
661.023	257.728
660.004	233.14
658.985	255.18
657.966	235.507
656.947	223.2
655.927	198.636
654.908	242.732
653.888	218.174
652.868	220.585
651.848	222.994
650.827	210.703
649.807	205.765
648.786	230.219
647.765	249.766
646.744	281.547
645.723	298.629
644.701	254.522
643.679	271.604
642.657	269.107
641.635	237.26
640.613	295.909
639.591	271.403
638.568	283.576
637.545	244.417
636.522	224.823
635.499	210.121
634.475	244.282
633.452	185.62
632.428	195.354
631.404	263.679
630.38	268.512
629.356	248.938
628.331	239.132
627.306	270.803
626.281	285.389
625.256	265.826
624.231	214.572
623.205	251.1
622.18	209.618
621.154	231.512
620.128	231.469
619.102	236.299
618.075	245.998
617.049	236.211
616.022	265.384
614.995	255.598
613.968	304.228
612.94	333.372
611.913	299.249
610.885	267.572
609.857	252.93
608.829	240.726
607.8	250.406
606.772	269.805
605.743	223.581
604.714	250.267
603.685	230.786
602.656	233.172
601.626	252.557
600.597	223.374
599.567	230.615
598.537	281.542
597.507	257.223
596.476	262.028
595.446	230.445
594.415	254.655
593.384	237.634
592.353	271.532
591.321	264.21
590.29	278.702
589.258	242.304
588.226	249.527
587.194	256.748
586.162	225.218
585.129	251.81
584.096	256.605
583.063	232.354
582.03	256.51
580.997	261.302
579.964	258.834
578.93	285.39
577.896	282.919
576.862	309.461
575.828	273.146
574.793	302.096
573.759	306.873
572.724	253.667
571.689	265.697
570.654	301.873
569.618	234.21
568.583	287.276
567.547	234.123
566.511	279.93
565.475	279.878
564.438	284.651
563.402	282.186
562.365	291.78
561.328	298.959
560.291	337.471
559.254	318.128
558.216	286.744
557.178	296.328
556.141	317.951
555.102	288.993
554.064	279.308
553.026	293.7
551.987	286.425
550.948	360.973
549.909	307.973
548.87	341.594
547.83	370.393
546.791	351.086
545.751	341.404
544.711	334.129
543.671	353.294
542.63	329.2
541.59	281.089
540.549	309.861
539.508	350.63
538.467	343.362
537.425	319.291
536.384	319.232
535.342	297.574
534.3	302.318
533.258	319.054
532.216	278.221
531.173	338.12
530.13	333.262
529.088	357.171
528.044	347.518
527.001	297.132
525.958	340.201
524.914	342.533
523.87	373.603
522.826	433.395
521.782	502.74
520.737	375.788
519.693	390.077
518.648	337.366
517.603	332.519
516.557	325.282
515.512	320.438
514.466	310.815
513.42	305.977
512.374	332.21
511.328	339.316
510.282	324.919
509.235	322.469
508.188	317.633
507.141	360.554
506.094	367.649
505.047	360.42
503.999	334.102
502.951	355.513
501.903	329.206
500.855	362.536
499.807	441.163
