3200.66	29.4694
3200.06	12.6297
3199.47	33.6742
3198.87	0
3198.28	4.208
3197.69	25.2442
3197.09	12.6202
3196.5	29.4427
3195.9	8.41092
3195.31	29.4338
3194.71	12.6126
3194.12	33.6284
3193.52	46.2321
3192.93	16.8091
3192.33	42.0165
3191.74	33.6081
3191.14	25.2022
3190.55	33.5979
3189.95	-8.39821
3189.36	20.9923
3188.76	33.5827
3188.17	37.7748
3187.57	12.5897
3186.97	37.7634
3186.38	4.19529
3185.78	8.38932
3185.19	33.5522
3184.59	8.38678
3183.99	16.771
3183.4	16.7685
3182.8	20.9574
3182.2	20.9543
3181.61	46.0924
3181.01	33.5167
3180.41	33.5116
3179.82	20.9416
3179.22	33.5015
3178.62	12.5611
3178.03	50.237
3177.43	-4.18578
3176.83	41.8515
3176.23	66.9522
3175.64	20.9194
3175.04	29.2827
3174.44	54.374
3173.84	8.36396
3173.25	20.9067
3172.65	16.7229
3172.05	20.9004
3171.45	33.4356
3170.85	37.6093
3170.26	37.6036
3169.66	20.8877
3169.06	29.2384
3168.46	37.5865
3167.86	16.7026
3167.26	33.4001
3166.66	12.5232
3166.06	29.2163
3165.47	20.8656
3164.87	25.0349
3164.27	4.17185
3163.67	-8.34244
3163.07	20.8529
3162.47	25.0197
3161.87	33.3546
3161.27	20.8435
3160.67	33.3445
3160.07	20.8371
3159.47	29.1676
3158.87	37.4955
3158.27	16.6621
3157.67	8.3298
3157.07	12.4928
3156.47	-12.4909
3155.87	12.489
3155.27	24.9743
3154.67	16.647
3154.07	-24.9667
3153.46	24.9629
3152.86	37.4387
3152.26	49.9106
3151.66	20.7929
3151.06	16.6318
3150.46	33.2586
3149.86	16.6268
3149.26	24.9364
3148.65	20.7772
3148.05	12.4644
3147.45	20.7709
3146.85	24.9213
3146.25	20.7646
3145.64	45.6751
3145.04	37.3649
3144.44	16.6041
3143.84	37.3535
3143.24	-8.29953
3142.63	29.0439
3142.03	49.782
3141.43	45.6266
3140.82	24.8835
3140.22	-4.14661
3139.62	24.8759
3139.02	24.8721
3138.41	12.4342
3137.81	45.5851
3137.21	16.5739
3136.6	8.28567
3136	12.4266
3135.4	37.2742
3134.79	24.8457
3134.19	41.4032
3133.58	66.2351
3132.98	45.5297
3132.38	24.8306
3131.77	4.13781
3131.17	0
3130.56	24.8193
3129.96	12.4078
3129.35	20.6765
3128.75	20.6733
3128.14	49.6084
3127.54	28.9338
3126.93	33.0622
3126.33	20.6607
3125.72	66.1043
3125.12	12.3927
3124.51	16.5211
3123.91	49.5556
3123.3	41.2901
3122.7	41.2838
3122.09	41.2775
3121.49	33.017
3120.88	49.518
3120.27	16.5035
3119.67	12.3757
3119.06	28.8723
3118.46	4.12399
3117.85	4.12336
3117.24	45.3501
3116.64	24.7326
3116.03	24.7289
3115.42	20.6043
3114.82	20.6011
3114.21	32.9568
3113.6	32.9518
3113	24.7101
3112.39	4.11772
3111.78	28.8196
3111.17	41.1647
3110.57	20.5792
3109.96	37.0369
3109.35	41.1459
3108.74	-12.3419
3108.14	41.1333
3107.53	24.6762
3106.92	32.8966
3106.31	-12.3344
3105.7	24.665
3105.1	8.22041
3104.49	28.767
3103.88	24.6537
3103.27	28.7583
3102.66	8.2154
3102.05	24.6424
3101.44	8.2129
3100.84	8.21165
3100.23	36.9468
3099.62	24.6274
3099.01	16.4158
3098.4	24.6199
3097.79	24.6162
3097.18	24.6124
3096.57	24.6087
3095.96	24.6049
3095.35	12.3006
3094.74	8.19915
3094.13	24.5937
3093.52	16.3933
3092.91	16.3908
3092.3	49.1649
3091.69	36.868
3091.08	20.4791
3090.47	16.3808
3089.86	45.0403
3089.25	28.6577
3088.64	12.28
3088.03	32.7416
3087.42	28.6446
3086.81	4.09146
3086.19	8.18166
3085.58	28.6315
3084.97	40.8958
3084.36	24.5338
3083.75	28.6184
3083.14	12.2631
3082.53	24.5225
3081.91	20.4323
3081.3	8.17169
3080.69	32.6818
3080.08	4.0846
3079.47	40.8397
3078.85	24.5001
3078.24	32.6618
3077.63	16.3284
3077.02	16.3259
3076.4	12.2426
3075.79	-4.08024
3075.18	4.07961
3074.57	32.6319
3073.95	32.6269
3073.34	36.6997
3072.73	40.7712
3072.11	24.459
3071.5	4.07588
3070.89	16.301
3070.27	40.7463
3069.66	-4.07401
3069.05	32.5871
3068.43	32.5821
3067.82	48.8657
3067.2	36.6437
3066.59	8.1418
3065.98	32.5622
3065.36	40.6966
3064.75	44.7594
3064.13	52.8894
3063.52	8.13559
3062.9	24.403
3062.29	48.7986
3061.67	12.1978
3061.06	32.5225
3060.44	24.3881
3059.83	40.6407
3059.21	28.4441
3058.6	20.3141
3057.98	24.3732
3057.37	0
3056.75	16.2438
3056.14	-4.06034
3055.52	12.1792
3054.9	12.1773
3054.29	28.4094
3053.67	44.6364
3053.06	20.2862
3052.44	56.7927
3051.82	16.224
3051.21	-12.1661
3050.59	36.4928
3049.97	16.2165
3049.36	16.2141
3048.74	28.3703
3048.12	-12.1568
3047.51	40.5166
3046.89	12.1531
3046.27	20.2521
3045.65	24.2988
3045.04	-4.04918
3044.42	36.437
3043.8	40.4794
3043.18	12.142
3042.57	28.3269
3041.95	44.5069
3041.33	36.4092
3040.71	40.4484
3040.09	36.398
3039.48	36.3925
3038.86	44.4729
3038.24	24.2542
3037.62	16.167
3037	24.2468
3036.38	28.2836
3035.76	28.2793
3035.14	40.3928
3034.53	32.3093
3033.91	36.3423
3033.29	28.2619
3032.67	12.1104
3032.05	36.3257
3031.43	8.07113
3030.81	0
3030.19	48.4119
3029.57	56.472
3028.95	32.2647
3028.33	28.2273
3027.71	24.1911
3027.09	56.4374
3026.47	4.03062
3025.85	12.09
3025.23	8.05877
3024.61	32.2302
3023.99	20.1408
3023.37	32.2203
3022.75	16.1077
3022.13	8.0526
3021.5	44.2825
3020.88	24.1504
3020.26	8.0489
3019.64	28.1668
3019.02	12.0696
3018.4	32.1808
3017.78	20.1099
3017.15	16.0855
3016.53	0
3015.91	32.1611
3015.29	48.2342
3014.67	36.1701
3014.04	16.0731
3013.42	44.1943
3012.8	40.1705
3012.18	40.1643
3011.56	8.03164
3010.93	24.0912
3010.31	20.0729
3009.69	56.1956
3009.06	16.0534
3008.44	64.2038
3007.82	8.02425
3007.19	24.069
3006.57	28.0762
3005.95	48.1233
3005.32	28.0676
3004.7	12.0271
3004.08	40.0843
3003.45	40.0782
3002.83	40.072
3002.21	0
3001.58	36.0537
3000.96	24.0321
3000.33	36.0427
2999.71	4.00413
2999.08	12.0105
2998.46	56.0405
2997.84	44.0251
2997.21	48.02
2996.59	8.0021
2995.96	0
2995.34	7.99965
2994.71	39.9921
2994.09	27.9902
2993.46	55.9717
2992.83	31.9789
2992.21	23.9805
2991.58	31.9691
2990.96	11.9866
2990.33	23.9695
2989.71	23.9658
2989.08	27.9558
2988.45	23.9584
2987.83	43.917
2987.2	11.9755
2986.58	19.9561
2985.95	-7.98123
2985.32	27.93
2984.7	19.9469
2984.07	27.9214
2983.44	51.8461
2982.82	-11.9626
2982.19	15.9477
2981.56	47.8359
2980.93	31.8857
2980.31	59.7764
2979.68	27.8914
2979.05	15.9355
2978.42	35.8493
2977.8	43.8091
2977.17	19.9102
2976.54	15.9257
2975.91	19.904
2975.28	27.8614
2974.66	23.8775
2974.03	11.9369
2973.4	31.8269
2972.77	67.6217
2972.14	43.7485
2971.51	39.7652
2970.88	43.735
2970.26	19.8765
2969.63	35.7722
2969	35.7667
2968.37	3.97346
2967.74	11.9186
2967.11	27.8057
2966.48	51.6312
2965.85	55.5943
2965.22	27.7928
2964.59	59.5469
2963.96	27.7843
2963.33	63.4972
2962.7	39.6796
2962.07	47.6082
2961.44	35.7007
2960.81	43.6274
2960.18	91.2069
2959.55	27.7544
2958.92	59.4644
2958.29	19.8184
2957.66	47.5569
2957.03	35.6622
2956.4	63.3897
2955.76	35.6512
2955.13	71.2914
2954.5	31.6802
2953.87	79.1883
2953.24	59.382
2952.61	47.4983
2951.98	35.6182
2951.34	67.2685
2950.71	39.5636
2950.08	27.6903
2949.45	51.4169
2948.82	51.4089
2948.18	51.401
2947.55	59.2997
2946.92	47.4325
2946.29	71.1377
2945.65	79.0297
2945.02	63.214
2944.39	55.3037
2943.76	90.8421
2943.12	71.0829
2942.49	82.9172
2941.86	82.9045
2941.22	114.469
2940.59	102.612
2939.96	47.3521
2939.32	78.9079
2938.69	98.6197
2938.05	114.381
2937.42	130.138
2936.79	114.346
2936.15	90.6741
2935.52	141.903
2934.88	145.822
2934.25	114.275
2933.61	145.777
2932.98	133.937
2932.34	129.977
2931.71	149.648
2931.08	141.75
2930.44	169.286
2929.81	129.897
2929.17	137.748
2928.53	137.727
2927.9	165.247
2927.26	133.751
2926.63	161.263
2925.99	173.036
2925.36	165.145
2924.72	172.982
2924.08	172.955
2923.45	168.999
2922.81	133.606
2922.18	165.017
2921.54	157.135
2920.9	141.4
2920.27	184.577
2919.63	160.989
2918.99	153.112
2918.36	160.939
2917.72	145.215
2917.08	188.358
2916.44	160.864
2915.81	164.763
2915.17	156.892
2914.53	145.103
2913.9	137.238
2913.26	121.535
2912.62	168.555
2911.98	156.771
2911.34	195.934
2910.71	156.723
2910.07	188.038
2909.43	195.843
2908.79	203.645
2908.15	187.951
2907.51	199.667
2906.88	207.465
2906.24	180.036
2905.6	183.921
2904.96	215.194
2904.32	176.041
2903.68	215.127
2903.04	172.075
2902.4	234.612
2901.76	195.48
2901.12	203.267
2900.48	222.778
2899.84	218.836
2899.2	257.873
2898.56	253.927
2897.92	230.452
2897.28	257.754
2896.64	242.095
2896	238.153
2895.36	296.669
2894.72	249.788
2894.08	265.359
2893.44	238.006
2892.8	253.573
2892.16	300.34
2891.52	245.695
2890.88	222.261
2890.24	233.923
2889.59	323.543
2888.95	292.313
2888.31	280.577
2887.67	272.741
2887.03	284.386
2886.39	272.656
2885.74	288.192
2885.1	342.662
2884.46	342.609
2883.82	377.59
2883.18	334.718
2882.53	346.341
2881.89	435.777
2881.25	466.832
2880.6	455.09
2879.96	470.576
2879.32	482.168
2878.68	431.552
2878.03	485.906
2877.39	446.964
2876.75	400.263
2876.1	373.002
2875.46	361.29
2874.82	361.234
2874.17	267.971
2873.53	264.046
2872.88	333.889
2872.24	260.082
2871.6	248.398
2870.95	252.241
2870.31	275.482
2869.66	232.765
2869.02	232.729
2868.37	259.841
2867.73	259.8
2867.08	248.129
2866.44	255.843
2865.79	267.431
2865.15	217.012
2864.5	251.849
2863.86	278.928
2863.21	267.265
2862.57	255.605
2861.92	216.843
2861.28	255.526
2860.63	305.809
2859.98	270.928
2859.34	239.928
2858.69	305.667
2858.05	305.619
2857.4	251.42
2856.75	290.055
2856.11	259.075
2855.46	297.697
2854.81	328.576
2854.17	367.174
2853.52	359.389
2852.87	347.741
2852.23	351.551
2851.58	382.397
2850.93	351.441
2850.28	343.664
2849.64	432.409
2848.99	443.922
2848.34	401.398
2847.69	459.22
2847.05	408.99
2846.4	462.935
2845.75	466.721
2845.1	435.795
2844.45	462.719
2843.8	474.214
2843.16	451.011
2842.51	408.545
2841.86	400.774
2841.21	446.948
2840.56	439.174
2839.91	381.328
2839.26	323.501
2838.61	304.198
2837.96	288.75
2837.31	265.609
2836.66	230.928
2836.01	196.259
2835.36	238.552
2834.72	184.657
2834.07	169.242
2833.42	165.37
2832.76	138.428
2832.11	126.872
2831.46	92.2565
2830.81	130.676
2830.16	103.756
2829.51	119.109
2828.86	92.1991
2828.21	88.3437
2827.56	76.8086
2826.91	88.3162
2826.26	76.7847
2825.61	92.1273
2824.96	72.9228
2824.3	80.5863
2823.65	38.3685
2823	88.2337
2822.35	72.8774
2821.7	42.1856
2821.04	49.8479
2820.39	49.8402
2819.74	84.3318
2819.09	88.1513
2818.44	61.3131
2817.78	57.4721
2817.13	84.2792
2816.48	68.945
2815.83	107.231
2815.17	68.9235
2814.52	72.7413
2813.87	80.3857
2813.21	84.2005
2812.56	61.2272
2811.91	57.3915
2811.25	65.0336
2810.6	91.7978
2809.95	87.9592
2809.29	53.532
2808.64	49.7006
2807.98	49.6928
2807.33	49.6851
2806.68	42.0347
2806.02	38.2074
2805.37	87.8633
2804.71	53.4737
2804.06	87.8359
2803.4	61.0937
2802.75	83.9907
2802.09	53.4403
2801.44	83.9645
2800.78	57.2396
2800.13	64.8614
2799.47	34.3331
2798.82	64.8412
2798.16	49.5767
2797.51	49.569
2796.85	49.5612
2796.19	60.9889
2795.54	64.7906
2794.88	68.5911
2794.23	95.2506
2793.57	41.9037
2792.91	38.0884
2792.26	60.9319
2791.6	60.9223
2790.94	53.2987
2790.29	79.9356
2789.63	64.6997
2788.97	64.6896
2788.32	15.2187
2787.66	26.6286
2787	49.4453
2786.34	49.4376
2785.69	76.046
2785.03	53.2239
2784.37	72.2211
2783.71	72.2098
2783.06	45.5991
2782.4	68.388
2781.74	49.3836
2781.08	83.5592
2780.42	72.1535
2779.76	30.3757
2779.11	64.5382
2778.45	56.9366
2777.79	49.3373
2777.13	41.7404
2776.47	56.9099
2775.81	45.5208
2775.15	72.0633
2774.49	64.4676
2773.83	79.624
2773.17	94.7757
2772.51	68.2278
2771.86	30.3187
2771.2	64.4172
2770.54	49.2525
2769.88	71.9732
2769.22	41.6622
2768.56	56.8032
2767.9	71.9395
2767.23	71.9282
2766.57	60.5617
2765.91	52.9832
2765.25	45.407
2764.59	45.3999
2763.93	71.872
2763.27	94.5536
2762.61	34.034
2761.95	68.0573
2761.29	34.0233
2760.63	30.2382
2759.96	56.6878
2759.3	52.9003
2758.64	22.668
2757.98	52.8838
2757.32	37.7682
2756.65	56.6434
2755.99	52.8589
2755.33	52.8507
2754.67	56.6169
2754.01	49.0603
2753.34	86.7853
2752.68	52.8176
2752.02	41.493
2751.35	67.8871
2750.69	26.3964
2750.03	71.6361
2749.37	37.6973
2748.7	41.4605
2748.04	60.2968
2747.38	64.0553
2746.71	48.9758
2746.05	52.7349
2745.38	79.09
2744.72	64.0152
2744.06	56.4751
2743.39	22.5865
2742.73	45.166
2742.06	48.9221
2741.4	67.7277
2740.73	41.3827
2740.07	45.1376
2739.41	101.544
2738.74	48.8838
2738.08	109.031
2737.41	67.664
2736.75	48.8608
2736.08	41.3373
2735.41	86.4189
2734.75	60.1081
2734.08	63.8548
2733.42	60.0892
2732.75	71.3448
2732.09	90.1056
2731.42	90.0915
2730.75	52.5451
2730.09	56.2895
2729.42	75.0409
2728.76	60.0233
2728.09	78.7682
2727.42	78.7559
2726.76	67.4944
2726.09	108.724
2725.42	71.2218
2724.75	97.4461
2724.09	123.662
2723.42	108.656
2722.75	78.6694
2722.09	86.1482
2721.42	93.6247
2720.75	89.8656
2720.08	86.1076
2719.41	123.526
2718.75	89.8232
2718.08	86.0671
2717.41	71.0877
2716.74	97.2627
2716.07	78.546
2715.41	63.5749
2714.74	93.4778
2714.07	97.2016
2713.4	74.7587
2712.73	89.6964
2712.06	74.7352
2711.39	59.7788
2710.72	97.1253
2710.05	78.435
2709.38	67.2195
2708.71	59.7412
2708.04	108.264
2707.37	89.5837
2706.7	74.6413
2706.03	74.6296
2705.36	97.0033
2704.69	52.2243
2704.02	85.7836
2703.35	63.3953
2702.68	67.1139
2702.01	67.1033
2701.34	85.7297
2700.67	78.2626
2700	89.4289
2699.33	85.6892
2698.66	59.6005
2697.99	48.4178
2697.32	55.8579
2696.64	67.019
2695.97	93.0673
2695.3	78.1642
2694.63	81.8734
2693.96	63.2559
2693.29	107.89
2692.61	59.5162
2691.94	70.6644
2691.27	40.9045
2690.6	66.9241
2689.92	55.7613
2689.25	55.7526
2688.58	85.4738
2687.91	63.1664
2687.23	85.4469
2686.56	40.8595
2685.89	70.5644
2685.21	96.5466
2684.54	89.1059
2683.87	70.531
2683.19	66.8084
2682.52	111.33
2681.85	92.7602
2681.17	63.067
2680.5	29.6739
2679.82	81.5904
2679.15	63.0372
2678.48	59.3198
2677.8	81.5519
2677.13	85.2453
2676.45	96.3491
2675.78	96.3339
2675.1	85.205
2674.43	85.1916
2673.75	85.1782
2673.08	77.7591
2672.4	62.938
2671.73	22.2099
2671.05	59.2171
2670.37	70.3092
2669.7	59.1984
2669.02	96.1822
2668.35	62.8785
2667.67	92.4538
2667	48.0684
2666.32	88.7276
2665.64	85.0172
2664.97	70.2206
2664.29	59.1238
2663.61	62.8091
2662.94	84.9636
2662.26	48.0153
2661.58	51.7007
2660.91	99.6927
2660.23	51.6844
2659.55	70.132
2658.87	114.408
2658.2	47.9699
2657.52	106.993
2656.84	114.354
2656.16	88.5179
2655.49	55.315
2654.81	51.6192
2654.13	36.865
2653.45	84.7762
2652.77	58.9654
2652.09	70.0104
2651.42	44.2101
2650.74	66.3047
2650.06	66.2942
2649.38	62.6013
2648.7	69.9551
2648.02	47.8565
2647.34	77.2944
2646.66	66.2419
2645.98	62.5519
2645.3	80.9368
2644.62	58.8538
2643.94	66.2001
2643.26	62.5124
2642.58	55.1493
2641.9	58.8166
2641.22	77.1846
2640.54	77.1724
2639.86	69.8116
2639.18	88.1692
2638.5	51.4239
2637.82	88.1413
2637.14	69.7675
2636.46	80.7707
2635.78	55.0622
2635.1	62.394
2634.42	69.7234
2633.73	36.6907
2633.05	47.6904
2632.37	73.3583
2631.69	95.3507
2631.01	91.6689
2630.33	73.3235
2629.64	80.6431
2628.96	80.6304
2628.28	43.9732
2627.6	43.9663
2626.91	65.939
2626.23	84.2421
2625.55	43.9454
2624.87	73.2308
2624.18	65.8973
2623.5	65.8869
2622.82	76.8559
2622.13	62.2068
2621.45	76.8315
2620.77	73.1613
2620.08	76.8072
2619.4	69.4813
2618.72	69.4703
2618.03	84.0823
2617.35	62.1379
2616.67	43.8551
2615.98	58.4642
2615.3	87.6825
2614.61	105.933
2613.93	80.3502
2613.24	58.4272
2612.56	73.0225
2611.87	80.312
2611.19	76.6493
2610.5	32.8445
2609.82	72.9762
2609.13	40.1306
2608.45	72.9531
2607.76	65.6474
2607.08	65.637
2606.39	61.9807
2605.71	51.0348
2605.02	80.1849
2604.33	51.0187
2603.65	72.8723
2602.96	65.5746
2602.27	72.8492
2601.59	61.912
2600.9	50.9783
2600.21	72.8145
2599.53	58.2424
2598.84	43.6749
2598.15	47.307
2597.47	61.8531
2596.78	87.3082
2596.09	83.6571
2595.41	72.7338
2594.72	65.45
2594.03	61.8041
2593.34	69.0642
2592.65	61.7845
2591.97	83.5776
2591.28	72.6646
2590.59	76.2857
2589.9	90.802
2589.21	39.9465
2588.52	65.3567
2587.84	87.1284
2587.15	68.9657
2586.46	83.4716
2585.77	61.6866
2585.08	90.7012
2584.39	90.6868
2583.7	79.7917
2583.01	76.1527
2582.32	58.0119
2581.63	76.1285
2580.94	72.4919
2580.25	76.1044
2579.56	90.5861
2578.87	47.0973
2578.18	54.3344
2577.49	57.9475
2576.8	83.2863
2576.11	39.8262
2575.42	68.7799
2574.73	65.1495
2574.04	50.6638
2573.35	86.8384
2572.66	79.5892
2571.97	75.9595
2571.28	65.0978
2570.58	54.2395
2569.89	86.7695
2569.2	65.0668
2568.51	46.9852
2567.82	75.8871
2567.13	75.8751
2566.43	72.2505
2565.74	72.239
2565.05	83.0616
2564.36	79.4376
2563.66	86.6455
2562.97	68.5834
2562.28	83.0088
2561.59	68.5616
2560.89	50.5111
2560.2	68.5398
2559.51	82.9561
2558.81	75.7304
2558.12	75.7184
2557.43	61.2861
2556.73	72.0898
2556.04	46.8509
2555.35	72.0669
2554.65	75.6582
2553.96	50.4308
2553.26	57.626
2552.57	82.8242
2551.88	68.4091
2551.18	57.5985
2550.49	71.9867
2549.79	57.5802
2549.1	64.7674
2548.4	86.3428
2547.71	82.732
2547.01	57.5435
2546.32	50.3426
2545.62	50.3346
2544.93	61.1108
2544.23	79.072
2543.53	107.808
2542.84	97.012
2542.14	86.2192
2541.45	53.8784
2540.75	57.4611
2540.05	75.4057
2539.36	89.7545
2538.66	64.6129
2537.97	100.493
2537.27	68.1808
2536.57	93.2852
2535.88	82.5084
2535.18	57.388
2534.48	46.6203
2533.78	57.3697
2533.09	82.4558
2532.39	93.196
2531.69	71.6778
2530.99	71.6664
2530.3	71.655
2529.6	64.4792
2528.9	75.2138
2528.2	85.9449
2527.5	68.0289
2526.81	93.0773
2526.11	89.4831
2525.41	103.784
2524.71	71.5637
2524.01	78.7075
2523.31	46.5016
2522.61	75.1059
2521.91	67.9421
2521.21	64.356
2520.52	100.093
2519.82	67.9096
2519.12	60.7516
2518.42	78.6071
2517.72	85.7395
2517.02	75.0101
2516.32	42.8561
2515.62	89.2693
2514.92	74.9742
2514.22	99.9497
2513.52	117.779
2512.82	89.2123
2512.11	85.6302
2511.41	74.9144
2510.71	114.137
2510.01	71.3243
2509.31	96.2724
2508.61	42.7809
2507.91	96.2417
2507.21	92.6624
2506.5	110.464
2505.8	85.5072
2505.1	74.8069
2504.4	74.7949
2503.7	110.394
2503	67.65
2502.29	71.1991
2501.59	74.7471
2500.89	64.0587
2500.19	81.8398
2499.48	39.1345
2498.78	103.156
2498.08	106.696
2497.37	99.5674
2496.67	60.4419
2495.97	71.0968
2495.26	81.7483
2494.56	74.6278
2493.86	99.4878
2493.15	103.024
2492.45	67.488
2491.75	24.86
2491.04	67.4664
2490.34	110.059
2489.63	92.293
2488.93	88.7291
2488.22	42.5831
2487.52	88.7007
2486.81	99.3289
2486.11	109.954
2485.41	67.3802
2484.7	95.7355
2483.99	81.5394
2483.29	74.4371
2482.58	95.6895
2481.88	124.022
2481.17	81.4872
2480.47	95.6436
2479.76	63.7522
2479.06	106.237
2478.35	88.5164
2477.64	81.4221
2476.94	67.2509
2476.23	74.3181
2475.52	81.383
2474.82	123.824
2474.11	84.8942
2473.4	63.6604
2472.7	123.764
2471.99	81.3178
2471.28	81.3048
2470.57	98.9639
2469.87	53.0079
2469.16	42.3995
2468.45	81.2528
2467.74	74.1754
2467.04	60.0371
2466.33	74.1517
2465.62	77.6702
2464.91	74.1279
2464.2	70.5867
2463.5	63.5178
2462.79	70.5641
2462.08	119.94
2461.37	70.5415
2460.66	49.3711
2459.95	102.252
2459.24	88.1344
2458.53	91.6451
2457.82	70.485
2457.11	95.1394
2456.4	84.5548
2455.69	88.0638
2454.99	70.4398
2454.28	88.0356
2453.57	80.9798
2452.85	77.4465
2452.14	102.072
2451.43	80.9408
2450.72	87.965
2450.01	94.987
2449.3	45.7271
2448.59	101.99
2447.88	98.4576
2447.17	84.3787
2446.46	70.3043
2445.75	91.381
2445.04	105.423
2444.32	101.892
2443.61	80.7981
2442.9	49.1736
2442.19	63.213
2441.48	87.7817
2440.76	101.81
2440.05	115.835
2439.34	108.797
2438.63	84.2164
2437.92	84.2029
2437.2	84.1893
2436.49	52.6099
2435.78	98.1894
2435.06	98.1736
2434.35	80.6296
2433.64	80.6167
2432.92	77.0992
2432.21	94.6066
2431.5	73.5711
2430.78	91.0734
2430.07	73.5475
2429.36	77.0373
2428.64	101.533
2427.93	94.5154
2427.21	98.0003
2426.5	111.982
2425.78	87.4721
2425.07	87.4581
2424.35	108.431
2423.64	87.4299
2422.92	108.396
2422.21	97.8901
2421.49	118.847
2420.78	87.3737
2420.06	101.337
2419.35	111.802
2418.63	101.305
2417.92	83.8249
2417.2	90.7957
2416.48	104.747
2415.77	80.2934
2415.05	104.714
2414.34	94.2272
2413.62	80.2547
2412.9	76.753
2412.19	62.7878
2411.47	87.1913
2410.75	104.613
2410.04	94.1363
2409.32	104.579
2408.6	90.6206
2407.88	101.061
2407.17	97.56
2406.45	87.0931
2405.73	73.1464
2405.01	83.5825
2404.29	104.461
2403.58	100.963
2402.86	66.1375
2402.14	73.0876
2401.42	93.9546
2400.7	100.898
2399.98	83.4883
2399.27	104.344
2398.55	83.4614
2397.83	83.448
2397.11	59.0995
2396.39	86.897
2395.67	111.21
2394.95	86.869
2394.23	76.4324
2393.51	86.841
2392.79	83.3539
2392.07	90.2855
2391.35	52.0794
2390.63	72.8994
2389.91	104.125
2389.19	97.1679
2388.47	100.622
2387.75	86.7291
2387.03	79.7779
2386.31	65.8929
2385.59	79.7522
2384.87	69.3386
2384.14	69.3274
2383.42	90.1111
2382.7	86.6313
2381.98	93.5467
2381.26	103.924
2380.54	107.371
2379.82	121.206
2379.09	86.5614
2378.37	65.7761
2377.65	93.4562
2376.93	76.1372
2376.2	89.9658
2375.48	110.709
2374.76	76.1004
2374.04	103.756
2373.31	107.198
2372.59	114.095
2371.87	62.2238
2371.14	86.4079
2370.42	96.7613
2369.7	120.932
2368.97	76.0022
2368.25	124.347
2367.52	69.0706
2366.8	72.5124
2366.08	107.025
2365.35	82.8446
2364.63	113.893
2363.9	89.7193
2363.18	120.756
2362.45	93.1399
2361.73	117.268
2361	86.2128
2360.28	89.6469
2359.55	93.0798
2358.83	110.299
2358.1	113.727
2357.38	106.818
2356.65	79.239
2355.93	68.8923
2355.2	113.654
2354.47	137.74
2353.75	92.9595
2353.02	82.6173
2352.3	96.3713
2351.57	86.0319
2350.84	86.018
2350.12	86.0041
2349.39	96.309
2348.66	68.781
2347.94	106.593
2347.21	103.138
2346.48	89.372
2345.75	113.415
2345.03	96.2156
2344.3	85.8929
2343.57	85.879
2342.84	78.9959
2342.11	72.115
2341.39	65.2364
2340.66	61.7929
2339.93	58.3505
2339.2	109.818
2338.47	89.2131
2337.74	82.3372
2337.02	89.1842
2336.29	109.747
2335.56	102.872
2334.83	65.1414
2334.1	119.978
2333.37	109.676
2332.64	119.939
2331.91	78.8044
2331.18	71.9402
2330.45	102.755
2329.72	75.3415
2328.99	133.538
2328.26	92.4346
2327.53	99.2655
2326.8	95.8271
2326.07	92.3897
2325.34	85.5322
2324.61	126.567
2323.88	95.765
2323.14	109.428
2322.41	92.3149
2321.68	129.904
2320.95	75.1952
2320.22	95.6874
2319.49	133.257
2318.76	85.4075
2318.02	92.2252
2317.29	85.3798
2316.56	105.854
2315.83	112.665
2315.1	102.406
2314.36	92.1504
2313.63	109.198
2312.9	98.9443
2312.16	105.751
2311.43	95.5015
2310.7	92.0758
2309.97	88.6512
2309.23	98.8641
2308.5	95.4395
2307.76	98.832
2307.03	64.7415
2306.3	102.207
2305.56	129.441
2304.83	105.58
2304.1	91.9414
2303.36	95.3312
2302.63	64.6785
2301.89	119.125
2301.16	88.4787
2300.42	112.282
2299.69	95.2539
2298.95	98.6398
2298.22	136.033
2297.48	102.008
2296.75	101.991
2296.01	74.7816
2295.28	91.7625
2294.54	105.34
2293.8	108.72
2293.07	112.1
2292.33	81.5137
2291.6	112.063
2290.86	115.44
2290.12	57.7107
2289.39	91.6434
2288.65	91.6285
2287.91	115.365
2287.18	105.169
2286.44	91.5838
2285.7	132.266
2284.97	98.3358
2284.23	81.3682
2283.49	81.3549
2282.75	98.2879
2282.01	94.8832
2281.28	91.4797
2280.54	142.279
2279.8	101.611
2279.06	101.595
2278.32	115.122
2277.59	111.718
2276.85	128.624
2276.11	94.7599
2275.37	98.1282
2274.63	111.645
2273.89	101.479
2273.15	98.0804
2272.41	138.643
2271.67	104.81
2270.93	108.174
2270.19	101.396
2269.45	98.0006
2268.71	111.5
2267.97	77.6993
2267.23	104.708
2266.49	101.314
2265.75	108.051
2265.01	91.1529
2264.27	121.517
2263.53	101.248
2262.79	91.1084
2262.05	141.701
2261.31	101.199
2260.57	101.182
2259.83	124.771
2259.09	114.636
2258.34	131.472
2257.6	101.116
2256.86	114.58
2256.12	97.7138
2255.38	128.018
2254.63	121.26
2253.89	80.8271
2253.15	101.017
2252.41	117.834
2251.66	97.6184
2250.92	107.699
2250.18	117.777
2249.43	104.3
2248.69	111.011
2247.95	107.629
2247.21	90.7972
2246.46	117.681
2245.72	104.215
2244.97	110.92
2244.23	124.345
2243.49	110.884
2242.74	110.866
2242	117.566
2241.25	100.754
2240.51	137.675
2239.76	110.794
2239.02	117.489
2238.27	117.47
2237.53	107.384
2236.78	104.011
2236.04	137.54
2235.29	127.456
2234.55	137.496
2233.8	100.59
2233.06	90.5163
2232.31	87.1496
2231.57	130.703
2230.82	110.577
2230.07	113.909
2229.33	147.388
2228.58	137.316
2227.83	110.505
2227.09	117.183
2226.34	103.774
2225.59	107.104
2224.85	117.125
2224.1	110.415
2223.35	133.814
2222.6	127.103
2221.86	137.115
2221.11	100.311
2220.36	123.697
2219.61	103.621
2218.87	130.341
2218.12	116.953
2217.37	93.5475
2216.62	120.256
2215.87	106.876
2215.12	116.877
2214.37	136.891
2213.63	120.177
2212.88	123.495
2212.13	103.452
2211.38	110.108
2210.63	133.443
2209.88	100.066
2209.13	133.399
2208.38	136.712
2207.63	116.686
2206.88	136.667
2206.13	119.981
2205.38	126.626
2204.63	89.9562
2203.88	129.915
2203.13	129.894
2202.38	103.232
2201.63	129.852
2200.88	119.843
2200.12	119.824
2199.37	133.116
2198.62	149.731
2197.87	133.072
2197.12	116.419
2196.37	99.7716
2195.62	89.7797
2194.86	106.388
2194.11	126.315
2193.36	122.971
2192.61	146.212
2191.85	106.319
2191.1	129.555
2190.35	149.461
2189.6	126.191
2188.84	106.249
2188.09	109.551
2187.34	112.853
2186.58	82.9662
2185.83	132.724
2185.08	122.75
2184.32	122.73
2183.57	135.975
2182.82	142.585
2182.06	142.562
2181.31	119.334
2180.55	112.686
2179.8	152.433
2179.04	139.155
2178.29	142.445
2177.53	139.109
2176.78	129.152
2176.02	129.131
2175.27	148.973
2174.51	175.428
2173.76	122.448
2173	135.664
2172.25	119.1
2171.49	142.235
2170.74	142.212
2169.98	128.961
2169.22	185.145
2168.47	132.225
2167.71	142.118
2166.95	132.181
2166.2	109.032
2165.44	161.869
2164.68	158.54
2163.93	108.978
2163.17	122.168
2162.41	92.436
2161.65	115.526
2160.9	118.807
2160.14	115.488
2159.38	112.17
2158.62	125.346
2157.87	128.623
2157.11	125.305
2156.35	115.393
2155.59	89.0031
2154.83	148.314
2154.07	144.994
2153.31	128.497
2152.56	135.064
2151.8	128.455
2151.04	118.554
2150.28	128.412
2149.52	151.436
2148.76	141.536
2148	95.439
2147.24	125.038
2146.48	131.597
2145.72	141.443
2144.96	118.398
2144.2	141.397
2143.44	131.51
2142.68	141.35
2141.92	121.607
2141.16	118.301
2140.4	128.138
2139.64	137.972
2138.87	134.665
2138.11	170.767
2137.35	114.92
2136.59	134.599
2135.83	137.859
2135.07	141.118
2134.31	154.22
2133.54	114.826
2132.78	144.329
2132.02	160.703
2131.26	121.327
2130.49	140.979
2129.73	118.01
2128.97	124.545
2128.21	157.294
2127.44	167.098
2126.68	144.139
2125.92	144.115
2125.15	144.092
2124.39	127.696
2123.63	153.865
2122.86	124.381
2122.1	186.541
2121.33	147.245
2120.57	157.036
2119.81	147.197
2119.04	124.279
2118.28	170.038
2117.51	111.16
2116.75	147.1
2115.98	127.465
2115.22	156.855
2114.45	156.829
2113.69	150.27
2112.92	166.576
2112.16	156.751
2111.39	163.256
2110.62	159.964
2109.86	150.146
2109.09	150.121
2108.33	143.57
2107.56	163.121
2106.79	123.952
2106.03	153.283
2105.26	143.476
2104.49	117.37
2103.73	127.13
2102.96	156.442
2102.19	153.157
2101.42	143.358
2100.66	172.652
2099.89	123.768
2099.12	172.595
2098.35	136.751
2097.59	162.772
2096.82	136.706
2096.05	182.245
2095.28	156.184
2094.51	136.638
2093.74	152.88
2092.98	149.602
2092.21	156.081
2091.44	143.05
2090.67	165.781
2089.9	139.753
2089.13	129.982
2088.36	162.45
2087.59	178.666
2086.82	168.892
2086.05	168.864
2085.28	185.071
2084.51	162.316
2083.74	168.781
2082.97	165.508
2082.2	139.523
2081.43	178.43
2080.66	139.477
2079.89	194.586
2079.12	175.099
2078.35	119.955
2077.57	149.109
2076.8	113.434
2076.03	139.338
2075.26	155.515
2074.49	161.968
2073.72	161.941
2072.94	148.961
2072.17	155.412
2071.4	161.861
2070.63	174.781
2069.86	200.641
2069.08	148.838
2068.31	132.638
2067.54	168.196
2066.76	184.338
2065.99	177.841
2065.22	171.346
2064.44	181.015
2063.67	206.84
2062.9	184.186
2062.12	158.309
2061.35	142.132
2060.58	158.257
2059.8	177.606
2059.03	200.177
2058.25	184.003
2057.48	145.242
2056.7	206.532
2055.93	164.553
2055.15	177.43
2054.38	193.528
2053.6	174.146
2052.83	161.22
2052.05	148.298
2051.28	151.496
2050.5	170.808
2049.72	199.78
2048.95	186.86
2048.17	183.608
2047.4	177.136
2046.62	186.767
2045.84	183.517
2045.07	183.486
2044.29	151.271
2043.51	160.9
2042.74	193.048
2041.96	167.28
2041.18	202.633
2040.4	144.714
2039.63	160.766
2038.85	167.169
2038.07	202.499
2037.29	199.251
2036.52	186.365
2035.74	186.335
2034.96	183.092
2034.18	202.331
2033.4	218.353
2032.62	192.632
2031.84	218.28
2031.07	192.568
2030.29	182.91
2029.51	170.046
2028.73	198.888
2027.95	198.855
2027.17	166.754
2026.39	218.027
2025.61	150.67
2024.83	198.723
2024.05	211.509
2023.27	189.045
2022.49	172.996
2021.71	156.951
2020.93	188.951
2020.15	179.314
2019.37	230.508
2018.59	198.46
2017.8	220.83
2017.02	182.394
2016.24	201.56
2015.46	223.919
2014.68	207.89
2013.9	207.856
2013.11	201.427
2012.33	226.967
2011.55	210.948
2010.77	210.913
2009.99	185.317
2009.2	220.427
2008.42	217.196
2007.64	201.193
2006.85	239.475
2006.07	220.281
2005.29	217.052
2004.5	204.25
2003.72	188.262
2002.94	213.753
2002.15	194.579
2001.37	242.386
2000.59	216.836
1999.8	248.682
1999.02	229.514
1998.23	245.412
1997.45	191.198
1996.66	229.4
1995.88	219.805
1995.09	251.619
1994.31	242.024
1993.52	206.96
1992.74	206.925
1991.95	254.635
1991.17	194.127
1990.38	225.913
1989.6	257.689
1988.81	225.838
1988.02	241.702
1987.24	248.021
1986.45	216.188
1985.67	232.045
1984.88	254.254
1984.09	260.567
1983.3	295.472
1982.52	228.714
1981.73	235.028
1980.94	285.798
1980.16	241.3
1979.37	279.354
1978.58	263.437
1977.79	276.087
1977.01	222.102
1976.22	256.961
1975.43	291.808
1974.64	263.218
1973.85	206.1
1973.06	266.301
1972.27	259.917
1971.49	228.182
1970.7	256.662
1969.91	269.291
1969.12	250.241
1968.33	272.369
1967.54	250.158
1966.75	288.108
1965.96	291.226
1965.17	259.527
1964.38	303.786
1963.59	265.769
1962.8	243.581
1962.01	313.123
1961.22	290.934
1960.43	294.048
1959.64	249.741
1958.85	300.271
1958.06	325.503
1957.26	306.491
1956.47	303.28
1955.68	262.167
1954.89	300.021
1954.1	230.504
1953.31	274.664
1952.51	280.932
1951.72	255.637
1950.93	261.905
1950.14	287.101
1949.34	287.053
1948.55	280.697
1947.76	258.577
1946.97	230.158
1946.17	299.471
1945.38	312.028
1944.59	296.22
1943.79	258.361
1943	311.872
1942.21	340.167
1941.41	302.32
1940.62	295.972
1939.82	299.071
1939.03	324.202
1938.24	321.001
1937.44	333.533
1936.65	327.186
1935.85	339.713
1935.06	342.801
1934.26	317.588
1933.47	308.104
1932.67	339.486
1931.88	301.715
1931.08	326.803
1930.28	317.323
1929.49	320.411
1928.69	345.484
1927.9	323.444
1927.1	351.648
1926.3	345.311
1925.51	351.53
1924.71	332.643
1923.91	335.725
1923.12	294.886
1922.32	319.93
1921.52	319.876
1920.73	335.5
1919.93	329.174
1919.13	307.178
1918.33	329.064
1917.53	332.142
1916.74	335.22
1915.94	335.164
1915.14	322.58
1914.34	347.577
1913.54	341.257
1912.74	334.939
1911.95	322.364
1911.15	316.052
1910.35	341.029
1909.55	300.305
1908.75	328.404
1907.95	340.857
1907.15	356.433
1906.35	309.483
1905.55	325.059
1904.75	343.754
1903.95	378.066
1903.15	362.383
1902.35	349.829
1901.55	387.245
1900.75	396.548
1899.95	352.775
1899.15	355.837
1898.35	358.898
1897.54	346.357
1896.74	327.58
1895.94	352.479
1895.14	377.37
1894.34	380.425
1893.54	355.42
1892.73	358.478
1891.93	370.884
1891.13	370.822
1890.33	367.644
1889.53	330.201
1888.72	323.917
1887.92	376.802
1887.12	417.214
1886.31	373.562
1885.51	398.399
1884.71	376.549
1883.9	339.148
1883.1	335.98
1882.3	370.139
1881.49	357.637
1880.69	404.217
1879.88	348.19
1879.08	428.948
1878.28	385.367
1877.47	382.195
1876.67	354.17
1875.86	385.173
1875.06	406.849
1874.25	350.887
1873.45	375.665
1872.64	375.602
1871.84	397.265
1871.03	403.404
1870.22	403.336
1869.42	431.187
1868.61	403.201
1867.81	421.74
1867	424.769
1866.19	350.298
1865.39	384.333
1864.58	359.477
1863.77	347.023
1862.97	350.063
1862.16	325.225
1861.35	424.27
1860.54	359.176
1859.74	383.882
1858.93	380.722
1858.12	383.753
1857.31	371.311
1856.51	377.436
1855.7	423.771
1854.89	426.793
1854.08	361.785
1853.27	389.549
1852.46	417.304
1851.65	386.328
1850.84	404.803
1850.04	386.198
1849.23	392.311
1848.42	386.068
1847.61	382.915
1846.8	435.338
1845.99	419.83
1845.18	361.116
1844.37	382.657
1843.56	345.568
1842.75	367.104
1841.94	382.464
1841.13	394.735
1840.31	410.086
1839.5	428.514
1838.69	385.289
1837.88	403.715
1837.07	406.728
1836.26	385.095
1835.45	406.591
1834.64	415.762
1833.82	412.613
1833.01	350.97
1832.2	427.865
1831.39	381.628
1830.57	440.029
1829.76	415.342
1828.95	381.435
1828.14	430.58
1827.32	369.007
1826.51	368.944
1825.7	421.141
1824.88	436.437
1824.07	448.656
1823.26	420.928
1822.44	454.648
1821.63	396.215
1820.81	399.219
1820	386.87
1819.19	448.202
1818.37	368.323
1817.56	438.845
1816.74	451.044
1815.93	457.103
1815.11	423.286
1814.3	450.816
1813.48	435.408
1812.67	426.138
1811.85	426.066
1811.03	450.512
1810.22	395.28
1809.4	382.959
1808.59	438.031
1807.77	480.834
1806.95	404.2
1806.14	404.132
1805.32	431.613
1804.5	434.601
1803.69	416.167
1802.87	468.109
1802.05	443.558
1801.24	388.43
1800.42	452.582
1799.6	424.989
1798.78	440.202
1797.96	437.071
1797.15	375.879
1796.33	436.923
1795.51	397.136
1794.69	448.993
1793.87	415.325
1793.05	424.415
1792.23	460.977
1791.42	415.115
1790.6	469.977
1789.78	433.282
1788.96	475.92
1788.14	427.035
1787.32	390.366
1786.5	457.383
1785.68	475.598
1784.86	457.229
1784.04	414.484
1783.22	414.414
1782.4	423.484
1781.58	426.458
1780.76	469.025
1779.93	459.81
1779.11	426.242
1778.29	453.566
1777.47	416.967
1776.65	422.983
1775.83	432.039
1775.01	486.722
1774.18	422.768
1773.36	492.639
1772.54	419.585
1771.72	465.113
1770.89	471.113
1770.07	422.411
1769.25	467.915
1768.43	449.609
1767.6	440.42
1766.78	455.53
1765.96	473.671
1765.13	467.519
1764.31	461.37
1763.49	433.978
1762.66	494.591
1761.84	442.933
1761.01	442.858
1760.19	467.045
1759.36	457.869
1758.54	442.633
1757.72	418.308
1756.89	445.513
1756.07	481.8
1755.24	478.689
1754.41	451.345
1753.59	484.584
1752.76	478.446
1751.94	457.171
1751.11	399.579
1750.29	472.149
1749.46	429.704
1748.63	438.708
1747.81	490.06
1746.98	496.026
1746.15	492.918
1745.33	486.787
1744.5	444.382
1743.67	435.24
1742.85	498.627
1742.02	492.5
1741.19	498.458
1740.36	456.088
1739.54	449.97
1738.71	492.166
1737.88	452.837
1737.05	488.981
1736.22	485.88
1735.39	431.485
1734.57	512.867
1733.74	482.616
1732.91	503.645
1732.08	497.529
1731.25	446.193
1730.42	518.46
1729.59	476.179
1728.76	491.165
1727.93	524.222
1727.1	469.912
1726.27	451.762
1725.44	493.842
1724.61	481.716
1723.78	487.654
1722.95	511.649
1722.12	466.424
1721.29	550.588
1720.46	502.364
1719.62	397.011
1718.79	514.222
1717.96	460.015
1717.13	511.041
1716.3	501.937
1715.47	501.852
1714.63	474.725
1713.8	477.649
1712.97	516.614
1712.14	567.578
1711.31	567.482
1710.47	483.328
1709.64	528.269
1708.81	540.183
1707.97	480.081
1707.14	498
1706.31	473.919
1705.47	536.817
1704.64	506.741
1703.81	467.681
1702.97	506.569
1702.14	551.437
1701.3	539.357
1700.47	536.269
1699.63	557.146
1698.8	563.041
1697.96	527.013
1697.13	502.972
1696.29	547.787
1695.46	529.736
1694.62	520.669
1693.79	520.581
1692.95	490.579
1692.12	526.385
1691.28	547.228
1690.44	532.185
1689.61	523.127
1688.77	576.836
1687.93	513.984
1687.1	522.86
1686.26	558.618
1685.42	477.88
1684.59	522.593
1683.75	528.475
1682.91	534.355
1682.07	570.081
1681.24	522.237
1680.4	546.017
1679.56	501.176
1678.72	533.9
1677.88	539.774
1677.05	533.718
1676.21	503.816
1675.37	566.324
1674.53	566.227
1673.69	572.09
1672.85	586.888
1672.01	521.258
1671.17	559.885
1670.33	532.991
1669.49	601.373
1668.65	529.833
1667.81	577.36
1666.97	544.53
1666.13	541.462
1665.29	541.369
1664.45	508.563
1663.61	562
1662.77	484.605
1661.93	567.753
1661.09	549.824
1660.25	511.1
1659.4	546.665
1658.56	543.601
1657.72	573.209
1656.88	596.867
1656.04	549.261
1655.19	540.262
1654.35	531.266
1653.51	551.947
1652.67	569.655
1651.82	625.92
1650.98	622.847
1650.14	536.743
1649.3	584.09
1648.45	572.133
1647.61	589.819
1646.77	625.279
1645.92	577.765
1645.08	622.103
1644.23	524.254
1643.39	524.165
1642.54	601.058
1641.7	541.748
1640.86	556.454
1640.01	582.993
1639.17	588.811
1638.32	576.877
1637.48	544.243
1636.63	632.87
1635.78	570.668
1634.94	570.57
1634.09	602.987
1633.25	588.107
1632.4	558.458
1631.56	564.272
1630.71	623.251
1629.86	605.425
1629.02	581.699
1628.17	605.218
1627.32	581.5
1626.47	581.4
1625.63	581.301
1624.78	587.102
1623.93	533.906
1623.09	560.358
1622.24	536.672
1621.39	571.959
1620.54	536.488
1619.69	565.869
1618.84	589.345
1618	609.868
1617.15	642.167
1616.3	621.44
1615.45	677.283
1614.6	544.678
1613.75	603.459
1612.9	565.094
1612.05	603.252
1611.2	603.149
1610.35	617.754
1609.5	605.883
1608.65	638.127
1607.8	629.197
1606.95	614.391
1606.1	614.286
1605.25	634.751
1604.4	622.89
1603.55	619.845
1602.7	619.739
1601.85	557.963
1600.99	601.91
1600.14	607.678
1599.29	572.352
1598.44	613.339
1597.59	627.904
1596.74	598.46
1595.88	571.959
1595.03	615.85
1594.18	598.152
1593.32	624.434
1592.47	574.498
1591.62	612.497
1590.77	647.554
1589.91	574.202
1589.06	600.466
1588.21	629.649
1587.35	582.691
1586.5	603.084
1585.64	570.783
1584.79	585.318
1583.93	614.478
1583.08	617.298
1582.23	637.668
1581.37	658.03
1580.52	687.158
1579.66	684.117
1578.81	637.23
1577.95	625.43
1577.09	619.479
1576.24	604.764
1575.38	613.424
1574.53	610.398
1573.67	642.414
1572.81	589.751
1571.96	618.84
1571.1	589.549
1570.24	650.726
1569.39	656.45
1568.53	665.088
1567.67	670.807
1566.82	629.867
1565.96	653.083
1565.1	655.886
1564.24	600.397
1563.39	693.543
1562.53	562.314
1561.67	640.869
1560.81	637.847
1559.95	629.001
1559.09	672.566
1558.23	640.429
1557.38	654.871
1556.52	651.849
1555.66	625.551
1554.8	605.08
1553.94	634.061
1553.08	616.504
1552.22	616.398
1551.36	668.618
1550.5	656.877
1549.64	662.576
1548.78	642.123
1547.92	633.297
1547.06	668.043
1546.2	670.832
1545.34	685.234
1544.47	682.213
1543.61	650.168
1542.75	650.056
1541.89	603.519
1541.03	670.139
1540.17	658.421
1539.3	603.207
1538.44	617.601
1537.58	658.081
1536.72	666.664
1535.85	654.956
1534.99	678.024
1534.13	677.907
1533.27	700.963
1532.4	706.634
1531.54	752.841
1530.68	651.384
1529.81	703.374
1528.95	706.147
1528.08	723.386
1527.22	604.647
1526.36	702.889
1525.49	630.467
1524.63	705.538
1523.76	662.051
1522.9	702.404
1522.03	722.514
1521.17	702.162
1520.3	655.816
1519.44	719.251
1518.57	687.358
1517.7	658.364
1516.84	675.573
1515.97	712.982
1515.11	704.2
1514.24	666.567
1513.37	640.486
1512.51	646.144
1511.64	680.642
1510.77	677.641
1509.91	660.225
1509.04	642.816
1508.17	717.639
1507.3	682.936
1506.44	668.413
1505.57	711.506
1504.7	619.22
1503.83	714.14
1502.96	685.226
1502.09	728.286
1501.23	696.501
1500.36	696.381
1499.49	719.277
1498.62	716.277
1497.75	716.153
1496.88	649.89
1496.01	744.656
1495.14	715.782
1494.27	724.28
1493.4	712.66
1492.53	712.537
1491.66	726.777
1490.79	703.674
1489.92	729.398
1489.05	729.271
1488.18	723.404
1487.31	734.76
1486.44	760.459
1485.56	711.552
1484.69	734.378
1483.82	694.097
1482.95	759.933
1482.08	748.333
1481.21	653.603
1480.33	779.602
1479.46	730.751
1478.59	722.029
1477.72	716.174
1476.84	733.235
1475.97	776.064
1475.1	721.529
1474.22	770.07
1473.35	775.661
1472.48	769.803
1471.6	789.699
1470.73	812.448
1469.85	806.587
1468.98	869.361
1468.11	909.24
1467.23	880.495
1466.36	848.902
1465.48	868.759
1464.61	860.037
1463.73	848.461
1462.86	908.295
1461.98	882.436
1461.11	990.784
1460.23	922.097
1459.35	979.023
1458.48	984.561
1457.6	913.058
1456.73	967.103
1455.85	909.889
1454.97	881.213
1454.1	943.79
1453.22	940.775
1452.34	892.156
1451.46	943.299
1450.59	991.574
1449.71	991.402
1448.83	994.078
1447.95	988.21
1447.08	919.702
1446.2	1004.95
1445.32	999.082
1444.44	1033.06
1443.56	978.817
1442.68	1052.61
1441.81	1015.45
1440.93	1080.69
1440.05	1086.19
1439.17	1122.96
1438.29	1154.03
1437.41	1176.56
1436.53	1156.47
1435.65	1142.06
1434.77	1068.01
1433.89	1062.15
1433.01	1008.01
1432.13	1030.55
1431.25	1010.5
1430.37	987.623
1429.48	930.701
1428.6	876.636
1427.72	936.051
1426.84	924.544
1425.96	921.548
1425.08	929.893
1424.19	856.033
1423.31	915.4
1422.43	895.406
1421.55	929.247
1420.67	875.266
1419.78	909.099
1418.9	937.257
1418.02	976.729
1417.13	1036
1416.25	1072.61
1415.37	1055.45
1414.48	1041.12
1413.6	973.052
1412.71	885.21
1411.83	870.918
1410.95	884.902
1410.06	890.401
1409.18	895.899
1408.29	842.055
1407.41	808.006
1406.52	847.411
1405.64	858.561
1404.75	793.466
1403.87	855.439
1402.98	900.454
1402.1	781.762
1401.21	860.635
1400.32	874.592
1399.44	871.619
1398.55	843.264
1397.66	783.902
1396.78	865.525
1395.89	865.374
1395	890.588
1394.12	856.619
1393.23	853.653
1392.34	839.42
1391.45	839.274
1390.57	850.391
1389.68	850.243
1388.79	869.799
1387.9	844.318
1387.01	892.007
1386.12	872.157
1385.24	900.135
1384.35	801.543
1383.46	866.078
1382.57	832.189
1381.68	854.532
1380.79	764.448
1379.9	834.564
1379.01	854.085
1378.12	865.172
1377.23	850.978
1376.34	859.254
1375.45	870.334
1374.56	856.147
1373.67	847.578
1372.78	903.552
1371.89	889.366
1370.99	883.601
1370.1	908.688
1369.21	886.096
1368.32	922.389
1367.43	877.378
1366.54	916.462
1365.64	905.093
1364.75	823.687
1363.86	868.362
1362.97	798.193
1362.07	842.857
1361.18	837.11
1360.29	898.547
1359.39	870.403
1358.5	884.242
1357.61	791.762
1356.71	769.245
1355.82	811.062
1354.93	766.18
1354.03	819.166
1353.14	807.842
1352.24	768.574
1351.35	835.503
1350.45	779.48
1349.56	826.831
1348.66	773.622
1347.77	781.864
1346.87	781.727
1345.98	817.879
1345.08	806.572
1344.18	784.108
1343.29	753.281
1342.39	728.045
1341.5	814.375
1340.6	752.886
1339.7	733.239
1338.81	802.798
1337.91	791.509
1337.01	777.438
1336.11	768.944
1335.22	760.453
1334.32	757.535
1333.42	732.341
1332.52	740.565
1331.63	762.704
1330.73	723.607
1329.83	698.437
1328.93	678.84
1328.03	714.883
1327.13	725.882
1326.23	650.677
1325.33	728.408
1324.43	736.62
1323.53	692.023
1322.64	728.025
1321.74	725.12
1320.84	716.659
1319.94	694.316
1319.03	688.641
1318.13	663.533
1317.23	663.417
1316.33	696.605
1315.43	679.834
1314.53	682.489
1313.63	693.465
1312.73	718.303
1311.83	737.588
1310.92	698.645
1310.02	701.294
1309.12	712.257
1308.22	692.735
1307.32	670.45
1306.41	709.112
1305.51	706.219
1304.61	711.633
1303.71	694.897
1302.8	700.311
1301.9	711.258
1301	672.395
1300.09	780.173
1299.19	724.714
1298.28	771.602
1297.38	826.769
1296.48	901.269
1295.57	1019.97
1294.67	1122.05
1293.76	1315.27
1292.86	1287.41
1291.95	1068.97
1291.05	914.129
1290.14	786.952
1289.24	709.513
1288.33	629.34
1287.42	609.911
1286.52	587.73
1285.61	604.18
1284.71	568.215
1283.8	559.842
1282.89	568.016
1281.99	543.104
1281.08	540.252
1280.17	518.11
1279.26	512.508
1278.36	523.438
1277.45	520.591
1276.54	545.285
1275.63	495.627
1274.72	501.046
1273.82	542.245
1272.91	542.15
1272	517.291
1271.09	514.449
1270.18	506.107
1269.27	492.267
1268.36	514.178
1267.45	486.596
1266.54	445.281
1265.64	494.669
1264.73	461.61
1263.82	519.22
1262.91	483.421
1261.99	477.844
1261.08	516.2
1260.17	469.44
1259.26	502.295
1258.35	441.832
1257.44	455.473
1256.53	471.853
1255.62	466.284
1254.71	460.717
1253.79	416.766
1252.88	449.589
1251.97	433.065
1251.06	430.248
1250.15	435.652
1249.23	465.71
1248.32	465.627
1247.41	446.376
1246.49	470.939
1245.58	490.019
1244.67	465.299
1243.75	435.115
1242.84	487.024
1241.93	440.433
1241.01	451.296
1240.1	445.747
1239.18	462.074
1238.27	437.389
1237.35	396.314
1236.44	429.037
1235.53	418.032
1234.61	428.885
1233.69	415.153
1232.78	445.119
1231.86	434.119
1230.95	442.232
1230.03	447.613
1229.12	436.618
1228.2	376.517
1227.28	433.736
1226.37	439.115
1225.45	411.768
1224.53	417.148
1223.62	397.993
1222.7	460.609
1221.78	441.452
1220.86	430.476
1219.95	435.848
1219.03	397.641
1218.11	422.079
1217.19	449.231
1216.27	430.096
1215.35	413.691
1214.44	416.339
1213.52	454.355
1212.6	408.031
1211.68	429.717
1210.76	432.36
1209.84	386.065
1208.92	410.461
1208	375.057
1207.08	426.62
1206.16	442.846
1205.24	396.589
1204.32	396.519
1203.4	377.441
1202.48	380.09
1201.56	390.88
1200.64	398.953
1199.71	401.596
1198.79	379.821
1197.87	442.142
1196.95	404.095
1196.03	366.062
1195.1	403.952
1194.18	376.774
1193.26	355.027
1192.34	422.705
1191.41	379.284
1190.49	371.091
1189.57	368.317
1188.65	411.575
1187.72	362.772
1186.8	354.587
1185.87	384.294
1184.95	351.756
1184.03	392.274
1183.1	370.566
1182.18	435.405
1181.25	378.546
1180.33	397.403
1179.4	418.956
1178.48	375.643
1177.55	397.192
1176.63	421.435
1175.7	415.958
1174.78	396.981
1173.85	413.111
1172.92	415.737
1172	367.08
1171.07	404.796
1170.15	393.931
1169.22	407.35
1168.29	407.278
1167.36	404.509
1166.44	404.437
1165.51	425.932
1164.58	382.731
1163.65	412.306
1162.73	361.041
1161.8	379.834
1160.87	379.767
1159.94	395.857
1159.01	414.634
1158.08	376.873
1157.16	384.88
1156.23	360.593
1155.3	365.91
1154.37	352.395
1153.44	365.78
1152.51	360.337
1151.58	319.944
1150.65	384.403
1149.72	389.71
1148.79	357.394
1147.86	338.524
1146.93	368.012
1146	435.091
1145.07	330.288
1144.13	370.501
1143.2	348.961
1142.27	418.679
1141.34	397.138
1140.41	367.555
1139.48	410.409
1138.54	404.972
1137.61	442.44
1136.68	410.19
1135.75	407.437
1134.81	460.965
1133.88	444.805
1132.95	492.95
1132.01	551.791
1131.08	565.084
1130.15	680.122
1129.21	714.805
1128.28	816.392
1127.35	829.628
1126.41	741.181
1125.48	679.518
1124.54	612.527
1123.61	542.886
1122.67	526.747
1121.74	489.226
1120.8	427.662
1119.87	403.535
1118.93	408.807
1117.99	368.662
1117.06	376.609
1116.12	419.271
1115.19	403.176
1114.25	379.078
1113.31	344.312
1112.38	394.955
1111.44	346.858
1110.5	346.796
1109.56	338.733
1108.63	357.34
1107.69	373.274
1106.75	298.566
1105.81	333.161
1104.88	349.091
1103.94	341.036
1103	383.597
1102.06	351.568
1101.12	354.168
1100.18	335.468
1099.24	338.07
1098.3	361.963
1097.36	340.611
1096.42	367.155
1095.49	329.849
1094.55	356.386
1093.6	358.982
1092.66	348.283
1091.72	361.512
1090.78	340.186
1089.84	345.44
1088.9	371.946
1087.96	340.004
1087.02	355.878
1086.08	334.572
1085.14	398.229
1084.19	395.504
1083.25	392.779
1082.31	334.334
1081.37	358.151
1080.43	342.172
1079.48	397.803
1078.54	403.035
1077.6	373.802
1076.65	365.783
1075.71	371.018
1074.77	339.156
1073.82	381.482
1072.88	331.089
1071.93	354.864
1070.99	370.687
1070.05	399.741
1069.1	410.257
1068.16	383.72
1067.21	407.465
1066.27	436.491
1065.32	510.471
1064.38	645.247
1063.43	650.42
1062.49	666.165
1061.54	718.907
1060.59	657.999
1059.65	557.482
1058.7	541.533
1057.75	538.795
1056.81	430.431
1055.86	382.83
1054.91	351.085
1053.97	337.826
1053.02	358.876
1052.07	390.471
1051.12	332.369
1050.18	332.309
1049.23	311.155
1048.28	290.008
1047.33	316.315
1046.38	310.988
1045.43	300.392
1044.48	339.857
1043.54	284.48
1042.59	302.865
1041.64	305.444
1040.69	347.512
1039.74	310.599
1038.79	302.648
1037.84	278.913
1036.89	313.063
1035.94	299.855
1034.99	312.951
1034.04	299.748
1033.08	294.436
1032.13	323.296
1031.18	296.959
1030.23	278.513
1029.28	331.004
1028.33	273.16
1027.37	301.998
1026.42	322.949
1025.47	270.389
1024.52	272.965
1023.57	291.285
1022.61	283.362
1021.66	272.818
1020.71	280.638
1019.75	233.386
1018.8	267.428
1017.85	272.623
1016.89	288.299
1015.94	285.627
1014.98	254.136
1014.03	277.666
1013.07	277.616
1012.12	285.422
1011.16	324.642
1010.21	280.085
1009.25	256.48
1008.3	308.768
1007.34	279.934
1006.39	258.958
1005.43	237.989
1004.48	269.324
1003.52	274.505
1002.56	282.297
1001.61	253.499
1000.65	243.002
999.693	295.207
998.736	261.198
997.778	258.54
996.821	284.604
995.863	274.111
994.905	250.57
993.947	242.697
992.989	263.526
992.031	271.305
991.072	273.865
990.114	226.876
989.155	250.301
988.196	278.931
987.237	278.881
986.277	284.042
985.318	273.57
984.358	270.915
983.398	239.613
982.438	312.482
981.478	262.959
980.517	260.308
979.557	273.275
978.596	265.419
977.635	262.77
976.674	262.722
975.713	288.683
974.751	262.628
973.79	285.979
972.828	280.729
971.866	252.091
970.904	267.636
969.942	257.196
968.979	262.345
968.017	267.492
967.054	264.847
966.091	259.607
965.128	264.752
964.164	288.06
963.201	282.819
962.237	262.014
961.273	269.749
960.309	290.446
959.345	269.651
958.381	274.788
957.416	264.371
956.451	298.011
955.486	297.958
954.521	264.228
953.556	256.41
952.591	287.438
951.625	248.551
950.659	271.803
949.693	263.99
948.727	297.582
947.761	282.005
946.794	305.235
945.828	300.007
944.861	297.368
943.894	284.387
942.927	276.581
941.959	302.376
940.992	320.409
940.024	268.681
939.056	289.297
938.088	294.41
937.12	268.536
936.152	242.672
935.183	291.67
934.214	268.391
933.246	283.824
932.276	270.874
931.307	265.666
930.338	250.146
929.368	314.559
928.398	257.789
927.428	298.981
926.458	304.081
925.488	270.532
924.517	278.211
923.547	273.01
922.576	272.961
921.605	275.486
920.634	288.307
919.662	270.239
918.691	306.216
917.719	280.433
916.747	267.52
915.775	267.472
914.803	257.138
913.831	282.801
912.858	282.75
911.885	251.859
910.912	308.343
909.939	280.028
908.966	300.526
907.992	277.358
907.019	297.849
906.045	284.96
905.071	272.074
904.097	284.857
903.122	251.449
902.148	300.146
901.173	310.351
900.198	302.602
899.223	292.291
898.248	292.238
897.273	287.059
896.297	322.883
895.321	297.204
894.345	327.89
893.369	299.657
892.393	302.164
891.416	289.308
890.44	286.696
889.463	281.525
888.486	299.386
887.509	299.332
886.531	281.373
885.554	260.862
884.576	291.499
883.598	294.002
882.62	281.169
881.642	281.118
880.664	296.398
879.685	288.68
878.706	319.279
877.727	309.006
876.748	329.376
875.769	321.658
874.789	329.257
873.81	321.541
872.83	336.792
871.85	369.894
870.87	351.973
869.889	349.359
868.909	283.006
867.928	316.094
866.947	308.39
865.966	272.659
864.985	303.183
864.003	323.506
863.022	313.26
862.04	275.008
861.058	287.688
860.076	287.636
859.094	282.493
858.111	272.264
857.128	318.008
856.146	317.95
855.162	292.461
854.179	343.262
853.196	294.897
852.212	366.013
851.229	315.121
850.245	287.114
849.261	287.062
848.276	299.709
847.292	327.589
846.307	304.679
845.322	294.469
844.337	284.264
843.352	281.674
842.367	332.366
841.381	304.402
840.396	306.883
839.41	311.899
838.424	276.348
837.437	316.855
836.451	288.919
835.464	268.596
834.477	281.214
833.49	306.493
832.503	301.372
831.516	341.831
830.528	308.858
829.541	331.582
828.553	326.46
827.565	316.28
826.577	308.633
825.588	338.929
824.6	364.156
823.611	343.862
822.622	295.769
821.633	272.968
820.643	323.459
819.654	293.081
818.664	338.497
817.674	333.385
816.684	295.446
815.694	282.769
814.704	330.678
813.713	295.285
812.723	295.231
811.732	315.361
810.741	312.781
809.749	305.158
808.758	300.059
807.766	320.173
806.774	302.471
805.782	315.016
804.79	282.203
803.798	304.825
802.805	297.213
801.812	304.714
800.819	309.694
799.826	271.877
798.833	337.267
797.84	337.206
796.846	352.24
795.852	332.052
794.858	281.689
793.864	301.755
792.87	326.842
791.875	311.7
790.88	359.395
789.885	339.227
788.89	241.184
787.895	336.591
786.9	283.79
785.904	306.337
784.908	346.449
783.912	296.185
782.916	283.583
781.92	308.623
780.923	258.393
779.926	313.527
778.929	305.946
777.932	288.339
776.935	280.766
775.938	298.26
774.94	280.664
773.942	298.151
772.944	303.106
771.946	290.528
770.948	325.533
769.949	310.451
768.95	317.904
767.951	302.83
766.952	305.277
765.953	315.228
764.954	302.664
763.954	307.61
762.954	295.052
761.954	309.998
760.954	317.44
759.954	264.901
758.953	262.354
757.952	309.771
756.951	289.733
755.95	269.702
754.949	294.621
753.948	294.567
752.946	304.497
751.944	339.377
750.942	276.941
749.94	346.736
748.937	331.709
747.935	324.167
746.932	299.176
745.929	291.644
744.926	304.051
743.923	284.062
742.919	336.327
741.916	341.248
740.912	306.319
739.908	303.773
738.903	326.123
737.899	326.064
736.894	303.607
735.89	281.158
734.885	313.446
733.88	373.082
732.874	325.765
731.869	340.623
730.863	295.816
729.857	340.499
728.851	342.921
727.845	337.889
726.838	293.115
725.832	325.348
724.825	355.086
723.818	345.09
722.811	330.133
721.804	300.292
720.796	320.087
719.788	362.203
718.78	319.97
717.772	329.831
716.764	309.935
715.756	329.71
714.747	314.778
713.738	332.067
712.729	297.319
711.72	304.696
710.71	339.315
709.701	349.158
708.691	316.908
707.681	346.555
706.671	306.892
705.661	306.836
704.65	324.098
703.64	319.091
702.629	321.506
701.618	309.083
700.606	294.193
699.595	318.857
698.583	345.983
697.572	298.973
696.56	308.8
695.547	313.683
694.535	325.973
693.523	318.506
692.51	335.727
691.497	318.389
690.484	330.669
689.471	303.469
688.457	323.147
687.443	315.689
686.43	313.165
685.416	313.107
684.401	305.655
683.387	295.741
682.372	327.719
681.358	288.241
680.343	325.135
679.327	337.389
678.312	359.487
677.297	354.498
676.281	310.128
675.265	290.384
674.249	349.381
673.233	337.017
672.216	307.441
671.2	334.434
670.183	292.576
669.166	329.395
668.148	287.553
667.131	326.816
666.113	326.756
665.096	319.327
664.078	302.077
663.06	326.576
662.041	301.966
661.023	306.819
660.004	299.4
658.985	345.965
657.966	333.635
656.947	306.593
655.927	345.774
654.908	377.584
653.888	360.355
652.868	338.23
651.848	325.915
650.827	313.605
649.807	352.74
648.786	340.43
647.765	364.854
646.744	362.338
645.723	350.033
644.701	320.6
643.679	347.457
642.657	371.857
641.635	320.423
640.613	383.948
639.591	337.42
638.568	356.915
637.545	344.628
636.522	344.565
635.499	359.161
634.475	327.338
633.452	329.72
632.428	329.659
631.404	324.716
630.38	341.743
629.356	339.239
628.331	336.736
627.306	324.476
626.281	331.734
625.256	324.356
624.231	360.871
623.205	326.674
622.18	338.801
621.154	350.923
620.128	333.803
619.102	353.23
618.075	360.472
617.049	345.794
616.022	323.818
614.995	343.232
613.968	357.772
612.94	333.372
611.913	350.341
610.885	360.006
609.857	347.779
608.829	308.81
607.8	354.944
606.772	323.28
605.743	342.662
604.714	330.45
603.685	344.964
602.656	330.327
601.626	369.121
600.597	318.065
599.567	393.26
598.537	356.781
597.507	315.462
596.476	342.092
595.446	334.752
594.415	329.839
593.384	368.575
592.353	370.932
591.321	341.776
590.29	356.254
589.258	365.88
588.226	353.699
587.194	343.945
586.162	360.833
585.129	334.133
584.096	360.7
583.063	346.111
582.03	321.848
580.997	338.724
579.964	348.338
578.93	408.737
577.896	379.644
576.862	343.309
575.828	352.914
574.793	369.766
573.759	352.783
572.724	355.134
571.689	381.638
570.654	374.322
569.618	386.325
568.583	379.012
567.547	347.564
566.511	398.177
565.475	337.784
564.438	381.143
563.402	361.778
562.365	405.116
561.328	373.698
560.291	436.302
559.254	424.171
558.216	380.719
557.178	392.694
556.141	392.622
555.102	409.407
554.064	353.951
553.026	392.403
551.987	394.737
550.948	377.819
549.909	406.621
548.87	380.084
547.83	375.203
546.791	416.013
545.751	391.894
544.711	382.206
543.671	367.714
542.63	394.078
541.59	386.798
540.549	377.118
539.508	389.056
538.467	388.983
537.425	398.514
536.384	384.038
535.342	429.563
534.3	434.282
533.258	395.819
532.216	405.339
531.173	410.06
530.13	412.381
529.088	419.496
528.044	429.005
527.001	402.566
525.958	424.054
524.914	435.952
523.87	423.896
522.826	414.239
521.782	404.586
520.737	433.234
519.693	435.546
518.648	433.073
517.603	421.031
516.557	413.777
515.512	461.527
514.466	413.623
513.42	423.108
512.374	413.469
511.328	430.119
510.282	387.035
509.235	396.518
508.188	401.221
507.141	389.207
506.094	408.233
505.047	408.157
503.999	384.217
502.951	379.373
501.903	364.989
500.855	381.617
499.807	381.546
