3200.66	46.309
3200.06	37.8892
3199.47	42.0928
3198.87	50.5037
3198.28	33.664
3197.69	50.4884
3197.09	58.8942
3196.5	33.6488
3195.9	63.0819
3195.31	46.2531
3194.71	25.2251
3194.12	67.2568
3193.52	33.6233
3192.93	42.0228
3192.33	37.8148
3191.74	29.4071
3191.14	37.8034
3190.55	25.1984
3189.95	62.9866
3189.36	54.5801
3188.76	62.9675
3188.17	88.1412
3187.57	71.3416
3186.97	25.1756
3186.38	25.1718
3185.78	79.6985
3185.19	8.38805
3184.59	29.3537
3183.99	50.3131
3183.4	12.5764
3182.8	37.7234
3182.2	46.0994
3181.61	46.0924
3181.01	50.275
3180.41	41.8895
3179.82	33.5065
3179.22	46.0645
3178.62	46.0575
3178.03	41.8641
3177.43	83.7156
3176.83	29.296
3176.23	50.2142
3175.64	-4.18388
3175.04	41.8325
3174.44	25.0957
3173.84	29.2739
3173.25	33.4508
3172.65	37.6264
3172.05	33.4406
3171.45	50.1534
3170.85	25.0729
3170.26	29.2473
3169.66	62.6632
3169.06	41.7691
3168.46	33.4103
3167.86	75.1617
3167.26	45.9252
3166.66	33.3951
3166.06	41.7375
3165.47	62.5968
3164.87	58.4148
3164.27	45.8904
3163.67	54.2259
3163.07	45.8765
3162.47	8.33991
3161.87	54.2012
3161.27	25.0122
3160.67	16.6722
3160.07	29.172
3159.47	33.3344
3158.87	33.3293
3158.27	20.8277
3157.67	49.9788
3157.07	66.6283
3156.47	24.9818
3155.87	41.6301
3155.27	66.598
3154.67	49.9409
3154.07	54.0945
3153.46	29.1234
3152.86	54.0781
3152.26	45.7514
3151.66	41.5859
3151.06	41.5796
3150.46	62.3599
3149.86	16.6268
3149.26	49.8728
3148.65	24.9326
3148.05	45.7029
3147.45	-20.7709
3146.85	41.5354
3146.25	37.3762
3145.64	41.5228
3145.04	29.0616
3144.44	37.3592
3143.84	45.6543
3143.24	53.9469
3142.63	45.6405
3142.03	70.5246
3141.43	37.3309
3140.82	58.0614
3140.22	29.0263
3139.62	66.3358
3139.02	24.8721
3138.41	20.7236
3137.81	37.2969
3137.21	29.0043
3136.6	28.9999
3136	41.4221
3135.4	28.9911
3134.79	41.4095
3134.19	16.5613
3133.58	57.9557
3132.98	45.5297
3132.38	20.6922
3131.77	53.7915
3131.17	53.7833
3130.56	41.3655
3129.96	41.3592
3129.35	41.3529
3128.75	41.3466
3128.14	53.7424
3127.54	57.8677
3126.93	53.7261
3126.33	45.4536
3125.72	37.1837
3125.12	49.5707
3124.51	16.5211
3123.91	37.1667
3123.3	61.9351
3122.7	53.669
3122.09	66.0441
3121.49	33.017
3120.88	37.1385
3120.27	61.8881
3119.67	28.8767
3119.06	45.3708
3118.46	37.1159
3117.85	24.7402
3117.24	41.2273
3116.64	41.2211
3116.03	70.0652
3115.42	70.0545
3114.82	70.0438
3114.21	24.7176
3113.6	57.6656
3113	37.0651
3112.39	28.824
3111.78	24.7026
3111.17	74.0964
3110.57	53.5059
3109.96	65.8434
3109.35	37.0313
3108.74	49.3675
3108.14	32.9067
3107.53	74.0287
3106.92	20.5604
3106.31	28.7802
3105.7	69.8841
3105.1	24.6612
3104.49	24.6575
3103.88	20.5448
3103.27	49.2999
3102.66	36.9693
3102.05	53.392
3101.44	49.2774
3100.84	28.7408
3100.23	57.4728
3099.62	12.3137
3099.01	45.1434
3098.4	45.1365
3097.79	57.4378
3097.18	41.0207
3096.57	61.5217
3095.96	57.4115
3095.35	49.2024
3094.74	28.697
3094.13	57.3853
3093.52	45.0816
3092.91	86.0517
3092.3	98.3298
3091.69	24.5787
3091.08	65.5332
3090.47	45.0472
3089.86	57.3241
3089.25	45.0335
3088.64	57.3066
3088.03	45.0197
3087.42	61.3812
3086.81	32.7316
3086.19	28.6358
3085.58	53.1727
3084.97	12.2688
3084.36	65.4234
3083.75	49.06
3083.14	36.7894
3082.53	85.8289
3081.91	57.2105
3081.3	61.2876
3080.69	32.6818
3080.08	24.5076
3079.47	28.5878
3078.85	53.0836
3078.24	53.0755
3077.63	61.2316
3077.02	65.3037
3076.4	48.9703
3075.79	32.6419
3075.18	32.6369
3074.57	40.7899
3073.95	61.1755
3073.34	61.1662
3072.73	40.7712
3072.11	40.765
3071.5	24.4553
3070.89	40.7526
3070.27	52.9702
3069.66	16.296
3069.05	48.8807
3068.43	28.5094
3067.82	85.5151
3067.2	57.0013
3066.59	40.709
3065.98	20.3514
3065.36	36.6269
3064.75	32.5523
3064.13	48.821
3063.52	40.6779
3062.9	16.2687
3062.29	60.9983
3061.67	48.7912
3061.06	56.9143
3060.44	56.9056
3059.83	40.6407
3059.21	48.7613
3058.6	44.6911
3057.98	32.4976
3057.37	69.0469
3056.75	48.7315
3056.14	52.7844
3055.52	24.3583
3054.9	36.5319
3054.29	44.6433
3053.67	60.8679
3053.06	40.5724
3052.44	28.3963
3051.82	64.896
3051.21	32.443
3050.59	93.2594
3049.97	44.5955
3049.36	40.5352
3048.74	0
3048.12	64.8364
3047.51	44.5682
3046.89	40.5104
3046.27	32.4033
3045.65	72.8964
3045.04	52.6393
3044.42	52.6313
3043.8	40.4794
3043.18	60.7098
3042.57	52.6071
3041.95	36.4147
3041.33	72.8183
3040.71	101.121
3040.09	68.7518
3039.48	56.6105
3038.86	68.7308
3038.24	32.3389
3037.62	40.4175
3037	28.2879
3036.38	64.6482
3035.76	76.758
3035.14	52.5106
3034.53	56.5412
3033.91	52.4945
3033.29	64.5987
3032.67	72.6624
3032.05	84.7599
3031.43	52.4623
3030.81	76.664
3030.19	72.6179
3029.57	60.5057
3028.95	24.1986
3028.33	12.0974
3027.71	40.3186
3027.09	68.5311
3026.47	24.1837
3025.85	36.27
3025.23	52.382
3024.61	56.4028
3023.99	72.5067
3023.37	88.6058
3022.75	76.5114
3022.13	60.3945
3021.5	64.4109
3020.88	72.4512
3020.26	44.2689
3019.64	68.4052
3019.02	68.3947
3018.4	76.4294
3017.78	72.3957
3017.15	56.2991
3016.53	88.4565
3015.91	44.2215
3015.29	48.2342
3014.67	32.1512
3014.04	28.128
3013.42	40.1767
3012.8	60.2558
3012.18	40.1643
3011.56	56.2215
3010.93	44.1672
3010.31	28.1021
3009.69	76.2654
3009.06	88.2938
3008.44	56.1784
3007.82	60.1819
3007.19	100.288
3006.57	52.1416
3005.95	52.1336
3005.32	52.1256
3004.7	44.0995
3004.08	64.1349
3003.45	88.1719
3002.83	84.1512
3002.21	60.0988
3001.58	68.1015
3000.96	60.0803
3000.33	36.0427
2999.71	84.0866
2999.08	60.0527
2998.46	64.0463
2997.84	52.0297
2997.21	68.0283
2996.59	36.0095
2995.96	36.0039
2995.34	35.9984
2994.71	59.9881
2994.09	63.9775
2993.46	71.9636
2992.83	71.9526
2992.21	55.9545
2991.58	15.9846
2990.96	55.9373
2990.33	51.9338
2989.71	47.9316
2989.08	47.9242
2988.45	59.896
2987.83	59.8868
2987.2	83.8287
2986.58	63.8597
2985.95	51.878
2985.32	63.84
2984.7	67.8196
2984.07	63.8204
2983.44	51.8461
2982.82	67.7883
2982.19	31.8955
2981.56	87.6991
2980.93	51.8142
2980.31	47.8212
2979.68	67.7362
2979.05	71.7097
2978.42	63.7321
2977.8	75.6703
2977.17	47.7844
2976.54	51.7585
2975.91	43.7889
2975.28	59.7029
2974.66	71.6325
2974.03	59.6846
2973.4	47.7403
2972.77	75.5772
2972.14	71.5884
2971.51	79.5305
2970.88	87.47
2970.26	51.6789
2969.63	55.6456
2969	67.5593
2968.37	35.7612
2967.74	91.3756
2967.11	87.3893
2966.48	103.262
2965.85	47.6522
2965.22	91.3194
2964.59	75.4261
2963.96	83.3529
2963.33	59.5286
2962.7	87.2952
2962.07	79.347
2961.44	67.4346
2960.81	27.7629
2960.18	31.7241
2959.55	91.1929
2958.92	83.2502
2958.29	95.1285
2957.66	71.3354
2957.03	79.2493
2956.4	75.2752
2955.76	75.2636
2955.13	102.976
2954.5	99.0006
2953.87	130.661
2953.24	87.0937
2952.61	51.4565
2951.98	83.1092
2951.34	79.1395
2950.71	79.1273
2950.08	71.2036
2949.45	102.834
2948.82	31.6363
2948.18	51.401
2947.55	79.0663
2946.92	114.628
2946.29	94.8503
2945.65	114.593
2945.02	118.526
2944.39	122.458
2943.76	98.7415
2943.12	98.7262
2942.49	110.556
2941.86	82.9045
2941.22	90.7861
2940.59	102.612
2939.96	149.948
2939.32	122.307
2938.69	110.454
2938.05	130.158
2937.42	126.194
2936.79	114.346
2936.15	161.636
2935.52	153.728
2934.88	157.645
2934.25	173.383
2933.61	157.597
2932.98	173.33
2932.34	185.119
2931.71	196.905
2931.08	149.625
2930.44	133.854
2929.81	216.495
2929.17	177.105
2928.53	220.363
2927.9	173.116
2927.26	173.089
2926.63	212.395
2925.99	196.631
2925.36	184.805
2924.72	192.639
2924.08	172.955
2923.45	216.161
2922.81	204.339
2922.18	227.881
2921.54	172.849
2920.9	227.811
2920.27	196.358
2919.63	188.475
2918.99	212.001
2918.36	208.043
2917.72	196.237
2917.08	180.51
2916.44	235.411
2915.81	172.608
2915.17	219.649
2914.53	196.085
2913.9	192.134
2913.26	215.627
2912.62	207.754
2911.98	246.915
2911.34	227.283
2910.71	223.33
2910.07	227.213
2909.43	219.344
2908.79	223.226
2908.15	203.614
2907.51	238.817
2906.88	234.866
2906.24	246.571
2905.6	250.446
2904.96	215.194
2904.32	258.193
2903.68	273.798
2903.04	301.132
2902.4	269.804
2901.76	297.129
2901.12	265.811
2900.48	250.136
2899.84	257.913
2899.2	265.688
2898.56	253.927
2897.92	269.511
2897.28	296.807
2896.64	269.428
2896	296.715
2895.36	316.187
2894.72	269.303
2894.08	249.75
2893.44	269.22
2892.8	257.474
2892.16	312.042
2891.52	319.793
2890.88	257.355
2890.24	358.681
2889.59	315.747
2888.95	397.545
2888.31	346.824
2887.67	338.978
2887.03	288.281
2886.39	311.607
2885.74	327.137
2885.1	327.086
2884.46	346.502
2883.82	354.234
2883.18	400.884
2882.53	435.845
2881.89	466.904
2881.25	521.295
2880.6	513.435
2879.96	540.579
2879.32	629.93
2878.68	598.729
2878.03	579.2
2877.39	629.637
2876.75	610.109
2876.1	547.847
2875.46	536.108
2874.82	489.414
2874.17	438.851
2873.53	431.017
2872.88	458.127
2872.24	399.828
2871.6	360.954
2870.95	384.182
2870.31	399.642
2869.66	329.751
2869.02	364.609
2868.37	356.796
2867.73	341.23
2867.08	391.578
2866.44	364.383
2865.79	298.437
2865.15	329.393
2864.5	340.965
2863.86	333.165
2863.21	360.227
2862.57	371.789
2861.92	375.604
2861.28	394.903
2860.63	410.326
2859.98	359.947
2859.34	383.11
2858.69	410.135
2858.05	386.86
2857.4	386.8
2856.75	437.016
2856.11	460.149
2855.46	506.472
2854.81	460.006
2854.17	413.554
2853.52	475.32
2852.87	440.472
2852.23	525.394
2851.58	482.824
2850.93	521.369
2850.28	532.872
2849.64	586.841
2848.99	559.728
2848.34	563.501
2847.69	652.17
2847.05	652.069
2846.4	694.403
2845.75	640.294
2845.1	566.919
2844.45	616.959
2843.8	674.694
2843.16	632.187
2842.51	643.651
2841.86	608.869
2841.21	639.598
2840.56	597.122
2839.91	546.956
2839.26	450.591
2838.61	438.969
2837.96	477.401
2837.31	423.435
2836.66	411.822
2836.01	334.794
2835.36	257.79
2834.72	280.832
2834.07	253.863
2833.42	273.053
2832.76	192.261
2832.11	253.745
2831.46	222.953
2830.81	199.858
2830.16	153.713
2829.51	169.058
2828.86	157.507
2828.21	161.323
2827.56	142.096
2826.91	172.793
2826.26	122.856
2825.61	115.159
2824.96	134.331
2824.3	153.498
2823.65	157.311
2823	111.251
2822.35	111.234
2821.7	138.062
2821.04	141.875
2820.39	107.348
2819.74	134.164
2819.09	126.478
2818.44	103.466
2817.78	137.933
2817.13	107.264
2816.48	126.399
2815.83	88.0827
2815.17	118.702
2814.52	72.7413
2813.87	133.976
2813.21	103.337
2812.56	61.2272
2811.91	99.4787
2811.25	103.289
2810.6	80.3231
2809.95	126.202
2809.29	95.5929
2808.64	114.694
2807.98	107.031
2807.33	95.5482
2806.68	149.032
2806.02	87.877
2805.37	148.986
2804.71	118.406
2804.06	103.112
2803.4	118.369
2802.75	118.351
2802.09	133.601
2801.44	106.864
2800.78	103.031
2800.13	95.3845
2799.47	118.258
2798.82	61.027
2798.16	95.3398
2797.51	91.512
2796.85	76.2481
2796.19	87.6716
2795.54	99.0916
2794.88	95.2655
2794.23	110.491
2793.57	87.6169
2792.91	83.7944
2792.26	76.1648
2791.6	106.614
2790.94	72.334
2790.29	91.355
2789.63	98.9524
2788.97	83.7159
2788.32	68.4842
2787.66	83.6898
2787	79.8732
2786.34	121.693
2785.69	110.267
2785.03	60.8273
2784.37	102.63
2783.71	114.016
2783.06	110.198
2782.4	98.7826
2781.74	121.56
2781.08	125.339
2780.42	79.7486
2779.76	121.503
2779.11	91.1127
2778.45	83.507
2777.79	94.8794
2777.13	98.6592
2776.47	91.0558
2775.81	91.0416
2775.15	106.199
2774.49	91.0131
2773.83	140.29
2773.17	102.358
2772.51	56.8565
2771.86	98.5359
2771.2	109.888
2770.54	94.7164
2769.88	106.066
2769.22	102.262
2768.56	121.18
2767.9	113.589
2767.23	121.142
2766.57	98.4127
2765.91	79.4747
2765.25	113.518
2764.59	143.766
2763.93	60.5238
2763.27	113.464
2762.61	105.883
2761.95	94.524
2761.29	86.9485
2760.63	132.292
2759.96	105.817
2759.3	98.2435
2758.64	75.5601
2757.98	94.4353
2757.32	79.3132
2756.65	139.721
2755.99	94.391
2755.33	124.577
2754.67	101.91
2754.01	154.729
2753.34	116.972
2752.68	109.408
2752.02	109.391
2751.35	60.344
2750.69	116.898
2750.03	116.88
2749.37	120.631
2748.7	109.305
2748.04	116.825
2747.38	116.807
2746.71	120.556
2746.05	116.77
2745.38	112.986
2744.72	139.327
2744.06	82.8302
2743.39	131.755
2742.73	143.026
2742.06	82.7913
2741.4	127.93
2740.73	116.624
2740.07	101.56
2739.41	142.913
2738.74	120.329
2738.08	109.031
2737.41	97.7369
2736.75	120.273
2736.08	135.286
2735.41	139.022
2734.75	146.513
2734.08	146.491
2733.42	116.423
2732.75	127.67
2732.09	138.913
2731.42	142.645
2730.75	153.882
2730.09	142.6
2729.42	135.074
2728.76	120.047
2728.09	135.031
2727.42	165.012
2726.76	127.489
2726.09	142.466
2725.42	153.689
2724.75	157.413
2724.09	161.136
2723.42	168.604
2722.75	142.354
2722.09	179.788
2721.42	134.819
2720.75	146.032
2720.08	172.215
2719.41	168.445
2718.75	164.676
2718.08	164.65
2717.41	157.141
2716.74	157.117
2716.07	164.573
2715.41	213.163
2714.74	149.564
2714.07	145.802
2713.4	145.779
2712.73	142.019
2712.06	171.891
2711.39	149.447
2710.72	175.573
2710.05	115.785
2709.38	104.564
2708.71	126.95
2708.04	153.063
2707.37	160.504
2706.7	153.015
2706.03	164.185
2705.36	160.428
2704.69	108.179
2704.02	138
2703.35	137.978
2702.68	141.685
2702.01	145.391
2701.34	164.005
2700.67	115.531
2700	122.965
2699.33	137.848
2698.66	115.476
2697.99	104.285
2697.32	111.716
2696.64	119.145
2695.97	145.185
2695.3	152.606
2694.63	141.418
2693.96	100.465
2693.29	148.814
2692.61	130.192
2691.94	148.767
2691.27	104.121
2690.6	122.694
2689.92	130.11
2689.25	144.957
2688.58	144.934
2687.91	126.333
2687.23	163.464
2686.56	126.293
2685.89	122.559
2685.21	122.54
2684.54	129.946
2683.87	148.486
2683.19	137.328
2682.52	141.018
2681.85	140.995
2681.17	137.263
2680.5	140.951
2679.82	114.968
2679.15	103.826
2678.48	148.299
2677.8	155.69
2677.13	118.602
2676.45	111.172
2675.78	122.27
2675.1	129.66
2674.43	122.231
2673.75	125.916
2673.08	111.084
2672.4	144.387
2671.73	140.663
2671.05	118.434
2670.37	85.1111
2669.7	99.8973
2669.02	114.679
2668.35	129.456
2667.67	99.8501
2667	122.02
2666.32	144.182
2665.64	107.196
2664.97	136.745
2664.29	121.943
2663.61	118.229
2662.94	99.7399
2662.26	103.418
2661.58	140.33
2660.91	162.462
2660.23	132.903
2659.55	151.337
2658.87	151.314
2658.2	162.36
2657.52	136.508
2656.84	129.109
2656.16	191.789
2655.49	136.444
2654.81	154.858
2654.13	136.401
2653.45	165.866
2652.77	128.987
2652.09	147.39
2651.42	125.262
2650.74	132.609
2650.06	121.539
2649.38	106.79
2648.7	125.183
2648.02	114.119
2647.34	121.463
2646.66	150.884
2645.98	169.258
2645.3	132.442
2644.62	150.813
2643.94	128.722
2643.26	147.088
2642.58	121.328
2641.9	147.042
2641.22	117.615
2640.54	132.296
2639.86	143.298
2639.18	165.317
2638.5	165.291
2637.82	139.557
2637.14	128.519
2636.46	124.827
2635.78	154.174
2635.1	139.469
2634.42	161.465
2633.73	176.116
2633.05	121.06
2632.37	99.0337
2631.69	117.355
2631.01	146.67
2630.33	120.984
2629.64	124.63
2628.96	150.266
2628.28	139.249
2627.6	139.227
2626.91	175.837
2626.23	131.857
2625.55	84.2287
2624.87	131.815
2624.18	146.438
2623.5	120.793
2622.82	153.712
2622.13	135.391
2621.45	153.663
2620.77	139.007
2620.08	120.697
2619.4	131.649
2618.72	124.315
2618.03	135.263
2617.35	135.241
2616.67	142.529
2615.98	153.469
2615.3	120.563
2614.61	178.99
2613.93	189.919
2613.24	200.844
2612.56	175.254
2611.87	138.721
2611.19	135.049
2610.5	127.729
2609.82	131.357
2609.13	134.985
2608.45	138.611
2607.76	134.942
2607.08	164.093
2606.39	178.65
2605.71	131.232
2605.02	123.922
2604.33	153.056
2603.65	174.893
2602.96	127.506
2602.27	123.844
2601.59	138.391
2600.9	160.217
2600.21	120.144
2599.53	160.167
2598.84	156.502
2598.15	174.672
2597.47	152.814
2596.78	105.497
2596.09	156.402
2595.41	130.921
2594.72	145.445
2594.03	134.515
2593.34	174.478
2592.65	149.01
2591.97	152.62
2591.28	138.063
2590.59	148.939
2589.9	159.811
2589.21	145.26
2588.52	130.713
2587.84	130.693
2587.15	134.302
2586.46	156.056
2585.77	148.774
2585.08	163.262
2584.39	152.354
2583.7	141.449
2583.01	130.548
2582.32	145.03
2581.63	123.256
2580.94	137.735
2580.25	163.081
2579.56	141.314
2578.87	141.292
2578.18	173.87
2577.49	155.734
2576.8	148.467
2576.11	152.064
2575.42	123.08
2574.73	112.202
2574.04	148.373
2573.35	133.876
2572.66	148.325
2571.97	148.302
2571.28	169.978
2570.58	122.943
2569.89	137.385
2569.2	162.667
2568.51	144.57
2567.82	137.32
2567.13	158.976
2566.43	126.438
2565.74	162.538
2565.05	155.289
2564.36	144.432
2563.66	162.46
2562.97	144.386
2562.28	140.754
2561.59	137.123
2560.89	147.925
2560.2	194.797
2559.51	173.126
2558.81	144.248
2558.12	165.859
2557.43	169.438
2556.73	151.389
2556.04	122.533
2555.35	136.927
2554.65	118.891
2553.96	126.077
2553.26	147.667
2552.57	147.643
2551.88	151.22
2551.18	143.996
2550.49	129.576
2549.79	136.753
2549.1	125.937
2548.4	151.1
2547.71	136.688
2547.01	169.034
2546.32	133.048
2545.62	133.027
2544.93	150.98
2544.23	147.361
2543.53	161.712
2542.84	118.57
2542.14	150.884
2541.45	154.451
2540.75	100.557
2540.05	179.537
2539.36	136.427
2538.66	147.174
2537.97	161.507
2537.27	136.362
2536.57	125.576
2535.88	179.366
2535.18	139.883
2534.48	161.378
2533.78	150.595
2533.09	132.646
2532.39	157.716
2531.69	114.685
2530.99	136.166
2530.3	175.555
2529.6	132.541
2528.9	146.846
2528.2	196.957
2527.5	157.541
2526.81	150.356
2526.11	132.435
2525.41	143.15
2524.71	157.44
2524.01	175.303
2523.31	171.698
2522.61	135.906
2521.91	168.067
2521.21	193.068
2520.52	142.99
2519.82	135.819
2519.12	139.371
2518.42	153.641
2517.72	157.189
2517.02	160.736
2516.32	174.996
2515.62	139.26
2514.92	178.51
2514.22	178.482
2513.52	207.006
2512.82	167.719
2512.11	160.557
2511.41	185.502
2510.71	153.372
2510.01	142.649
2509.31	139.06
2508.61	199.644
2507.91	153.274
2507.21	167.505
2506.5	131.845
2505.8	163.889
2505.1	117.554
2504.4	146.028
2503.7	188.738
2503	167.345
2502.29	174.438
2501.59	124.579
2500.89	174.382
2500.19	163.68
2499.48	177.884
2498.78	156.513
2498.08	152.931
2497.37	160.019
2496.67	152.883
2495.97	159.968
2495.26	177.714
2494.56	188.346
2493.86	177.657
2493.15	152.76
2492.45	159.84
2491.75	177.572
2491.04	166.891
2490.34	166.864
2489.63	191.685
2488.93	181.007
2488.22	184.527
2487.52	159.661
2486.81	198.658
2486.11	180.892
2485.41	156.038
2484.7	166.651
2483.99	152.443
2483.29	198.499
2482.58	187.835
2481.88	159.457
2481.17	148.803
2480.47	123.982
2479.76	170.006
2479.06	191.226
2478.35	159.33
2477.64	145.144
2476.94	201.753
2476.23	169.87
2475.52	176.919
2474.82	152.126
2474.11	145.028
2473.4	137.931
2472.7	159.126
2471.99	183.849
2471.28	159.075
2470.57	183.79
2469.87	190.828
2469.16	169.598
2468.45	190.767
2467.74	151.883
2467.04	176.58
2466.33	233.048
2465.62	148.28
2464.91	197.674
2464.2	130.585
2463.5	151.737
2462.79	162.297
2462.08	186.965
2461.37	158.718
2460.66	183.378
2459.95	215.083
2459.24	155.117
2458.53	218.538
2457.82	162.115
2457.11	169.137
2456.4	183.202
2455.69	172.605
2454.99	133.836
2454.28	165.507
2453.57	225.335
2452.85	207.697
2452.14	165.427
2451.43	161.882
2450.72	186.486
2450.01	161.83
2449.3	179.391
2448.59	186.396
2447.88	189.883
2447.17	203.915
2446.46	175.761
2445.75	130.042
2445.04	165.162
2444.32	172.163
2443.61	133.493
2442.9	182.645
2442.19	172.08
2441.48	172.052
2440.76	165.003
2440.05	224.649
2439.34	175.479
2438.63	168.433
2437.92	192.965
2437.2	203.458
2436.49	192.903
2435.78	164.818
2435.06	112.198
2434.35	175.282
2433.64	203.294
2432.92	192.748
2432.21	203.229
2431.5	150.646
2430.78	217.175
2430.07	199.629
2429.36	178.587
2428.64	178.558
2427.93	175.029
2427.21	206.501
2426.5	160.975
2425.78	185.441
2425.07	174.916
2424.35	171.39
2423.64	171.363
2422.92	199.308
2422.21	192.284
2421.49	157.298
2420.78	171.253
2420.06	181.708
2419.35	195.654
2418.63	220.076
2417.92	223.533
2417.2	199.052
2416.48	164.104
2415.77	174.551
2415.05	150.09
2414.34	177.985
2413.62	160.509
2412.9	184.905
2412.19	139.528
2411.47	177.87
2410.75	177.842
2410.04	244.057
2409.32	226.588
2408.6	198.668
2407.88	195.151
2407.17	205.573
2406.45	184.637
2405.73	198.54
2405.01	208.956
2404.29	191.512
2403.58	205.407
2402.86	163.603
2402.14	180.979
2401.42	229.667
2400.7	205.275
2399.98	208.721
2399.27	173.906
2398.55	208.654
2397.83	212.097
2397.11	194.681
2396.39	191.173
2395.67	177.241
2394.95	180.687
2394.23	215.4
2393.51	177.156
2392.79	208.385
2392.07	163.208
2391.35	187.486
2390.63	190.927
2389.91	183.955
2389.19	173.514
2388.47	180.426
2387.75	197.742
2387.03	190.773
2386.31	183.806
2385.59	211.517
2384.87	173.346
2384.14	180.251
2383.42	187.154
2382.7	228.707
2381.98	173.235
2381.26	207.848
2380.54	193.96
2379.82	180.077
2379.09	207.747
2378.37	173.095
2377.65	207.68
2376.93	197.265
2376.2	179.932
2375.48	224.878
2374.76	155.66
2374.04	179.845
2373.31	221.311
2372.59	207.446
2371.87	186.671
2371.14	176.272
2370.42	176.244
2369.7	179.671
2368.97	193.46
2368.25	196.883
2367.52	193.398
2366.8	176.102
2366.08	220.955
2365.35	193.304
2364.63	165.662
2363.9	196.692
2363.18	220.812
2362.45	182.83
2361.73	200.046
2361	220.705
2360.28	210.325
2359.55	203.397
2358.83	213.704
2358.1	251.579
2357.38	206.744
2356.65	182.594
2355.93	203.232
2355.2	227.308
2354.47	172.175
2353.75	206.577
2353.02	213.428
2352.3	185.859
2351.57	203.035
2350.84	213.325
2350.12	206.41
2349.39	223.574
2348.66	199.465
2347.94	213.187
2347.21	178.773
2346.48	213.118
2345.75	171.841
2345.03	240.539
2344.3	175.222
2343.57	206.11
2342.84	178.599
2342.11	195.741
2341.39	185.409
2340.66	195.677
2339.93	195.646
2339.2	223.069
2338.47	205.876
2337.74	205.843
2337.02	198.949
2336.29	205.776
2335.56	219.459
2334.83	181.71
2334.1	209.104
2333.37	198.788
2332.64	212.464
2331.91	246.692
2331.18	178.138
2330.45	181.534
2329.72	222.6
2328.99	225.988
2328.26	229.375
2327.53	198.531
2326.8	191.654
2326.07	201.889
2325.34	263.439
2324.61	222.348
2323.88	194.95
2323.14	232.534
2322.41	222.24
2321.68	146.996
2320.95	205.078
2320.22	222.132
2319.49	222.096
2318.76	187.897
2318.02	204.945
2317.29	198.081
2316.56	201.464
2315.83	225.33
2315.1	187.744
2314.36	201.366
2313.63	218.395
2312.9	201.3
2312.16	221.736
2311.43	211.468
2310.7	231.895
2309.97	204.58
2309.23	231.819
2308.5	180.653
2307.76	201.072
2307.03	207.854
2306.3	224.855
2305.56	218.006
2304.83	221.376
2304.1	200.909
2303.36	245.137
2302.63	224.673
2301.89	187.197
2301.16	214.391
2300.42	204.149
2299.69	251.742
2298.95	204.082
2298.22	207.45
2297.48	224.418
2296.75	224.381
2296.01	163.16
2295.28	220.91
2294.54	220.874
2293.8	190.26
2293.07	241.184
2292.33	227.559
2291.6	159.605
2290.86	207.113
2290.12	166.343
2289.39	240.988
2288.65	220.587
2287.91	237.517
2287.18	237.478
2286.44	206.912
2285.7	200.095
2284.97	227.19
2284.23	206.811
2283.49	223.726
2282.75	274.528
2282.01	250.763
2281.28	247.334
2280.54	230.356
2279.8	257.415
2279.06	253.986
2278.32	213.314
2277.59	203.123
2276.85	216.629
2276.11	203.057
2275.37	223.326
2274.63	209.757
2273.89	236.784
2273.15	196.161
2272.41	229.944
2271.67	189.335
2270.93	233.25
2270.19	206.173
2269.45	216.277
2268.71	185.833
2267.97	239.854
2267.23	212.794
2266.49	243.154
2265.75	216.101
2265.01	212.69
2264.27	243.035
2263.53	222.746
2262.79	239.581
2262.05	232.795
2261.31	259.743
2260.57	242.837
2259.83	249.542
2259.09	222.528
2258.34	283.172
2257.6	208.974
2256.86	235.899
2256.12	208.905
2255.38	279.618
2254.63	232.416
2253.89	252.585
2253.15	232.34
2252.41	218.835
2251.66	228.898
2250.92	232.227
2250.18	235.554
2249.43	218.693
2248.69	225.385
2247.95	198.441
2247.21	201.772
2246.46	218.55
2245.72	238.685
2244.97	235.285
2244.23	235.247
2243.49	255.369
2242.74	235.17
2242	248.568
2241.25	214.943
2240.51	245.129
2239.76	255.161
2239.02	251.763
2238.27	275.216
2237.53	255.036
2236.78	241.574
2236.04	254.953
2235.29	251.557
2234.55	241.456
2233.8	261.534
2233.06	234.672
2232.31	221.226
2231.57	268.109
2230.82	201.049
2230.07	211.067
2229.33	234.481
2228.58	234.442
2227.83	247.799
2227.09	261.15
2226.34	247.718
2225.59	240.983
2224.85	264.369
2224.1	281.055
2223.35	260.937
2222.6	244.171
2221.86	204
2221.11	267.497
2220.36	257.424
2219.61	310.864
2218.87	264.024
2218.12	260.639
2217.37	240.551
2216.62	247.192
2215.87	267.191
2215.12	237.093
2214.37	257.087
2213.63	220.325
2212.88	246.99
2212.13	276.984
2211.38	236.9
2210.63	230.189
2209.88	223.48
2209.13	260.128
2208.38	253.417
2207.63	240.04
2206.88	213.334
2206.13	216.632
2205.38	229.926
2204.63	209.898
2203.88	286.48
2203.13	236.474
2202.38	239.765
2201.63	233.067
2200.88	272.977
2200.12	223.006
2199.37	256.248
2198.62	252.879
2197.87	269.471
2197.12	256.122
2196.37	236.126
2195.62	249.388
2194.86	279.269
2194.11	265.927
2193.36	302.442
2192.61	259.194
2191.85	242.539
2191.1	262.431
2190.35	269.031
2189.6	259.024
2188.84	235.74
2188.09	229.062
2187.34	248.939
2186.58	258.855
2185.83	282.039
2185.08	268.722
2184.32	268.678
2183.57	248.736
2182.82	285.17
2182.06	232.077
2181.31	275.132
2180.55	301.601
2179.8	288.297
2179.04	301.503
2178.29	281.577
2177.53	284.843
2176.78	268.239
2176.02	278.128
2175.27	274.772
2174.51	238.317
2173.76	281.3
2173	264.71
2172.25	244.817
2171.49	297.701
2170.74	277.809
2169.98	287.683
2169.22	271.105
2168.47	261.144
2167.71	284.237
2166.95	297.408
2166.2	280.839
2165.44	280.793
2164.68	267.536
2163.93	277.399
2163.17	323.579
2162.41	277.308
2161.65	280.563
2160.9	273.917
2160.14	257.373
2159.38	267.229
2158.62	253.99
2157.87	286.929
2157.11	237.42
2156.35	260.459
2155.59	253.824
2154.83	290.037
2154.07	293.284
2153.31	276.762
2152.56	293.188
2151.8	279.965
2151.04	260.16
2150.28	260.117
2149.52	227.154
2148.76	279.781
2148	256.698
2147.24	243.494
2146.48	279.643
2145.72	282.887
2144.96	319.017
2144.2	253.199
2143.44	295.898
2142.68	249.829
2141.92	262.934
2141.16	289.18
2140.4	285.847
2139.64	249.664
2138.87	256.192
2138.11	275.854
2137.35	279.092
2136.59	308.592
2135.83	292.13
2135.07	269.109
2134.31	262.502
2133.54	282.144
2132.78	255.856
2132.02	242.695
2131.26	324.633
2130.49	242.615
2129.73	285.19
2128.97	281.865
2128.21	275.265
2127.44	298.155
2126.68	298.106
2125.92	343.911
2125.15	281.633
2124.39	278.313
2123.63	288.088
2122.86	294.587
2122.1	284.721
2121.33	261.769
2120.57	255.183
2119.81	304.206
2119.04	255.099
2118.28	297.566
2117.51	245.207
2116.75	287.662
2115.98	297.419
2115.22	267.96
2114.45	261.381
2113.69	300.539
2112.92	307.022
2112.16	287.377
2111.39	297.125
2110.62	284.018
2109.86	332.932
2109.09	280.661
2108.33	300.193
2107.56	306.668
2106.79	313.141
2106.03	300.044
2105.26	329.342
2104.49	316.247
2103.73	325.974
2102.96	299.847
2102.19	332.384
2101.42	325.813
2100.66	329.017
2099.89	299.649
2099.12	293.086
2098.35	296.294
2097.59	315.778
2096.82	309.216
2096.05	279.876
2095.28	325.383
2094.51	270.023
2093.74	312.265
2092.98	295.952
2092.21	286.148
2091.44	318.612
2090.67	299.056
2089.9	299.007
2089.13	279.46
2088.36	292.41
2087.59	311.853
2086.82	285.818
2086.05	311.75
2085.28	324.686
2084.51	279.184
2083.74	344.053
2082.97	298.563
2082.2	324.471
2081.43	269.267
2080.66	321.121
2079.89	285.393
2079.12	295.074
2078.35	295.025
2077.57	333.874
2076.8	317.615
2076.03	362.928
2075.26	307.79
2074.49	317.457
2073.72	304.449
2072.94	340.02
2072.17	323.775
2071.4	330.196
2070.63	297.775
2069.86	333.323
2069.08	352.682
2068.31	336.448
2067.54	281.405
2066.76	342.805
2065.99	300.713
2065.22	303.896
2064.44	313.543
2063.67	329.651
2062.9	355.447
2062.12	303.695
2061.35	293.954
2060.58	335.892
2059.8	329.378
2059.03	300.266
2058.25	306.672
2057.48	371.174
2056.7	371.112
2055.93	361.371
2055.15	335.503
2054.38	312.87
2053.6	309.593
2052.83	322.439
2052.05	328.834
2051.28	338.449
2050.5	322.279
2049.72	396.338
2048.95	351.168
2048.17	354.331
2047.4	367.155
2046.62	315.572
2045.84	344.496
2045.07	328.344
2044.29	334.727
2043.51	318.581
2042.74	315.311
2041.96	373.164
2041.18	328.072
2040.4	321.586
2039.63	331.179
2038.85	331.124
2038.07	334.283
2037.29	334.228
2036.52	385.584
2035.74	327.692
2034.96	289.092
2034.18	350.064
2033.4	356.429
2032.62	317.843
2031.84	330.63
2031.07	336.995
2030.29	346.565
2029.51	356.133
2028.73	394.569
2027.95	314.32
2027.17	400.851
2026.39	323.834
2025.61	352.632
2024.83	358.984
2024.05	362.129
2023.27	390.907
2022.49	333.177
2021.71	361.949
2020.93	393.915
2020.15	358.627
2019.37	342.56
2018.59	345.704
2017.8	329.645
2017.02	399.988
2016.24	399.921
2015.46	358.27
2014.68	380.599
2013.9	409.316
2013.11	374.078
2012.33	402.786
2011.55	357.973
2010.77	415.435
2009.99	364.244
2009.2	338.627
2008.42	370.511
2007.64	370.45
2006.85	402.318
2006.07	392.674
2005.29	341.538
2004.5	370.204
2003.72	354.188
2002.94	366.89
2002.15	347.69
2001.37	376.336
2000.59	382.651
1999.8	385.776
1999.02	404.838
1998.23	350.589
1997.45	411.077
1996.66	375.961
1995.88	410.94
1995.09	445.907
1994.31	404.434
1993.52	385.263
1992.74	378.832
1991.95	375.586
1991.17	435.989
1990.38	388.189
1989.6	391.306
1988.81	394.421
1988.02	407.077
1987.24	438.807
1986.45	397.404
1985.67	387.802
1984.88	406.806
1984.09	403.561
1983.3	368.545
1982.52	428.839
1981.73	431.944
1980.94	422.345
1980.16	428.625
1979.37	403.158
1978.58	434.83
1977.79	396.677
1977.01	437.858
1976.22	428.268
1975.43	428.197
1974.64	415.441
1973.85	399.517
1973.06	447.005
1972.27	462.779
1971.49	446.856
1970.7	399.251
1969.91	481.556
1969.12	437.13
1968.33	440.224
1967.54	484.482
1966.75	414.749
1965.96	376.694
1965.17	484.24
1964.38	452.515
1963.59	449.276
1962.8	471.345
1962.01	458.615
1961.22	420.59
1960.43	420.52
1959.64	486.837
1958.85	458.309
1958.06	432.951
1957.26	410.761
1956.47	429.647
1955.68	439.051
1954.89	404.239
1954.1	438.905
1953.31	476.716
1952.51	429.289
1951.72	523.898
1950.93	495.411
1950.14	489.018
1949.34	432.157
1948.55	479.393
1947.76	504.54
1946.97	454.011
1946.17	460.239
1945.38	472.77
1944.59	494.75
1943.79	488.366
1943	475.683
1942.21	463.005
1941.41	462.928
1940.62	481.742
1939.82	487.958
1939.03	557.124
1938.24	509.825
1937.44	516.033
1936.65	537.969
1935.85	474.969
1935.06	484.324
1934.26	528.266
1933.47	509.314
1932.67	534.376
1931.88	502.858
1931.08	512.201
1930.28	436.712
1929.49	515.171
1928.69	458.551
1927.9	511.859
1927.1	524.332
1926.3	495.992
1925.51	527.295
1924.71	530.345
1923.91	545.945
1923.12	545.854
1922.32	495.577
1921.52	498.63
1920.73	501.683
1919.93	523.544
1919.13	482.708
1918.33	504.565
1917.53	510.747
1916.74	526.326
1915.94	576.356
1915.14	529.282
1914.34	547.981
1913.54	538.497
1912.74	525.886
1911.95	475.722
1911.15	550.744
1910.35	538.137
1909.55	553.688
1908.75	531.702
1907.95	544.121
1907.15	500.257
1906.35	512.678
1905.55	556.35
1904.75	512.506
1903.95	531.168
1903.15	571.691
1902.35	521.619
1901.55	496.548
1900.75	521.445
1899.95	590.039
1899.15	499.42
1898.35	567.996
1897.54	517.975
1896.74	558.446
1895.94	611.38
1895.14	611.278
1894.34	579.993
1893.54	607.955
1892.73	557.978
1891.93	539.185
1891.13	564.023
1890.33	560.813
1889.53	551.374
1888.72	551.281
1887.92	554.303
1887.12	563.551
1886.31	575.908
1885.51	532.237
1884.71	535.26
1883.9	553.838
1883.1	578.633
1882.3	566.094
1881.49	556.67
1880.69	581.451
1879.88	568.918
1879.08	599.906
1878.28	525.218
1877.47	577.954
1876.67	503.295
1875.86	540.485
1875.06	537.289
1874.25	540.304
1873.45	624.039
1872.64	568.06
1871.84	574.172
1871.03	567.869
1870.22	552.261
1869.42	552.168
1868.61	539.669
1867.81	548.882
1867	610.799
1866.19	579.697
1865.39	551.705
1864.58	573.304
1863.77	591.799
1862.97	588.601
1862.16	669.034
1861.35	600.791
1860.54	579.016
1859.74	643.931
1858.93	600.488
1858.12	597.293
1857.31	587.909
1856.51	597.092
1855.7	562.966
1854.89	572.15
1854.08	612.252
1853.27	593.599
1852.46	593.499
1851.65	627.396
1850.84	611.84
1850.04	642.633
1849.23	546.764
1848.42	586.823
1847.61	574.372
1846.8	598.976
1845.99	586.527
1845.18	574.083
1844.37	595.588
1843.56	589.317
1842.75	616.982
1841.94	586.034
1841.13	626.026
1840.31	582.753
1839.5	650.478
1838.69	656.533
1837.88	619.441
1837.07	625.499
1836.26	613.071
1835.45	582.165
1834.64	594.386
1833.82	581.969
1833.01	591.107
1832.2	584.851
1831.39	609.374
1830.57	596.963
1829.76	563.02
1828.95	556.773
1828.14	608.964
1827.32	624.236
1826.51	568.789
1825.7	614.804
1824.88	559.377
1824.07	654.546
1823.26	608.348
1822.44	645.109
1821.63	641.929
1820.81	601.899
1820	623.29
1819.19	641.604
1818.37	613.872
1817.56	616.837
1816.74	632.075
1815.93	579.816
1815.11	653.333
1814.3	619.488
1813.48	625.516
1812.67	594.753
1811.85	701.936
1811.03	640.523
1810.22	597.517
1809.4	621.925
1808.59	634.073
1807.77	612.528
1806.95	646.108
1806.14	649.06
1805.32	612.218
1804.5	639.659
1803.69	670.152
1802.87	602.729
1802.05	578.155
1801.24	645.345
1800.42	645.236
1799.6	605.38
1798.78	614.448
1797.96	681.586
1797.15	638.688
1796.33	583.583
1795.51	650.692
1794.69	681.126
1793.87	564.964
1793.05	665.629
1792.23	665.517
1791.42	671.509
1790.6	646.981
1789.78	671.282
1788.96	674.22
1788.14	576.498
1787.32	609.947
1786.5	634.238
1785.68	637.179
1784.86	591.349
1784.04	640.012
1783.22	645.998
1782.4	600.189
1781.58	624.457
1780.76	639.579
1779.93	609.02
1779.11	672.853
1778.29	575.329
1777.47	672.626
1776.65	639.039
1775.83	632.845
1775.01	638.822
1774.18	629.59
1773.36	611.237
1772.54	617.215
1771.72	598.871
1770.89	668.677
1770.07	626.019
1769.25	616.797
1768.43	677.451
1767.6	643.925
1766.78	689.369
1765.96	658.889
1765.13	585.917
1764.31	673.843
1763.49	616.067
1762.66	664.512
1761.84	670.467
1761.01	658.22
1760.19	642.945
1759.36	679.223
1758.54	621.505
1757.72	682.024
1756.89	654.632
1756.07	733.306
1755.24	666.529
1754.41	687.62
1753.59	666.303
1752.76	669.218
1751.94	663.05
1751.11	638.721
1750.29	690.065
1749.46	692.974
1748.63	689.831
1747.81	638.288
1746.98	677.499
1746.15	619.927
1745.33	659.128
1744.5	659.016
1743.67	637.747
1742.85	725.276
1742.02	764.432
1741.19	731.072
1740.36	625.233
1739.54	646.266
1738.71	679.37
1737.88	655.104
1737.05	700.268
1736.22	703.168
1735.39	712.1
1734.57	651.642
1733.74	708.842
1732.91	696.659
1732.08	708.602
1731.25	675.319
1730.42	684.247
1729.59	675.089
1728.76	711.134
1727.93	680.886
1727.1	689.807
1726.27	683.666
1725.44	683.55
1724.61	686.445
1723.78	752.553
1722.95	629.027
1722.12	704.15
1721.29	679.961
1720.46	691.878
1719.62	718.83
1718.79	703.672
1717.96	694.533
1717.13	736.5
1716.3	700.308
1715.47	667.133
1714.63	697.065
1713.8	723.984
1712.97	678.807
1712.14	675.688
1711.31	672.571
1710.47	732.498
1709.64	717.365
1708.81	759.258
1707.97	705.119
1707.14	714
1706.31	692.882
1705.47	746.745
1704.64	716.634
1703.81	728.504
1702.97	725.382
1702.14	749.235
1701.3	716.146
1700.47	745.984
1699.63	730.88
1698.8	784.664
1697.96	679.726
1697.13	730.507
1696.29	784.263
1695.46	796.101
1694.62	718.164
1693.79	721.034
1692.95	738.859
1692.12	666.954
1691.28	705.714
1690.44	732.502
1689.61	681.56
1688.77	699.376
1687.93	753.046
1687.1	729.016
1686.26	716.943
1685.42	728.768
1684.59	806.286
1683.75	716.576
1682.91	761.233
1682.07	761.103
1681.24	749.037
1680.4	787.697
1679.56	772.647
1678.72	697.948
1677.88	739.58
1677.05	727.527
1676.21	670.761
1675.37	733.24
1674.53	733.115
1673.69	750.868
1672.85	735.844
1672.01	762.526
1671.17	729.637
1670.33	783.11
1669.49	693.663
1668.65	764.983
1667.81	738.068
1666.97	699.26
1666.13	770.542
1665.29	758.512
1664.45	740.538
1663.61	785.015
1662.77	814.612
1661.93	778.802
1661.09	748.949
1660.25	778.537
1659.4	822.969
1658.56	709.949
1657.72	727.648
1656.88	801.761
1656.04	825.376
1655.19	801.487
1654.35	753.863
1653.51	759.669
1652.67	732.837
1651.82	765.343
1650.98	800.803
1650.14	803.632
1649.3	812.39
1648.45	755.927
1647.61	770.617
1646.77	820.864
1645.92	841.464
1645.08	826.508
1644.23	758.243
1643.39	772.921
1642.54	805.358
1641.7	787.458
1640.86	769.564
1640.01	778.311
1639.17	801.849
1638.32	763.253
1637.48	804.533
1636.63	789.608
1635.78	819.042
1634.94	824.814
1634.09	783.292
1633.25	809.756
1632.4	791.888
1631.56	812.433
1630.71	844.786
1629.86	841.688
1629.02	803.158
1628.17	741.022
1627.32	823.545
1626.47	743.72
1625.63	781.953
1624.78	796.57
1623.93	811.183
1623.09	763.856
1622.24	802.059
1621.39	796.025
1620.54	819.471
1619.69	837.014
1618.84	739.629
1618	780.749
1617.15	860.15
1616.3	860.003
1615.45	830.408
1614.6	812.601
1613.75	803.63
1612.9	785.834
1612.05	859.266
1611.2	847.35
1610.35	800.138
1609.5	814.707
1608.65	764.576
1607.8	873.231
1606.95	846.625
1606.1	814.149
1605.25	825.764
1604.4	899.076
1603.55	819.606
1602.7	895.831
1601.85	869.248
1600.99	807.44
1600.14	860.143
1599.29	815.968
1598.44	883.325
1597.59	809.82
1596.74	815.548
1595.88	806.609
1595.03	826.999
1594.18	876.703
1593.32	820.852
1592.47	888.127
1591.62	832.293
1590.77	855.591
1589.91	834.937
1589.06	881.66
1588.21	840.508
1587.35	925.278
1586.5	772.885
1585.64	857.638
1584.79	851.637
1583.93	833.935
1583.08	839.643
1582.23	906.775
1581.37	853.977
1580.52	824.59
1579.66	821.525
1578.81	873.999
1577.95	835.855
1577.09	803.569
1576.24	861.862
1575.38	847.109
1574.53	890.772
1573.67	876.019
1572.81	843.753
1571.96	843.608
1571.1	846.382
1570.24	805.383
1569.39	857.761
1568.53	845.945
1567.67	907.047
1566.82	898.143
1565.96	915.482
1565.1	859.939
1564.24	836.475
1563.39	847.987
1562.53	958.556
1561.67	891.391
1560.81	865.025
1559.95	856.14
1559.09	893.843
1558.23	887.867
1557.38	887.714
1556.52	942.852
1555.66	849.585
1554.8	901.801
1553.94	895.829
1553.08	898.583
1552.22	869.353
1551.36	813.97
1550.5	944.624
1549.64	909.589
1548.78	889.094
1547.92	856.985
1547.06	885.883
1546.2	891.538
1545.34	894.288
1544.47	949.292
1543.61	867.858
1542.75	856.1
1541.89	879.165
1541.03	908.024
1540.17	875.962
1539.3	893.211
1538.44	875.66
1537.58	947.985
1536.72	942.025
1535.85	921.576
1534.99	863.466
1534.13	877.803
1533.27	871.858
1532.4	923.837
1531.54	920.782
1530.68	984.314
1529.81	960.988
1528.95	957.929
1528.08	923.041
1527.22	899.737
1526.36	873.549
1525.49	939.916
1524.63	913.73
1523.76	936.701
1522.9	924.977
1522.03	933.487
1521.17	863.977
1520.3	898.497
1519.44	933.004
1518.57	872.194
1517.7	872.044
1516.84	926.747
1515.97	894.835
1515.11	920.656
1514.24	923.382
1513.37	900.142
1512.51	925.948
1511.64	911.368
1510.77	847.772
1509.91	928.352
1509.04	882.07
1508.17	879.036
1507.3	881.765
1506.44	896.019
1505.57	936.192
1504.7	889.949
1503.83	855.24
1502.96	918.433
1502.09	984.482
1501.23	923.871
1500.36	929.467
1499.49	889.027
1498.62	854.354
1497.75	900.224
1496.88	957.581
1496.01	968.916
1495.14	848.014
1494.27	922.595
1493.4	936.804
1492.53	907.91
1491.66	942.225
1490.79	933.446
1489.92	964.872
1489.05	930.252
1488.18	921.479
1487.31	944.281
1486.44	961.335
1485.56	955.431
1484.69	903.63
1483.82	949.364
1482.95	963.538
1482.08	1006.38
1481.21	980.405
1480.33	988.834
1479.46	994.394
1478.59	1057.26
1477.72	1054.21
1476.84	1031.11
1475.97	953.614
1475.1	1004.99
1474.22	1059.2
1473.35	1018.95
1472.48	1067.42
1471.6	1107.29
1470.73	1121.41
1469.85	1132.65
1468.98	1143.9
1468.11	1132.26
1467.23	1186.38
1466.36	1200.47
1465.48	1171.68
1464.61	1217.19
1463.73	1182.7
1462.86	1262.47
1461.98	1282.25
1461.11	1187.8
1460.23	1219
1459.35	1298.7
1458.48	1267.09
1457.6	1249.75
1456.73	1283.77
1455.85	1283.54
1454.97	1249.1
1454.1	1268.84
1453.22	1248.67
1452.34	1245.6
1451.46	1219.73
1450.59	1205.28
1449.71	1225.01
1448.83	1278.91
1447.95	1247.37
1447.08	1304.1
1446.2	1224.16
1445.32	1260.95
1444.44	1294.88
1443.56	1382.86
1442.68	1351.33
1441.81	1373.85
1440.93	1450.4
1440.05	1492.8
1439.17	1594.88
1438.29	1620.19
1437.41	1546.02
1436.53	1528.7
1435.65	1491.5
1434.77	1352.06
1433.89	1417.14
1433.01	1331.71
1432.13	1325.81
1431.25	1220.55
1430.37	1260.07
1429.48	1259.85
1428.6	1251.12
1427.72	1197.01
1426.84	1182.62
1425.96	1156.9
1425.08	1159.53
1424.19	1156.5
1423.31	1105.28
1422.43	1255.27
1421.55	1116.23
1420.67	1141.53
1419.78	1200.8
1418.9	1200.6
1418.02	1191.89
1417.13	1251.13
1416.25	1256.57
1415.37	1253.52
1414.48	1292.91
1413.6	1210.66
1412.71	1114.29
1411.83	1133.89
1410.95	1170.45
1410.06	1133.5
1409.18	1130.47
1408.29	1152.88
1407.41	1113.13
1406.52	1101.63
1405.64	1073.2
1404.75	1084.31
1403.87	1101.06
1402.98	1055.7
1402.1	1018.83
1401.21	993.258
1400.32	1097.47
1399.44	1083.18
1398.55	1049.14
1397.66	1077.16
1396.78	1048.78
1395.89	1042.96
1395	1141.42
1394.12	1031.32
1393.23	1019.88
1392.34	1030.97
1391.45	1092.75
1390.57	1058.76
1389.68	1075.47
1388.79	1058.4
1387.9	1182.04
1387.01	1063.65
1386.12	1150.69
1385.24	1116.73
1384.35	1116.53
1383.46	1082.6
1382.57	1082.41
1381.68	1107.52
1380.79	1124.19
1379.9	1152.09
1379.01	1098.51
1378.12	1084.27
1377.23	1126.21
1376.34	1081.09
1375.45	1069.67
1374.56	1139.66
1373.67	1100.17
1372.78	1041.05
1371.89	1063.31
1370.99	1158.5
1370.1	1121.84
1369.21	1090.8
1368.32	1065.37
1367.43	1082.01
1366.54	1073.41
1365.64	1064.82
1364.75	1145.88
1363.86	1112.06
1362.97	1134.27
1362.07	1080.87
1361.18	1058.29
1360.29	1038.51
1359.39	1125.09
1358.5	1054.93
1357.61	1046.36
1356.71	1062.96
1355.82	1048.79
1354.93	1034.62
1354.03	1028.85
1353.14	1028.67
1352.24	1048.05
1351.35	1011.55
1350.45	1044.89
1349.56	991.638
1348.66	1058.49
1347.77	1019.22
1346.87	1052.54
1345.98	968.614
1345.08	990.772
1344.18	1032.46
1343.29	1023.9
1342.39	984.673
1341.5	951.034
1340.6	978.752
1339.7	981.369
1338.81	1009.07
1337.91	1014.47
1337.01	958.562
1336.11	947.25
1335.22	1005.58
1334.32	963.629
1333.42	969.029
1332.52	960.508
1331.63	901.884
1330.73	960.171
1329.83	934.96
1328.93	873.589
1328.03	915.161
1327.13	912.22
1326.23	998.261
1325.33	923.021
1324.43	917.3
1323.53	903.243
1322.64	936.43
1321.74	911.261
1320.84	899.991
1319.94	897.056
1319.03	944.104
1318.13	907.847
1317.23	879.93
1316.33	910.304
1315.43	918.469
1314.53	868.37
1313.63	954.207
1312.73	920.759
1311.83	848.503
1310.92	878.851
1310.02	895.328
1309.12	925.657
1308.22	925.495
1307.32	856.071
1306.41	891.93
1305.51	922.238
1304.61	911.001
1303.71	919.146
1302.8	999.258
1301.9	1026.76
1301	968.47
1300.09	954.467
1299.19	932.171
1298.28	995.616
1297.38	1081.16
1296.48	1241.32
1295.57	1437.36
1294.67	1594.63
1293.76	1621.98
1292.86	1491.85
1291.95	1251.28
1291.05	1110.21
1290.14	963.671
1289.24	880.679
1288.33	875.004
1287.42	827.934
1286.52	761.565
1285.61	819.367
1284.71	758.54
1283.8	780.469
1282.89	747.244
1281.99	700.246
1281.08	719.417
1280.17	735.826
1279.26	721.92
1278.36	724.548
1277.45	696.876
1276.54	691.246
1275.63	688.371
1274.72	754.322
1273.82	734.922
1272.91	767.817
1272	682.384
1271.09	731.783
1270.18	717.901
1269.27	665.523
1268.36	684.653
1267.45	728.519
1266.54	673.418
1265.64	689.789
1264.73	711.649
1263.82	697.788
1262.91	686.678
1261.99	670.08
1261.08	727.622
1260.17	686.315
1259.26	702.663
1258.35	686.074
1257.44	658.515
1256.53	683.089
1255.62	650.055
1254.71	611.547
1253.79	600.472
1252.88	611.332
1251.97	663.302
1251.06	682.368
1250.15	652.108
1249.23	641.035
1248.32	613.533
1247.41	657.241
1246.49	670.815
1245.58	665.222
1244.67	689.738
1243.75	648.568
1242.84	634.773
1241.93	716.73
1241.01	659.166
1240.1	626.234
1239.18	634.326
1238.27	617.812
1237.35	604.037
1236.44	661.318
1235.53	590.163
1234.61	633.767
1233.69	680.087
1232.78	633.543
1231.86	589.747
1230.95	657.888
1230.03	627.75
1229.12	627.639
1228.2	624.8
1227.28	660.152
1226.37	621.852
1225.45	657.192
1224.53	687.067
1223.62	667.864
1222.7	629.589
1221.78	610.403
1220.86	618.469
1219.95	599.292
1219.03	675.446
1218.11	609.972
1217.19	642.536
1216.27	636.978
1215.35	620.536
1214.44	606.821
1213.52	617.596
1212.6	582.124
1211.68	592.9
1210.76	644.461
1209.84	614.441
1208.92	587.15
1208	627.813
1207.08	616.833
1206.16	589.555
1205.24	575.869
1204.32	573.052
1203.4	583.812
1202.48	594.569
1201.56	559.176
1200.64	602.5
1199.71	607.821
1198.79	586.009
1197.87	539.793
1196.95	656.315
1196.03	601.968
1195.1	593.728
1194.18	552.964
1193.26	582.678
1192.34	574.446
1191.41	568.926
1190.49	612.164
1189.57	576.849
1188.65	541.546
1187.72	582.059
1186.8	576.543
1185.87	581.853
1184.95	570.927
1184.03	578.942
1183.1	554.496
1182.18	576.033
1181.25	562.411
1180.33	548.795
1179.4	570.321
1178.48	589.137
1177.55	559.311
1176.63	605.138
1175.7	569.917
1174.78	550.912
1173.85	569.715
1172.92	588.511
1172	639.69
1171.07	612.591
1170.15	661.049
1169.22	644.746
1168.29	614.962
1167.36	639.124
1166.44	595.871
1165.51	617.331
1164.58	576.792
1163.65	525.489
1162.73	552.339
1161.8	589.955
1160.87	538.676
1159.94	570.895
1159.01	586.949
1158.08	514.162
1157.16	592.124
1156.23	538.199
1155.3	540.794
1154.37	548.768
1153.44	545.981
1152.51	532.439
1151.58	516.213
1150.65	529.562
1149.72	529.468
1148.79	558.933
1147.86	607.194
1146.93	596.341
1146	547.892
1145.07	569.277
1144.13	582.6
1143.2	582.496
1142.27	558.238
1141.34	563.506
1140.41	541.943
1139.48	555.259
1138.54	581.979
1137.61	563.106
1136.68	584.454
1135.75	584.35
1134.81	621.766
1133.88	664.529
1132.95	677.806
1132.01	741.972
1131.08	768.621
1130.15	929.144
1129.21	969.136
1128.28	1073.35
1127.35	1011.61
1126.41	1006.08
1125.48	914.942
1124.54	786.389
1123.61	775.552
1122.67	695.199
1121.74	665.668
1120.8	596.055
1119.87	625.345
1118.93	558.435
1117.99	547.65
1117.06	592.96
1116.12	518.08
1115.19	582.068
1114.25	552.6
1113.31	520.472
1112.38	541.729
1111.44	570.982
1110.5	506.856
1109.56	520.102
1108.63	538.676
1107.69	541.247
1106.75	565.142
1105.81	519.732
1104.88	540.958
1103.94	548.854
1103	564.74
1102.06	556.649
1101.12	527.258
1100.18	551.126
1099.24	479.154
1098.3	497.7
1097.36	524.221
1096.42	542.751
1095.49	492.113
1094.55	523.941
1093.6	579.689
1092.66	510.461
1091.72	558.217
1090.78	555.46
1089.84	547.389
1088.9	534.008
1087.96	533.913
1087.02	600.213
1086.08	562.931
1085.14	546.901
1084.19	549.458
1083.25	554.668
1082.31	541.302
1081.37	517.329
1080.43	527.846
1079.48	599.357
1078.54	583.341
1077.6	543.47
1076.65	522.169
1075.71	559.177
1074.77	561.727
1073.82	551.03
1072.88	564.175
1071.93	529.647
1070.99	556.031
1070.05	555.931
1069.1	542.598
1068.16	600.721
1067.21	621.78
1066.27	663.996
1065.32	711.486
1064.38	843.582
1063.43	832.855
1062.49	824.776
1061.54	903.92
1060.59	911.686
1059.65	803.197
1058.7	766.071
1057.75	705.187
1056.81	660.17
1055.86	609.888
1054.91	556.984
1053.97	538.41
1053.02	540.952
1052.07	509.196
1051.12	556.586
1050.18	493.189
1049.23	477.28
1048.28	495.65
1047.33	492.925
1046.38	484.93
1045.43	490.114
1044.48	497.93
1043.54	537.352
1042.59	531.988
1041.64	510.828
1040.69	479.145
1039.74	560.657
1038.79	473.71
1037.84	470.994
1036.89	539.31
1035.94	502.389
1034.99	515.448
1034.04	499.58
1033.08	488.975
1032.13	449.461
1031.18	473.032
1030.23	475.575
1029.28	488.625
1028.33	485.91
1027.37	454.311
1026.42	446.352
1025.47	464.648
1024.52	448.817
1023.57	448.737
1022.61	464.399
1021.66	430.213
1020.71	479.969
1019.75	474.638
1018.8	456.2
1017.85	427.284
1016.89	508.455
1015.94	453.335
1014.98	461.113
1014.03	450.553
1013.07	458.329
1012.12	432.061
1011.16	460.783
1010.21	437.141
1009.25	442.297
1008.3	444.835
1007.34	494.463
1006.39	434.212
1005.43	449.826
1004.48	436.671
1003.52	439.207
1002.56	457.425
1001.61	405.076
1000.65	512.133
999.693	472.854
998.736	472.769
997.778	449.181
996.821	475.21
995.863	456.851
994.905	454.159
993.947	469.735
992.989	461.823
992.031	443.479
991.072	412.101
990.114	432.889
989.155	411.953
988.196	461.409
987.237	463.932
986.277	440.396
985.318	448.133
984.358	476.707
983.398	468.808
982.438	466.12
981.478	411.361
980.517	421.7
979.557	419.021
978.596	473.591
977.635	491.718
976.674	470.819
975.713	444.727
974.751	496.653
973.79	454.967
972.828	428.891
971.866	418.419
970.904	397.556
969.942	410.474
968.979	462.35
968.017	454.476
967.054	467.377
966.091	417.967
965.128	443.848
964.164	487.886
963.201	454.067
962.237	441.014
961.273	427.966
960.309	443.449
959.345	461.519
958.381	458.843
957.416	456.169
956.451	396.484
955.486	432.686
954.521	450.742
953.556	437.71
952.591	429.863
951.625	447.909
950.659	434.885
949.693	458.1
948.727	476.131
947.761	426.889
946.794	465.613
945.828	470.701
944.861	437.001
943.894	460.19
942.927	429.089
941.959	457.44
940.992	421.182
940.024	472.776
939.056	457.193
938.088	475.188
937.12	462.192
936.152	485.343
935.183	467.188
934.214	472.265
933.246	490.241
932.276	443.717
931.307	464.271
930.338	474.503
929.368	482.152
928.398	456.286
927.428	440.74
926.458	463.853
925.488	435.428
924.517	425.045
923.547	455.875
922.576	455.793
921.605	447.986
920.634	478.796
919.662	437.53
918.691	432.304
917.719	522.273
916.747	450.154
915.775	465.504
914.803	483.42
913.831	429.343
912.858	457.541
911.885	447.178
910.912	485.64
909.939	475.276
908.966	488.033
907.992	457.127
907.019	464.748
906.045	436.425
905.071	469.713
904.097	433.7
903.122	500.333
902.148	466.893
901.173	461.679
900.198	420.565
899.223	438.436
898.248	499.881
897.273	481.849
896.297	463.824
895.321	499.61
894.345	476.465
893.369	466.134
892.393	530.067
891.416	448.043
890.44	440.283
889.463	460.678
888.486	427.329
887.509	465.628
886.531	478.333
885.554	488.477
884.576	470.489
883.598	483.187
882.62	495.88
881.642	495.79
880.664	523.807
879.685	480.282
878.706	485.304
877.727	464.786
876.748	444.275
875.769	456.959
874.789	469.638
873.81	492.52
872.83	492.431
871.85	573.973
870.87	522.859
869.889	545.714
868.909	471.677
867.928	466.493
866.947	484.249
865.966	501.999
864.985	476.431
864.003	522.195
863.022	494.086
862.04	473.625
861.058	488.815
860.076	503.999
859.094	486.092
858.111	458.014
857.128	480.828
856.146	473.11
855.162	465.395
854.179	437.341
853.196	488.106
852.212	460.058
851.229	485.387
850.245	485.299
849.261	475.05
848.276	500.362
847.292	492.653
846.307	510.337
845.322	477.243
844.337	525.38
843.352	477.07
842.367	525.189
841.381	499.727
840.396	507.245
839.41	484.331
838.424	451.284
837.437	468.946
836.451	511.945
835.464	476.377
834.477	466.157
833.49	435.676
832.503	491.313
831.516	493.755
830.528	491.134
829.541	498.638
828.553	539.039
827.565	518.699
826.577	498.366
825.588	475.512
824.6	488.07
823.611	495.566
822.622	485.364
821.633	500.441
820.643	490.242
819.654	464.887
818.664	492.59
817.674	484.923
816.684	505.036
815.694	487.271
814.704	474.561
813.713	492.142
812.723	454.202
811.732	522.237
810.741	499.44
809.749	499.349
808.758	504.301
807.766	443.704
806.774	494.035
805.782	483.865
804.79	508.973
803.798	448.42
802.805	478.563
801.812	463.366
800.819	465.8
799.826	473.267
798.833	528.553
797.84	513.358
796.846	470.492
795.852	525.748
794.858	497.987
793.864	518.013
792.87	525.461
791.875	495.201
790.88	502.65
789.885	487.482
788.89	512.516
787.895	464.697
786.9	494.749
785.904	514.747
784.908	502.1
783.912	466.868
782.916	514.465
781.92	491.789
780.923	476.648
779.926	476.561
778.929	473.966
777.932	498.952
776.935	501.368
775.938	431.098
774.94	518.727
773.942	443.468
772.944	501.002
771.946	500.911
770.948	450.737
769.949	500.728
768.95	538.184
767.951	528.075
766.952	500.454
765.953	527.882
764.954	505.273
763.954	527.689
762.954	510.09
761.954	494.997
760.954	454.914
759.954	474.823
758.953	452.249
757.952	474.65
756.951	522.019
755.95	484.465
754.949	479.383
753.948	524.229
752.946	494.183
751.944	509.065
750.942	561.366
749.94	563.758
748.937	513.774
747.935	486.251
746.932	468.71
745.929	506.014
744.926	498.445
743.923	525.763
742.919	528.158
741.916	552.97
740.912	542.908
739.908	480.56
738.903	440.64
737.899	487.851
736.894	457.899
735.89	500.113
734.885	532.361
733.88	524.802
732.874	544.6
731.869	534.555
730.863	531.971
729.857	536.845
728.851	519.352
727.845	496.896
726.838	561.39
725.832	524.034
724.825	474.275
723.818	571.012
722.811	481.548
721.804	488.905
720.796	570.698
719.788	545.785
718.78	535.764
717.772	495.987
716.764	515.732
715.756	498.284
714.747	500.671
713.738	483.232
712.729	450.934
711.72	515.259
710.71	510.211
709.701	492.783
708.691	472.886
707.681	529.733
706.671	472.713
705.661	497.371
704.65	536.864
703.64	544.186
702.629	519.355
701.618	479.697
700.606	546.359
699.595	489.408
698.583	476.962
697.572	504.054
696.56	499.02
695.547	484.109
694.535	498.837
693.523	545.657
692.51	523.34
691.497	498.562
690.484	478.729
689.471	461.371
688.457	490.887
687.443	520.393
686.43	512.9
685.416	557.183
684.401	522.571
683.387	574.23
682.372	519.915
681.358	524.747
680.343	564.061
679.327	581.196
678.312	573.702
677.297	487.434
676.281	460.27
675.265	462.646
674.249	521.611
673.233	494.456
672.216	518.96
671.2	533.619
670.183	506.476
669.166	580.128
668.148	570.19
667.131	491.453
666.113	515.931
665.096	464.252
664.078	478.902
663.06	545.111
662.041	530.281
661.023	481.092
660.004	542.356
658.985	505.452
657.966	512.718
656.947	539.604
655.927	576.289
654.908	532.05
653.888	558.917
652.868	544.109
651.848	517.053
650.827	583.109
649.807	499.715
648.786	548.606
647.765	536.262
646.744	511.681
645.723	594.811
644.701	531.071
643.679	530.973
642.657	552.893
641.635	555.237
640.613	518.452
639.591	564.812
638.568	542.707
637.545	562.16
636.522	549.838
635.499	574.169
634.475	530.092
633.452	561.745
632.428	573.851
631.404	527.358
630.38	598.05
629.356	593.058
628.331	568.548
627.306	587.96
626.281	558.581
625.256	587.743
624.231	604.703
623.205	599.716
622.18	626.417
621.154	579.999
620.128	604.257
619.102	621.198
618.075	657.617
617.049	584.441
616.022	603.81
614.995	659.687
613.968	713.109
612.94	715.411
611.913	693.383
610.885	651.902
609.857	663.942
608.829	649.23
607.8	646.679
606.772	607.669
605.743	622.138
604.714	646.32
603.685	602.473
602.656	643.653
601.626	679.96
600.597	657.983
599.567	633.586
598.537	657.739
597.507	640.631
596.476	638.087
595.446	633.117
594.415	611.172
593.384	611.059
592.353	640.039
591.321	579.322
590.29	673.731
589.258	646.953
588.226	620.185
587.194	617.648
586.162	559.413
585.129	581.1
584.096	576.151
583.063	551.841
582.03	575.938
580.997	580.67
579.964	607.172
578.93	585.292
577.896	548.912
576.862	614.088
575.828	611.557
574.793	567.941
573.759	599.248
572.724	625.712
571.689	584.534
570.654	603.745
569.618	531.197
568.583	550.412
567.547	600.996
566.511	574.34
565.475	554.931
564.438	588.601
563.402	600.551
562.365	622.142
561.328	559.342
560.291	602.627
559.254	631.436
558.216	616.861
557.178	631.202
556.141	635.902
555.102	590.027
554.064	645.298
553.026	572.957
551.987	611.361
550.948	572.744
549.909	563.014
548.87	627.86
547.83	596.477
546.791	593.961
545.751	589.043
544.711	560.087
543.671	641.698
542.63	567.088
541.59	583.8
540.549	576.486
539.508	643.623
538.467	585.876
537.425	607.374
536.384	631.263
535.342	611.948
534.3	633.428
533.258	614.119
532.216	630.794
531.173	585.115
530.13	589.801
529.088	572.912
528.044	596.772
527.001	582.284
525.958	606.133
524.914	634.765
523.87	591.538
522.826	610.584
521.782	651.169
520.737	629.505
519.693	670.071
518.648	593.381
517.603	595.663
516.557	602.728
515.512	583.485
514.466	571.422
513.42	619.124
512.374	642.909
511.328	635.621
510.282	597.277
509.235	585.222
508.188	580.337
507.141	582.617
506.094	611.156
505.047	560.918
503.999	565.586
502.951	553.551
501.903	605.93
500.855	586.736
499.807	615.243
