3200.66	117.878
3200.06	58.9388
3199.47	113.65
3198.87	58.9209
3198.28	96.7841
3197.69	92.5621
3197.09	79.9279
3196.5	100.946
3195.9	92.5201
3195.31	117.735
3194.71	71.4712
3194.12	138.717
3193.52	109.276
3192.93	105.057
3192.33	96.6378
3191.74	84.0202
3191.14	88.2079
3190.55	92.3943
3189.95	96.5794
3189.36	88.1679
3188.76	75.561
3188.17	96.5356
3187.57	88.1279
3186.97	88.1145
3186.38	96.4918
3185.78	104.866
3185.19	96.4626
3184.59	67.0943
3183.99	62.8913
3183.4	79.6503
3182.8	71.2553
3182.2	92.1988
3181.61	96.375
3181.01	67.0334
3180.41	83.779
3179.82	50.2598
3179.22	71.1906
3178.62	71.1798
3178.03	46.0506
3177.43	92.0872
3176.83	83.7029
3176.23	66.9522
3175.64	87.8615
3175.04	112.948
3174.44	100.383
3173.84	96.1855
3173.25	96.171
3172.65	117.06
3172.05	87.7817
3171.45	71.0506
3170.85	112.828
3170.26	116.989
3169.66	79.3734
3169.06	100.246
3168.46	116.936
3167.86	79.3373
3167.26	87.6753
3166.66	50.0926
3166.06	75.1275
3165.47	91.8086
3164.87	104.312
3164.27	33.3748
3163.67	58.3971
3163.07	54.2177
3162.47	87.5691
3161.87	66.7092
3161.27	75.0365
3160.67	120.874
3160.07	58.344
3159.47	70.8356
3158.87	58.3263
3158.27	79.1451
3157.67	99.9577
3157.07	83.2854
3156.47	120.746
3155.87	99.9122
3155.27	49.9485
3154.67	120.691
3154.07	83.2223
3153.46	91.5306
3152.86	74.8773
3152.26	70.7068
3151.66	62.3788
3151.06	49.8955
3150.46	74.8319
3149.86	95.604
3149.26	70.6531
3148.65	49.8652
3148.05	78.9413
3147.45	66.4668
3146.85	91.378
3146.25	53.9879
3145.64	91.3502
3145.04	62.2748
3144.44	87.1715
3143.84	91.3087
3143.24	70.546
3142.63	87.1318
3142.03	112.01
3141.43	70.5139
3140.82	66.3559
3140.22	91.2255
3139.62	128.526
3139.02	99.4885
3138.41	124.342
3137.81	74.5937
3137.21	74.5824
3136.6	74.5711
3136	70.4175
3135.4	62.1237
3134.79	103.524
3134.19	95.2274
3133.58	74.5144
3132.98	140.728
3132.38	99.3224
3131.77	62.0671
3131.17	57.9205
3130.56	95.1406
3129.96	124.078
3129.35	90.9764
3128.75	95.0972
3128.14	107.485
3127.54	78.5347
3126.93	99.1867
3126.33	74.3787
3125.72	74.3674
3125.12	74.3561
3124.51	74.3448
3123.91	78.4631
3123.3	74.3222
3122.7	90.8244
3122.09	111.449
3121.49	78.4154
3120.88	94.9095
3120.27	103.147
3119.67	66.0039
3119.06	65.9938
3118.46	119.596
3117.85	107.207
3117.24	45.3501
3116.64	57.7095
3116.03	115.401
3115.42	123.626
3114.82	86.5247
3114.21	115.349
3113.6	98.8553
3113	65.8935
3112.39	82.3544
3111.78	74.1077
3111.17	94.6787
3110.57	90.5485
3109.96	102.88
3109.35	127.552
3108.74	106.963
3108.14	102.833
3107.53	82.2541
3106.92	78.1295
3106.31	111.009
3105.7	78.1058
3105.1	69.8735
3104.49	69.8628
3103.88	61.6343
3103.27	57.5166
3102.66	94.4771
3102.05	114.998
3101.44	110.874
3100.84	106.751
3100.23	86.2092
3099.62	65.6732
3099.01	57.4553
3098.4	82.0664
3097.79	69.7459
3097.18	57.429
3096.57	86.1304
3095.96	90.2181
3095.35	49.2024
3094.74	90.1906
3094.13	86.0779
3093.52	65.5732
3092.91	53.2701
3092.3	94.2327
3091.69	69.6396
3091.08	81.9165
3090.47	77.8088
3089.86	106.459
3089.25	69.5972
3088.64	69.5866
3088.03	69.576
3087.42	77.7495
3086.81	90.012
3086.19	44.9992
3085.58	110.436
3084.97	65.4334
3084.36	57.2455
3083.75	65.4134
3083.14	81.7543
3082.53	77.6547
3081.91	69.4699
3081.3	77.631
3080.69	85.7896
3080.08	69.4381
3079.47	102.099
3078.85	126.584
3078.24	77.5718
3077.63	102.053
3077.02	89.7926
3076.4	97.9406
3075.79	77.5245
3075.18	81.5923
3074.57	106.054
3073.95	101.959
3073.34	101.944
3072.73	85.6196
3072.11	89.683
3071.5	101.897
3070.89	73.3546
3070.27	105.94
3069.66	114.072
3069.05	93.688
3068.43	89.6009
3067.82	85.5151
3067.2	69.2159
3066.59	61.0635
3065.98	81.4056
3065.36	56.9752
3064.75	118.002
3064.13	77.2999
3063.52	77.2881
3062.9	65.0748
3062.29	73.1979
3061.67	89.4505
3061.06	48.7837
3060.44	101.617
3059.83	109.73
3059.21	77.2055
3058.6	89.3821
3057.98	93.4307
3057.37	105.601
3056.75	121.829
3056.14	52.7844
3055.52	105.553
3054.9	60.8865
3054.29	117.696
3053.67	77.0993
3053.06	101.431
3052.44	105.472
3051.82	64.896
3051.21	85.1629
3050.59	81.0951
3049.97	81.0827
3049.36	89.1774
3048.74	68.8993
3048.12	81.0455
3047.51	97.2398
3046.89	93.1739
3046.27	97.21
3045.65	80.996
3045.04	60.7377
3044.42	93.1169
3043.8	117.39
3043.18	93.0884
3042.57	84.9807
3041.95	76.8756
3041.33	109.228
3040.71	97.0763
3040.09	72.796
3039.48	76.8285
3038.86	101.075
3038.24	113.186
3037.62	137.419
3037	72.7404
3036.38	145.458
3035.76	113.117
3035.14	137.335
3034.53	125.198
3033.91	133.255
3033.29	121.123
3032.67	100.92
3032.05	92.8322
3031.43	84.7469
3030.81	80.6989
3030.19	112.961
3029.57	84.7079
3028.95	96.7942
3028.33	68.5521
3027.71	48.3823
3027.09	56.4374
3026.47	80.6124
3025.85	60.4501
3025.23	84.6171
3024.61	52.374
3023.99	108.76
3023.37	72.4956
3022.75	96.646
3022.13	88.5786
3021.5	80.5137
3020.88	80.5013
3020.26	92.5623
3019.64	96.572
3019.02	92.534
3018.4	128.723
3017.78	104.572
3017.15	108.577
3016.53	112.581
3015.91	116.584
3015.29	100.488
3014.67	116.548
3014.04	72.3291
3013.42	84.371
3012.8	84.3581
3012.18	100.411
3011.56	68.2689
3010.93	96.3649
3010.31	84.3063
3009.69	96.3353
3009.06	76.2537
3008.44	116.369
3007.82	100.303
3007.19	116.334
3006.57	108.294
3005.95	88.2261
3005.32	120.29
3004.7	80.1809
3004.08	76.1602
3003.45	136.266
3002.83	96.1728
3002.21	128.211
3001.58	112.167
3000.96	72.0964
3000.33	88.1043
2999.71	92.0949
2999.08	104.091
2998.46	116.084
2997.84	108.062
2997.21	80.0333
2996.59	88.0231
2995.96	92.0101
2995.34	67.997
2994.71	55.9889
2994.09	115.959
2993.46	107.945
2992.83	87.9421
2992.21	95.9221
2991.58	103.9
2990.96	67.9239
2990.33	95.8778
2989.71	87.8745
2989.08	115.817
2988.45	87.8475
2987.83	119.774
2987.2	79.8368
2986.58	71.8421
2985.95	107.747
2985.32	75.81
2984.7	87.7665
2984.07	71.7979
2983.44	107.68
2982.82	107.664
2982.19	91.6995
2981.56	99.6581
2980.93	63.7714
2980.31	99.6274
2979.68	91.6431
2979.05	63.7419
2978.42	95.5982
2977.8	87.6182
2977.17	79.6407
2976.54	43.7956
2975.91	119.424
2975.28	103.485
2974.66	75.6121
2974.03	123.348
2973.4	99.459
2972.77	107.399
2972.14	103.406
2971.51	123.272
2970.88	115.301
2970.26	107.333
2969.63	147.063
2969	127.17
2968.37	127.151
2967.74	103.294
2967.11	71.5003
2966.48	79.4326
2965.85	95.3044
2965.22	107.201
2964.59	79.3959
2963.96	95.2604
2963.33	119.057
2962.7	130.943
2962.07	162.661
2961.44	142.803
2960.81	130.882
2960.18	99.138
2959.55	158.596
2958.92	122.893
2958.29	103.056
2957.66	95.1138
2957.03	99.0616
2956.4	99.0464
2955.76	95.0699
2955.13	114.858
2954.5	102.961
2953.87	91.0665
2953.24	95.0113
2952.61	130.62
2951.98	114.77
2951.34	126.623
2950.71	138.473
2950.08	106.805
2949.45	138.43
2948.82	118.636
2948.18	114.664
2947.55	110.693
2946.92	146.25
2946.29	110.659
2945.65	138.302
2945.02	165.937
2944.39	154.06
2943.76	165.886
2943.12	122.421
2942.49	138.195
2941.86	118.435
2941.22	134.206
2940.59	118.398
2939.96	153.894
2939.32	173.597
2938.69	130.178
2938.05	130.158
2937.42	145.912
2936.79	169.547
2936.15	181.348
2935.52	149.786
2934.88	145.822
2934.25	189.145
2933.61	200.936
2932.98	212.723
2932.34	153.609
2931.71	165.4
2931.08	188.999
2930.44	204.718
2929.81	188.941
2929.17	228.269
2928.53	200.688
2927.9	208.526
2927.26	188.824
2926.63	200.595
2925.99	196.631
2925.36	192.669
2924.72	153.325
2924.08	227.987
2923.45	224.021
2922.81	192.55
2922.18	208.236
2921.54	196.419
2920.9	196.388
2920.27	227.775
2919.63	227.74
2918.99	227.705
2918.36	235.521
2917.72	204.086
2917.08	239.372
2916.44	188.329
2915.81	231.452
2915.17	227.494
2914.53	270.598
2913.9	219.581
2913.26	231.309
2912.62	231.273
2911.98	246.915
2911.34	215.527
2910.71	239.002
2910.07	195.873
2909.43	231.095
2908.79	227.143
2908.15	266.264
2907.51	242.732
2906.88	274.01
2906.24	250.485
2905.6	238.707
2904.96	273.883
2904.32	250.369
2903.68	289.444
2903.04	285.489
2902.4	273.714
2901.76	289.31
2901.12	297.083
2900.48	269.678
2899.84	296.991
2899.2	234.43
2898.56	273.46
2897.92	253.888
2897.28	269.47
2896.64	285.047
2896	296.715
2895.36	347.415
2894.72	300.526
2894.08	273.164
2893.44	296.532
2892.8	284.782
2892.16	315.942
2891.52	311.994
2890.88	315.845
2890.24	327.492
2889.59	319.645
2888.95	280.62
2888.31	319.546
2887.67	292.222
2887.03	385.674
2886.39	331.083
2885.74	311.559
2885.1	342.662
2884.46	369.862
2883.82	338.663
2883.18	404.776
2882.53	420.279
2881.89	451.341
2881.25	466.832
2880.6	493.987
2879.96	571.692
2879.32	598.822
2878.68	660.935
2878.03	575.313
2877.39	532.471
2876.75	532.388
2876.1	559.504
2875.46	528.338
2874.82	489.414
2874.17	438.851
2873.53	427.134
2872.88	399.89
2872.24	384.301
2871.6	376.479
2870.95	388.062
2870.31	372.482
2869.66	321.992
2869.02	356.851
2868.37	418.847
2867.73	372.251
2867.08	352.808
2866.44	379.888
2865.79	403.084
2865.15	391.396
2864.5	399.085
2863.86	406.771
2863.21	383.467
2862.57	340.807
2861.92	356.243
2861.28	398.775
2860.63	418.068
2859.98	398.651
2859.34	402.459
2858.69	417.873
2858.05	452.626
2857.4	425.48
2856.75	502.761
2856.11	440.815
2855.46	467.81
2854.81	452.275
2854.17	494.719
2853.52	510.1
2852.87	475.247
2852.23	467.446
2851.58	502.137
2850.93	529.093
2850.28	544.456
2849.64	575.258
2848.99	602.19
2848.34	567.36
2847.69	590.426
2847.05	644.352
2846.4	632.678
2845.75	621.008
2845.1	651.765
2844.45	597.679
2843.8	593.731
2843.16	620.622
2842.51	651.359
2841.86	624.283
2841.21	566.391
2840.56	604.827
2839.91	485.327
2839.26	531.466
2838.61	504.429
2837.96	450.451
2837.31	411.886
2836.66	419.52
2836.01	296.312
2835.36	361.675
2834.72	334.69
2834.07	292.327
2833.42	299.974
2832.76	238.403
2832.11	226.832
2831.46	234.485
2830.81	211.388
2830.16	268.998
2829.51	203.638
2828.86	195.923
2828.21	195.893
2827.56	199.702
2826.91	188.152
2826.26	161.248
2825.61	184.255
2824.96	161.198
2824.3	115.123
2823.65	199.516
2823	172.631
2822.35	157.262
2821.7	164.907
2821.04	161.047
2820.39	122.684
2819.74	126.498
2819.09	168.637
2818.44	160.947
2817.78	145.596
2817.13	149.404
2816.48	130.229
2815.83	141.698
2815.17	134.018
2814.52	153.14
2813.87	141.632
2813.21	126.301
2812.56	160.721
2811.91	133.914
2811.25	137.718
2810.6	126.222
2809.95	141.5
2809.29	183.538
2808.64	160.571
2807.98	198.771
2807.33	156.699
2806.68	141.389
2806.02	160.471
2805.37	137.525
2804.71	133.684
2804.06	156.577
2803.4	145.098
2802.75	122.168
2802.09	148.869
2801.44	114.497
2800.78	110.663
2800.13	160.246
2799.47	125.888
2798.82	129.682
2798.16	118.221
2797.51	148.707
2796.85	110.56
2796.19	175.343
2795.54	118.148
2794.88	167.667
2794.23	144.781
2793.57	148.568
2792.91	133.309
2792.26	137.097
2791.6	159.921
2790.94	140.861
2790.29	137.032
2789.63	117.982
2788.97	144.6
2788.32	114.14
2787.66	148.359
2787	148.336
2786.34	155.919
2785.69	163.499
2785.03	140.663
2784.37	201.459
2783.71	163.422
2783.06	151.997
2782.4	159.572
2781.74	136.755
2781.08	167.118
2780.42	151.902
2779.76	117.706
2779.11	159.447
2778.45	125.26
2777.79	129.036
2777.13	129.016
2776.47	163.142
2775.81	151.736
2775.15	155.505
2774.49	144.104
2773.83	155.456
2773.17	159.223
2772.51	174.36
2771.86	147.804
2771.2	159.148
2770.54	155.335
2769.88	162.887
2769.22	90.8993
2768.56	140.115
2767.9	159.024
2767.23	155.214
2766.57	151.404
2765.91	147.596
2765.25	151.357
2764.59	189.166
2763.93	177.789
2763.27	155.068
2762.61	170.17
2761.95	132.334
2761.29	143.654
2760.63	188.989
2759.96	151.167
2759.3	154.922
2758.64	132.23
2757.98	158.651
2757.32	139.742
2756.65	158.602
2755.99	139.699
2755.33	173.652
2754.67	139.655
2754.01	177.372
2753.34	169.797
2752.68	150.907
2752.02	150.884
2751.35	158.403
2750.69	188.546
2750.03	199.827
2749.37	173.408
2748.7	154.535
2748.04	146.973
2747.38	177.094
2746.71	173.299
2746.05	177.039
2745.38	192.076
2744.72	203.342
2744.06	192.015
2743.39	199.514
2742.73	207.011
2742.06	184.399
2741.4	188.133
2740.73	195.627
2740.07	195.596
2739.41	206.848
2738.74	214.337
2738.08	187.985
2737.41	139.087
2736.75	161.617
2736.08	154.075
2735.41	180.353
2734.75	169.054
2734.08	199.077
2733.42	165.245
2732.75	165.22
2732.09	180.211
2731.42	165.168
2730.75	153.882
2730.09	198.89
2729.42	213.867
2728.76	172.567
2728.09	187.543
2727.42	191.264
2726.76	179.985
2726.09	187.455
2725.42	239.905
2724.75	224.876
2724.09	187.367
2723.42	176.097
2722.75	213.531
2722.09	220.989
2721.42	220.954
2720.75	190.964
2720.08	235.86
2719.41	213.364
2718.75	164.676
2718.08	202.071
2717.41	213.263
2716.74	194.525
2716.07	224.417
2715.41	224.382
2714.74	183.216
2714.07	216.834
2713.4	220.538
2712.73	220.504
2712.06	220.469
2711.39	231.643
2710.72	216.664
2710.05	179.28
2709.38	220.33
2708.71	168.022
2708.04	194.129
2707.37	179.167
2706.7	212.728
2706.03	175.38
2705.36	190.276
2704.69	201.437
2704.02	208.864
2703.35	178.999
2702.68	227.442
2702.01	171.486
2701.34	253.462
2700.67	227.334
2700	234.751
2699.33	171.378
2698.66	208.602
2697.99	175.049
2697.32	175.022
2696.64	227.12
2695.97	208.471
2695.3	197.272
2694.63	204.684
2693.96	197.21
2693.29	193.458
2692.61	256.664
2691.94	185.959
2691.27	163.618
2690.6	197.054
2689.92	163.567
2689.25	237.878
2688.58	196.961
2687.91	215.509
2687.23	189.469
2686.56	182.01
2685.89	207.979
2685.21	193.093
2684.54	200.488
2683.87	185.608
2683.19	189.29
2682.52	163.284
2681.85	192.941
2681.17	207.75
2680.5	218.845
2679.82	155.763
2679.15	126.074
2678.48	185.374
2677.8	174.224
2677.13	226.085
2676.45	188.992
2675.78	211.194
2675.1	177.819
2674.43	162.975
2673.75	196.28
2673.08	222.169
2672.4	199.921
2671.73	218.397
2671.05	192.455
2670.37	199.826
2669.7	199.795
2669.02	207.162
2668.35	236.719
2667.67	221.889
2667	166.391
2666.32	251.395
2665.64	273.534
2664.97	210.662
2664.29	192.152
2663.61	173.649
2662.94	184.704
2662.26	214.222
2661.58	225.267
2660.91	166.155
2660.23	232.58
2659.55	203.014
2658.87	269.412
2658.2	217.71
2657.52	210.296
2656.84	258.218
2656.16	243.424
2655.49	191.759
2654.81	206.477
2654.13	176.952
2653.45	191.668
2652.77	206.379
2652.09	136.336
2651.42	221.051
2650.74	228.383
2650.06	195.2
2649.38	224.628
2648.7	198.82
2648.02	242.964
2647.34	180.354
2646.66	217.126
2645.98	180.297
2645.3	198.663
2644.62	246.45
2643.94	220.667
2643.26	253.727
2642.58	205.891
2641.9	202.182
2641.22	172.747
2640.54	180.069
2639.86	198.412
2639.18	187.36
2638.5	187.33
2637.82	194.645
2637.14	205.631
2636.46	234.969
2635.78	179.87
2635.1	179.842
2634.42	220.179
2633.73	234.821
2633.05	212.773
2632.37	172.392
2631.69	201.703
2631.01	176.004
2630.33	186.975
2629.64	179.614
2628.96	186.916
2628.28	234.524
2627.6	238.151
2626.91	168.511
2626.23	201.448
2625.55	172.12
2624.87	190.4
2624.18	212.336
2623.5	201.321
2622.82	193.97
2622.13	208.576
2621.45	208.543
2620.77	234.116
2620.08	179.217
2619.4	332.779
2618.72	223.036
2618.03	223.001
2617.35	212
2616.67	215.621
2615.98	190.009
2615.3	193.632
2614.61	204.56
2613.93	281.226
2613.24	226.406
2612.56	226.37
2611.87	222.683
2611.19	197.098
2610.5	197.067
2609.82	233.524
2609.13	233.487
2608.45	266.279
2607.76	218.825
2607.08	229.73
2606.39	222.401
2605.71	200.494
2605.02	229.62
2604.33	218.651
2603.65	211.33
2602.96	189.438
2602.27	207.62
2601.59	171.168
2600.9	225.761
2600.21	211.162
2599.53	222.049
2598.84	254.77
2598.15	221.979
2597.47	200.113
2596.78	210.995
2596.09	218.236
2595.41	214.565
2594.72	199.986
2594.03	174.506
2593.34	189.018
2592.65	214.429
2591.97	207.127
2591.28	210.727
2590.59	232.49
2589.9	225.189
2589.21	246.942
2588.52	203.332
2587.84	225.082
2587.15	243.195
2586.46	264.931
2585.77	257.632
2585.08	214.055
2584.39	279.315
2583.7	243.002
2583.01	199.448
2582.32	235.673
2581.63	210.26
2580.94	253.722
2580.25	271.801
2579.56	213.783
2578.87	253.601
2578.18	239.071
2577.49	170.221
2576.8	213.647
2576.11	224.475
2575.42	199.1
2574.73	238.882
2574.04	238.844
2573.35	213.478
2572.66	249.621
2571.97	206.176
2571.28	198.91
2570.58	216.958
2569.89	202.462
2569.2	231.349
2568.51	206.012
2567.82	209.593
2567.13	216.786
2566.43	234.814
2565.74	220.329
2565.05	241.962
2564.36	238.313
2563.66	205.783
2562.97	245.456
2562.28	220.154
2561.59	248.987
2560.89	238.124
2560.2	266.945
2559.51	266.902
2558.81	205.554
2558.12	219.944
2557.43	248.749
2556.73	212.665
2556.04	191.008
2555.35	248.631
2554.65	187.344
2553.96	187.314
2553.26	212.496
2552.57	198.058
2551.88	244.833
2551.18	262.793
2550.49	219.559
2549.79	215.926
2549.1	241.079
2548.4	237.443
2547.71	230.211
2547.01	233.771
2546.32	251.713
2545.62	233.696
2544.93	183.332
2544.23	230.028
2543.53	240.772
2542.84	219.175
2542.14	262.25
2541.45	255.024
2540.75	219.071
2540.05	236.989
2539.36	236.952
2538.66	226.145
2537.97	254.821
2537.27	215.308
2536.57	200.922
2535.88	222.414
2535.18	215.205
2534.48	197.24
2533.78	215.136
2533.09	233.027
2532.39	243.743
2531.69	279.544
2530.99	257.999
2530.3	272.289
2529.6	207.766
2528.9	265.039
2528.2	204.119
2527.5	232.73
2526.81	236.273
2526.11	289.925
2525.41	254.092
2524.71	264.786
2524.01	325.563
2523.31	193.16
2522.61	228.894
2521.91	239.585
2521.21	264.575
2520.52	318.154
2519.82	293.084
2519.12	192.976
2518.42	242.967
2517.72	250.074
2517.02	257.178
2516.32	257.137
2515.62	296.374
2514.92	249.914
2514.22	232.026
2513.52	296.232
2512.82	239.089
2512.11	242.619
2511.41	246.147
2510.71	292.476
2510.01	231.804
2509.31	235.333
2508.61	263.816
2507.91	235.257
2507.21	231.656
2506.5	242.309
2505.8	277.898
2505.1	299.227
2504.4	274.248
2503.7	284.887
2503	242.116
2502.29	252.757
2501.59	224.241
2500.89	245.559
2500.19	273.985
2499.48	256.153
2498.78	252.555
2498.08	220.506
2497.37	270.254
2496.67	248.879
2495.97	231.065
2495.26	245.245
2494.56	241.652
2493.86	255.826
2493.15	234.47
2492.45	216.672
2491.75	252.152
2491.04	220.154
2490.34	230.769
2489.63	262.68
2488.93	283.933
2488.22	244.853
2487.52	308.678
2486.81	315.724
2486.11	237.642
2485.41	244.696
2484.7	219.837
2483.99	248.163
2483.29	233.945
2482.58	258.716
2481.88	265.762
2481.17	297.606
2480.47	294.016
2479.76	265.634
2479.06	233.721
2478.35	244.305
2477.64	251.346
2476.94	258.385
2476.23	251.266
2475.52	251.226
2474.82	247.648
2474.11	258.22
2473.4	268.788
2472.7	251.065
2471.99	229.811
2471.28	258.054
2470.57	247.41
2469.87	296.844
2469.16	289.73
2468.45	282.618
2467.74	264.912
2467.04	264.87
2466.33	271.889
2465.62	233.011
2464.91	257.683
2464.2	292.935
2463.5	271.715
2462.79	278.728
2462.08	285.739
2461.37	204.57
2460.66	253.909
2459.95	200.979
2459.24	243.251
2458.53	260.836
2457.82	274.891
2457.11	236.087
2456.4	302.988
2455.69	253.624
2454.99	257.105
2454.28	281.714
2453.57	292.231
2452.85	260.502
2452.14	267.499
2451.43	278.014
2450.72	246.302
2450.01	256.817
2449.3	291.95
2448.59	253.217
2447.88	288.34
2447.17	274.231
2446.46	298.793
2445.75	340.921
2445.04	263.557
2444.32	263.514
2443.61	284.55
2442.9	295.041
2442.19	291.482
2441.48	287.924
2440.76	344.049
2440.05	347.504
2439.34	361.487
2438.63	287.739
2437.92	301.727
2437.2	287.647
2436.49	319.167
2435.78	284.048
2435.06	315.558
2434.35	245.395
2433.64	266.386
2432.92	245.316
2432.21	269.804
2431.5	297.788
2430.78	266.214
2430.07	287.185
2429.36	315.153
2428.64	255.583
2427.93	255.542
2427.21	266.001
2426.5	279.956
2425.78	293.906
2425.07	255.378
2424.35	293.812
2423.64	314.748
2422.92	307.704
2422.21	328.631
2421.49	332.074
2420.78	300.566
2420.06	265.573
2419.35	272.518
2418.63	275.968
2417.92	331.807
2417.2	261.911
2416.48	237.427
2415.77	268.808
2415.05	300.179
2414.34	286.171
2413.62	254.721
2412.9	261.658
2412.19	299.986
2411.47	282.5
2410.75	271.993
2410.04	292.868
2409.32	271.905
2408.6	327.628
2407.88	230
2407.17	282.227
2406.45	289.149
2405.73	289.103
2405.01	285.573
2404.29	302.938
2403.58	257.63
2402.86	327.207
2402.14	292.35
2401.42	320.142
2400.7	330.528
2399.98	288.73
2399.27	316.509
2398.55	271.25
2397.83	264.252
2397.11	281.592
2396.39	333.684
2395.67	302.353
2394.95	319.678
2394.23	333.523
2393.51	316.101
2392.79	288.266
2392.07	309.054
2391.35	302.061
2390.63	284.655
2389.91	267.255
2389.19	329.677
2388.47	298.396
2387.75	326.101
2387.03	280.957
2386.31	256.635
2385.59	322.476
2384.87	308.557
2384.14	259.978
2383.42	270.333
2382.7	308.407
2381.98	332.61
2381.26	315.236
2380.54	322.112
2379.82	349.765
2379.09	318.546
2378.37	356.576
2377.65	301.137
2376.93	290.706
2376.2	290.659
2375.48	349.426
2374.76	283.647
2374.04	293.977
2373.31	311.219
2372.59	307.712
2371.87	349.144
2371.14	304.156
2370.42	311.018
2369.7	293.692
2368.97	310.918
2368.25	279.781
2367.52	334.992
2366.8	307.314
2366.08	324.527
2365.35	324.475
2364.63	320.971
2363.9	351.976
2363.18	286.365
2362.45	331.164
2361.73	251.782
2361	324.16
2360.28	331.004
2359.55	358.53
2358.83	361.918
2358.1	320.505
2357.38	313.561
2356.65	299.73
2355.93	296.237
2355.2	320.297
2354.47	358.124
2353.75	289.207
2353.02	340.797
2352.3	306.323
2351.57	282.185
2350.84	316.546
2350.12	337.136
2349.39	354.28
2348.66	285.441
2347.94	285.395
2347.21	295.663
2346.48	333.426
2345.75	323.062
2345.03	305.828
2344.3	343.572
2343.57	295.424
2342.84	305.68
2342.11	305.63
2341.39	315.881
2340.66	339.861
2339.93	326.076
2339.2	322.592
2338.47	356.852
2337.74	329.349
2337.02	343.016
2336.29	349.82
2335.56	360.05
2334.83	305.136
2334.1	318.799
2333.37	318.747
2332.64	322.122
2331.91	308.365
2331.18	301.464
2330.45	335.666
2329.72	297.941
2328.99	332.134
2328.26	311.539
2327.53	335.449
2326.8	335.395
2326.07	352.45
2325.34	325.022
2324.61	314.707
2323.88	345.438
2323.14	348.802
2322.41	311.135
2321.68	348.689
2320.95	300.781
2320.22	338.323
2319.49	338.269
2318.76	321.132
2318.02	334.743
2317.29	348.35
2316.56	310.732
2315.83	310.682
2315.1	334.526
2314.36	392.493
2313.63	361.717
2312.9	385.542
2312.16	388.89
2311.43	375.184
2310.7	368.303
2309.97	327.327
2309.23	354.547
2308.5	337.447
2307.76	316.944
2307.03	361.19
2306.3	344.096
2305.56	344.041
2304.83	313.333
2304.1	330.308
2303.36	350.683
2302.63	313.18
2301.89	323.34
2301.16	330.094
2300.42	330.04
2299.69	360.604
2298.95	363.947
2298.22	326.479
2297.48	380.83
2296.75	316.174
2296.01	394.303
2295.28	367.05
2294.54	363.592
2293.8	336.353
2293.07	380.459
2292.33	404.172
2291.6	356.565
2290.86	332.74
2290.12	380.212
2289.39	332.631
2288.65	308.822
2287.91	373.241
2287.18	312.114
2286.44	386.687
2285.7	390.016
2284.97	362.825
2284.23	342.424
2283.49	335.589
2282.75	362.648
2282.01	342.257
2281.28	372.695
2280.54	382.797
2279.8	409.831
2279.06	358.967
2278.32	365.681
2277.59	392.704
2276.85	345.253
2276.11	395.961
2275.37	375.594
2274.63	321.402
2273.89	314.585
2273.15	358.501
2272.41	361.824
2271.67	375.289
2270.93	321.141
2270.19	354.888
2269.45	405.52
2268.71	351.393
2267.97	385.118
2267.23	398.566
2266.49	408.633
2265.75	415.32
2265.01	408.5
2264.27	408.434
2263.53	391.492
2262.79	404.926
2262.05	408.234
2261.31	414.914
2260.57	438.456
2259.83	381.057
2259.09	337.164
2258.34	370.82
2257.6	387.612
2256.86	427.989
2256.12	326.836
2255.38	384.054
2254.63	363.781
2253.89	414.239
2253.15	420.906
2252.41	363.604
2251.66	350.08
2250.92	380.313
2250.18	366.791
2249.43	386.918
2248.69	376.763
2247.95	396.882
2247.21	359.826
2246.46	390.028
2245.72	319.368
2244.97	386.54
2244.23	399.92
2243.49	436.816
2242.74	416.587
2242	396.365
2241.25	436.602
2240.51	426.457
2239.76	379.384
2239.02	402.82
2238.27	355.766
2237.53	392.622
2236.78	463.017
2236.04	436.104
2235.29	352.18
2234.55	452.729
2233.8	432.537
2233.06	395.59
2232.31	395.525
2231.57	469.191
2230.82	395.396
2230.07	361.829
2229.33	408.666
2228.58	385.155
2227.83	375.046
2227.09	428.554
2226.34	348.144
2225.59	394.945
2224.85	431.691
2224.1	401.508
2223.35	414.823
2222.6	367.928
2221.86	384.59
2221.11	377.839
2220.36	437.955
2219.61	387.744
2218.87	394.365
2218.12	380.934
2217.37	387.554
2216.62	380.81
2215.87	440.865
2215.12	384.025
2214.37	393.978
2213.63	367.208
2212.88	403.863
2212.13	383.774
2211.38	437.097
2210.63	423.681
2209.88	403.599
2209.13	373.518
2208.38	366.788
2207.63	390.065
2206.88	373.335
2206.13	373.274
2205.38	419.864
2204.63	403.137
2203.88	406.402
2203.13	376.36
2202.38	396.279
2201.63	419.521
2200.88	399.478
2200.12	419.384
2199.37	382.708
2198.62	409.264
2197.87	412.524
2197.12	419.109
2196.37	375.806
2195.62	415.647
2194.86	392.306
2194.11	458.724
2193.36	418.766
2192.61	428.667
2191.85	441.886
2191.1	478.355
2190.35	425.135
2189.6	458.274
2188.84	451.558
2188.09	438.205
2187.34	365.111
2186.58	401.556
2185.83	401.491
2185.08	411.378
2184.32	437.846
2183.57	457.673
2182.82	457.599
2182.06	497.308
2181.31	467.393
2180.55	384.459
2179.8	440.73
2179.04	397.586
2178.29	443.898
2177.53	437.201
2176.78	483.492
2176.02	433.747
2175.27	436.986
2174.51	417.055
2173.76	460.009
2173	453.316
2172.25	403.616
2171.49	420.089
2170.74	486.165
2169.98	499.312
2169.22	476.087
2168.47	449.564
2167.71	475.931
2166.95	469.244
2166.2	419.607
2165.44	436.056
2164.68	445.893
2163.93	442.517
2163.17	432.539
2162.41	465.481
2161.65	452.202
2160.9	468.629
2160.14	448.754
2159.38	494.868
2158.62	405.725
2157.87	445.235
2157.11	402.294
2156.35	497.84
2155.59	481.276
2154.83	444.942
2154.07	497.595
2153.31	448.091
2152.56	500.725
2151.8	431.475
2151.04	408.352
2150.28	503.771
2149.52	411.51
2148.76	398.277
2148	421.248
2147.24	467.245
2146.48	430.98
2145.72	460.513
2144.96	443.993
2144.2	460.362
2143.44	466.862
2142.68	496.37
2141.92	453.562
2141.16	463.345
2140.4	459.984
2139.64	469.763
2138.87	492.678
2138.11	495.881
2137.35	492.516
2136.59	423.494
2135.83	479.224
2135.07	462.736
2134.31	403.597
2133.54	433.058
2132.78	449.387
2132.02	426.356
2131.26	429.565
2130.49	419.658
2129.73	501.54
2128.97	452.295
2128.21	448.944
2127.44	501.293
2126.68	524.142
2125.92	517.505
2125.15	507.595
2124.39	497.689
2123.63	500.881
2122.86	468.066
2122.1	500.716
2121.33	481.001
2120.57	526.724
2119.81	500.469
2119.04	480.763
2118.28	474.144
2117.51	523.107
2116.75	496.87
2115.98	441.226
2115.22	532.652
2114.45	506.426
2113.69	519.41
2112.92	480.13
2112.16	493.114
2111.39	538.744
2110.62	506.009
2109.86	509.19
2109.09	453.627
2108.33	486.182
2107.56	482.839
2106.79	557.783
2106.03	551.168
2105.26	564.121
2104.49	550.987
2103.73	485.701
2102.96	482.362
2102.19	514.869
2101.42	501.751
2100.66	462.578
2099.89	511.357
2099.12	547.095
2098.35	599.1
2097.59	569.702
2096.82	507.765
2096.05	530.462
2095.28	533.628
2094.51	527.034
2093.74	543.21
2092.98	510.599
2092.21	494.256
2091.44	585.207
2090.67	546.103
2089.9	523.262
2089.13	529.675
2088.36	523.089
2087.59	516.506
2086.82	548.9
2086.05	552.057
2085.28	470.794
2084.51	522.658
2083.74	532.309
2082.97	580.9
2082.2	571.07
2081.43	515.824
2080.66	515.739
2079.89	499.438
2079.12	544.752
2078.35	515.484
2077.57	521.881
2076.8	486.145
2076.03	524.949
2075.26	502.184
2074.49	576.606
2073.72	553.839
2072.94	521.364
2072.17	579.558
2071.4	527.666
2070.63	579.366
2069.86	553.381
2069.08	572.703
2068.31	537.023
2067.54	585.452
2066.76	565.951
2065.99	582.025
2065.22	526.969
2064.44	526.882
2063.67	513.867
2062.9	546.096
2062.12	607.391
2061.35	604.06
2060.58	571.663
2059.8	607.089
2059.03	587.617
2058.25	581.063
2057.48	626.154
2056.7	609.915
2055.93	651.759
2055.15	635.521
2054.38	632.19
2053.6	557.912
2052.83	567.493
2052.05	609.309
2051.28	596.315
2050.5	612.331
2049.72	634.785
2048.95	608.906
2048.17	563.709
2047.4	605.484
2046.62	608.604
2045.84	663.236
2045.07	627.716
2044.29	627.613
2043.51	585.675
2042.74	633.84
2041.96	620.867
2041.18	652.928
2040.4	656.036
2039.63	668.788
2038.85	620.456
2038.07	610.71
2037.29	623.464
2036.52	649.066
2035.74	648.958
2034.96	613.517
2034.18	690.494
2033.4	690.38
2032.62	619.633
2031.84	632.371
2031.07	648.313
2030.29	670.668
2029.51	603.181
2028.73	625.536
2027.95	657.505
2027.17	727.946
2026.39	670.112
2025.61	724.499
2024.83	717.968
2024.05	672.984
2023.27	676.076
2022.49	672.76
2021.71	698.274
2020.93	794.234
2020.15	710.85
2019.37	704.329
2018.59	694.609
2017.8	713.697
2017.02	710.378
2016.24	700.662
2015.46	700.546
2014.68	719.62
2013.9	770.664
2013.11	741.761
2012.33	703.278
2011.55	754.3
2010.77	699.848
2009.99	741.269
2009.2	817.816
2008.42	785.739
2007.64	740.9
2006.85	779.093
2006.07	759.808
2005.29	702.227
2004.5	781.896
2003.72	769.002
2002.94	765.684
2002.15	743.228
2001.37	768.619
2000.59	787.624
1999.8	832.128
1999.02	800.113
1998.23	793.606
1997.45	863.58
1996.66	777.411
1995.88	796.395
1995.09	758.042
1994.31	732.44
1993.52	751.422
1992.74	802.233
1991.95	903.953
1991.17	852.885
1990.38	798.651
1989.6	839.875
1988.81	757.035
1988.02	855.498
1987.24	874.434
1986.45	855.213
1985.67	855.071
1984.88	854.928
1984.09	899.273
1983.3	883.238
1982.52	879.914
1981.73	908.352
1980.94	876.446
1980.16	895.35
1979.37	930.12
1978.58	898.226
1977.79	894.903
1977.01	904.273
1976.22	967.569
1975.43	929.346
1974.64	967.247
1973.85	900.5
1973.06	900.35
1972.27	938.236
1971.49	884.204
1970.7	947.43
1969.91	937.768
1969.12	956.617
1968.33	962.792
1967.54	943.632
1966.75	946.641
1965.96	968.642
1965.17	984.305
1964.38	1006.29
1963.59	1031.44
1962.8	1062.9
1962.01	1107
1961.22	1043.57
1960.43	986.483
1959.64	1021.09
1958.85	1014.6
1958.06	1039.71
1957.26	1026.9
1956.47	1086.75
1955.68	1023.4
1954.89	1013.76
1954.1	1054.63
1953.31	1007.1
1952.51	1145.82
1951.72	1151.94
1950.93	1148.6
1950.14	1148.4
1949.34	1034.65
1948.55	1081.79
1947.76	1037.46
1946.97	1049.9
1946.17	1071.79
1945.38	1090.52
1944.59	1099.79
1943.79	1093.31
1943	1105.73
1942.21	1067.75
1941.41	1108.51
1940.62	1130.36
1939.82	1117.58
1939.03	1107.95
1938.24	1117.21
1937.44	1107.58
1936.65	1208.07
1935.85	1116.65
1935.06	1147.91
1934.26	1119.42
1933.47	1194.69
1932.67	1181.91
1931.88	1125.14
1931.08	1131.24
1930.28	1203.31
1929.49	1115.16
1928.69	1240.6
1927.9	1205.85
1927.1	1180.53
1926.3	1255.68
1925.51	1211.52
1924.71	1255.26
1923.91	1189.16
1923.12	1138.76
1922.32	1248.35
1921.52	1260.69
1920.73	1200.9
1919.93	1260.27
1919.13	1175.43
1918.33	1181.5
1917.53	1247.1
1916.74	1259.42
1915.94	1187.17
1915.14	1271.53
1914.34	1296.37
1913.54	1242.93
1912.74	1111.25
1911.95	1220.6
1911.15	1239.17
1910.35	1314.06
1909.55	1260.66
1908.75	1329.25
1907.95	1207.07
1907.15	1238.14
1906.35	1291.07
1905.55	1262.73
1904.75	1259.39
1903.95	1281.05
1903.15	1208.99
1902.35	1327.47
1901.55	1189.84
1900.75	1330.15
1899.95	1255
1899.15	1261.04
1898.35	1360.69
1897.54	1319.9
1896.74	1294.72
1895.94	1322.58
1895.14	1291.17
1894.34	1353.32
1893.54	1340.62
1892.73	1284.28
1891.93	1340.17
1891.13	1324.36
1890.33	1352.18
1889.53	1351.96
1888.72	1317.47
1887.92	1311.02
1887.12	1292.12
1886.31	1291.9
1885.51	1329.04
1884.71	1431.51
1883.9	1365.93
1883.1	1359.48
1882.3	1334.37
1881.49	1415
1880.69	1274.84
1879.88	1364.78
1879.08	1364.55
1878.28	1320.82
1877.47	1438.67
1876.67	1323.48
1875.86	1444.4
1875.06	1375.83
1874.25	1400.44
1873.45	1356.74
1872.64	1409.28
1871.84	1365.6
1871.03	1405.71
1870.22	1374.45
1869.42	1368.01
1868.61	1386.39
1867.81	1451.28
1867	1395.23
1866.19	1401.19
1865.39	1416.45
1864.58	1388.33
1863.77	1354.01
1862.97	1359.98
1862.16	1449.57
1861.35	1337.84
1860.54	1483.15
1859.74	1402.41
1858.93	1426.93
1858.12	1374.08
1857.31	1432.64
1856.51	1364.34
1855.7	1429.07
1854.89	1478.31
1854.08	1397.67
1853.27	1462.36
1852.46	1477.57
1851.65	1430.96
1850.84	1362.73
1850.04	1495.36
1849.23	1390.08
1848.42	1460.88
1847.61	1454.46
1846.8	1386.29
1845.99	1395.32
1845.18	1459.9
1844.37	1336.21
1843.56	1400.78
1842.75	1397.46
1841.94	1403.4
1841.13	1461.75
1840.31	1421.42
1839.5	1381.11
1838.69	1498
1837.88	1460.77
1837.07	1429.71
1836.26	1417.15
1835.45	1518.56
1834.64	1416.67
1833.82	1407.2
1833.01	1508.55
1832.2	1465.21
1831.39	1421.87
1830.57	1412.4
1829.76	1467.54
1828.95	1350.4
1828.14	1445.52
1827.32	1488.33
1826.51	1451.18
1825.7	1463.23
1824.88	1407.66
1824.07	1367.48
1823.26	1397.97
1822.44	1508.33
1821.63	1474.29
1820.81	1520.1
1820	1467.65
1819.19	1399.86
1818.37	1503.99
1817.56	1387.12
1816.74	1408.36
1815.93	1466.41
1815.11	1469.23
1814.3	1518.05
1813.48	1481
1812.67	1477.69
1811.85	1501.96
1811.03	1507.84
1810.22	1464.68
1809.4	1406.23
1808.59	1451.94
1807.77	1509.88
1806.95	1463.69
1806.14	1497.12
1805.32	1472.38
1804.5	1521.1
1803.69	1496.37
1802.87	1444.1
1802.05	1495.86
1801.24	1419.15
1800.42	1483.12
1799.6	1470.64
1798.78	1421.49
1797.96	1467.09
1797.15	1537.13
1796.33	1555.2
1795.51	1597.71
1794.69	1527.19
1793.87	1441.42
1793.05	1386.22
1792.23	1474.52
1791.42	1489.53
1790.6	1516.74
1789.78	1467.67
1788.96	1400.3
1788.14	1458.02
1787.32	1524.87
1786.5	1512.41
1785.68	1454.23
1784.86	1472.28
1784.04	1490.31
1783.22	1560.15
1782.4	1477.62
1781.58	1428.63
1780.76	1571.54
1779.93	1434.24
1779.11	1485.76
1778.29	1470.29
1777.47	1442.65
1776.65	1460.66
1775.83	1542.56
1775.01	1514.92
1774.18	1426.46
1773.36	1429.26
1772.54	1523.27
1771.72	1477.42
1770.89	1607.86
1770.07	1601.51
1769.25	1461.48
1768.43	1503.76
1767.6	1552.1
1766.78	1533.62
1765.96	1588.01
1765.13	1551.31
1764.31	1599.62
1763.49	1569
1762.66	1596.04
1761.84	1692.85
1761.01	1601.57
1760.19	1561.87
1759.36	1500.96
1758.54	1561.34
1757.72	1485.3
1756.89	1545.66
1756.07	1545.4
1755.24	1581.49
1754.41	1656.95
1753.59	1614.27
1752.76	1614
1751.94	1601.61
1751.11	1619.5
1750.29	1649.5
1749.46	1555.41
1748.63	1582.37
1747.81	1691.01
1746.98	1618.13
1746.15	1524.11
1745.33	1629.68
1744.5	1571.96
1743.67	1547.52
1742.85	1625.83
1742.02	1613.47
1741.19	1652.46
1740.36	1585.73
1739.54	1552.25
1738.71	1666.72
1737.88	1630.21
1737.05	1599.75
1736.22	1614.57
1735.39	1620.33
1734.57	1695.48
1733.74	1592.63
1732.91	1679.82
1732.08	1712.71
1731.25	1646.09
1730.42	1715.14
1729.59	1675.67
1728.76	1636.21
1727.93	1714.27
1727.1	1641.68
1726.27	1581.17
1725.44	1668.22
1724.61	1622.78
1723.78	1574.34
1722.95	1715.53
1722.12	1655.05
1721.29	1642.74
1720.46	1696.61
1719.62	1642.18
1718.79	1644.91
1717.96	1623.58
1717.13	1629.32
1716.3	1668.12
1715.47	1682.86
1714.63	1658.53
1713.8	1661.26
1712.97	1694.01
1712.14	1711.74
1711.31	1672.42
1710.47	1792.22
1709.64	1716.87
1708.81	1692.57
1707.97	1728.29
1707.14	1776
1706.31	1823.69
1705.47	1715.42
1704.64	1703.13
1703.81	1681.85
1702.97	1786.48
1702.14	1741.22
1701.3	1701.97
1700.47	1782.57
1699.63	1821.21
1698.8	1772.98
1697.96	1850.53
1697.13	1820.28
1696.29	1697.24
1695.46	1774.77
1694.62	1846.28
1693.79	1848.96
1692.95	1821.72
1692.12	1776.55
1691.28	1830.07
1690.44	1826.77
1689.61	1841.41
1688.77	1805.23
1687.93	1784
1687.1	1729.92
1686.26	1870.03
1685.42	1815.95
1684.59	1797.72
1683.75	1773.53
1682.91	1886.66
1682.07	1790.83
1681.24	1877.07
1680.4	1820.06
1679.56	1948.02
1678.72	1899.97
1677.88	1810.18
1677.05	1797.95
1676.21	1830.43
1675.37	1773.49
1674.53	1823.85
1673.69	1948.68
1672.85	1924.52
1672.01	1968.87
1671.17	1995.33
1670.33	1994.99
1669.49	1893.43
1668.65	1768.09
1667.81	1806.48
1666.97	1895.44
1666.13	1921.89
1665.29	1862.07
1664.45	1948
1663.61	1911.99
1662.77	1965.18
1661.93	1831.08
1661.09	1890.21
1660.25	1910.68
1659.4	1889.56
1658.56	1921.91
1657.72	1921.59
1656.88	1879.68
1656.04	2075.32
1655.19	1985.91
1654.35	1878.72
1653.51	1914.01
1652.67	1958.19
1651.82	1999.38
1650.98	1987.18
1650.14	1933.46
1649.3	1903.48
1648.45	1947.62
1647.61	1997.68
1646.77	2098.09
1645.92	2044.4
1645.08	2008.5
1644.23	2043.7
1643.39	1918.98
1642.54	2060.77
1641.7	2081.14
1640.86	1932.79
1640.01	1935.42
1639.17	2029.77
1638.32	2029.43
1637.48	2061.61
1636.63	1984.37
1635.78	2022.47
1634.94	2063.51
1634.09	2039.51
1633.25	2039.17
1632.4	2021.09
1631.56	2053.24
1630.71	2106.06
1629.86	2138.18
1629.02	2034.47
1628.17	2045.93
1627.32	2063.29
1626.47	2042.28
1625.63	2030.13
1624.78	2053.38
1623.93	2091.38
1623.09	2129.36
1622.24	1963.86
1621.39	2066.72
1620.54	2013.3
1619.69	2092.53
1618.84	2092.18
1618	2138.96
1617.15	2076.73
1616.3	2076.38
1615.45	2093.69
1614.6	2034.45
1613.75	2163.62
1612.9	2051.41
1612.05	2054
1611.2	2059.53
1610.35	2141.55
1609.5	2129.41
1608.65	2131.99
1607.8	2111.04
1606.95	2110.68
1606.1	2069.17
1605.25	2045.31
1604.4	2100.78
1603.55	2153.3
1602.7	2158.81
1601.85	2208.36
1600.99	2143.39
1600.14	2084.3
1599.29	2163.2
1598.44	2250.86
1597.59	2224.07
1596.74	2200.22
1595.88	2111.85
1595.03	2152.54
1594.18	2169.77
1593.32	2172.33
1592.47	2207.13
1591.62	2083.66
1590.77	2115.54
1589.91	2156.19
1589.06	2123.6
1588.21	2211.09
1587.35	2222.42
1586.5	2192.77
1585.64	2195.32
1584.79	2136.41
1583.93	2241.38
1583.08	2229.29
1582.23	2190.89
1581.37	2272.4
1580.52	2125.8
1579.66	2154.67
1578.81	2189.38
1577.95	2314.68
1577.09	2206.16
1576.24	2246.69
1575.38	2252.14
1574.53	2257.6
1573.67	2204.65
1572.81	2248.06
1571.96	2151.35
1571.1	2186
1570.24	2185.62
1569.39	2339.88
1568.53	2278.22
1567.67	2347.82
1566.82	2207.45
1565.96	2236.23
1565.1	2157.14
1564.24	2407.42
1563.39	2220.5
1562.53	2327.92
1561.67	2211
1560.81	2245.57
1559.95	2224.8
1559.09	2218.59
1558.23	2360.85
1557.38	2177.08
1556.52	2252.37
1555.66	2350.91
1554.8	2327.23
1553.94	2332.65
1553.08	2294.44
1552.22	2235.89
1551.36	2273.3
1550.5	2307.79
1549.64	2356.79
1548.78	2196.58
1547.92	2306.6
1547.06	2297.49
1546.2	2302.9
1545.34	2267.66
1544.47	2334.04
1543.61	2319.12
1542.75	2411.59
1541.89	2321.23
1541.03	2288.92
1540.17	2320.43
1539.3	2459.23
1538.44	2392.12
1537.58	2348.22
1536.72	2286.95
1535.85	2387.98
1534.99	2384.67
1534.13	2314.73
1533.27	2311.44
1532.4	2357.38
1531.54	2316.43
1530.68	2426.05
1529.81	2408.26
1528.95	2344.18
1528.08	2352.45
1527.22	2349.15
1526.36	2331.39
1525.49	2388.83
1524.63	2414.44
1523.76	2338.86
1522.9	2318.22
1522.03	2375.62
1521.17	2378.1
1520.3	2386.36
1519.44	2342.62
1518.57	2350.88
1517.7	2376.46
1516.84	2413.59
1515.97	2366.98
1515.11	2346.37
1514.24	2331.54
1513.37	2368.64
1512.51	2342.27
1511.64	2552.41
1510.77	2384.72
1509.91	2421.79
1509.04	2453.08
1508.17	2426.71
1507.3	2400.36
1506.44	2495.02
1505.57	2310.23
1504.7	2540.24
1503.83	2430.38
1502.96	2401.17
1502.09	2449.69
1501.23	2472.29
1500.36	2575.46
1499.49	2540.49
1498.62	2491.15
1497.75	2404.43
1496.88	2481.66
1496.01	2458.23
1495.14	2483.68
1494.27	2468.88
1493.4	2439.71
1492.53	2525.48
1491.66	2470.47
1490.79	2447.06
1489.92	2529.92
1489.05	2584.03
1488.18	2577.84
1487.31	2603.23
1486.44	2554
1485.56	2587.98
1484.69	2541.64
1483.82	2489.57
1482.95	2632.52
1482.08	2683.68
1481.21	2643.08
1480.33	2493.58
1479.46	2630.7
1478.59	2615.92
1477.72	2701.41
1476.84	2549.14
1475.97	2620.29
1475.1	2688.55
1474.22	2676.64
1473.35	2684.76
1472.48	2695.74
1471.6	2603.72
1470.73	2732
1469.85	2803.03
1468.98	2765.37
1468.11	2773.47
1467.23	2813.01
1466.36	2869.69
1465.48	2917.77
1464.61	2831.55
1463.73	2848.2
1462.86	2816.29
1461.98	2930.03
1461.11	2972.35
1460.23	2997.53
1459.35	3025.55
1458.48	3093.52
1457.6	2901.81
1456.73	2992.6
1455.85	3054.83
1454.97	3077.12
1454.1	2948.27
1453.22	2916.4
1452.34	2910.2
1451.46	2875.49
1450.59	2917.73
1449.71	3059.67
1448.83	3193.01
1447.95	3141.2
1447.08	3123.57
1446.2	3179.97
1445.32	3153.8
1444.44	3102.02
1443.56	3095.79
1442.68	3120.86
1441.81	3217.03
1440.93	3267.66
1440.05	3301.21
1439.17	3303.48
1438.29	3234.69
1437.41	3342.12
1436.53	3315.97
1435.65	3164.83
1434.77	3206.88
1433.89	3209.17
1433.01	3245.52
1432.13	3148.43
1431.25	3238.72
1430.37	3141.66
1429.48	3055.99
1428.6	3041.28
1427.72	3035.07
1426.84	3051.56
1425.96	3141.77
1425.08	3059.01
1424.19	2990.45
1423.31	3021.1
1422.43	3006.41
1421.55	3045.55
1420.67	3062.02
1419.78	3149.28
1418.9	3109.09
1418.02	3159.51
1417.13	3119.33
1416.25	3342.37
1415.37	3197.47
1414.48	3191.26
1413.6	3151.1
1412.71	3142.07
1411.83	3101.94
1410.95	3112.71
1410.06	3064.11
1409.18	3108.8
1408.29	3139.34
1407.41	3073.81
1406.52	3107.17
1405.64	3171.59
1404.75	3072.21
1403.87	3009.56
1402.98	3124.77
1402.1	3079.07
1401.21	3039.03
1400.32	3111.85
1399.44	3069
1398.55	3195.38
1397.66	3155.35
1396.78	3070.22
1395.89	3171.16
1395	3381.98
1394.12	3153.15
1393.23	3237.12
1392.34	3064.73
1391.45	3100.81
1390.57	3170.66
1389.68	3198.26
1388.79	3099.19
1387.9	3121.16
1387.01	3145.94
1386.12	3120.07
1385.24	3156.1
1384.35	3276.48
1383.46	3295.59
1382.57	3151.64
1381.68	3221.36
1380.79	3136.48
1379.9	3110.65
1379.01	3076.39
1378.12	3123.61
1377.23	3052.85
1376.34	3024.24
1375.45	3048.98
1374.56	3090.55
1373.67	3115.27
1372.78	3128.76
1371.89	3080.52
1370.99	3110.84
1370.1	3023.35
1369.21	3185.46
1368.32	3075.56
1367.43	2954.49
1366.54	3096.91
1365.64	3054.34
1364.75	3045.4
1363.86	3014.06
1362.97	2993.92
1362.07	2957
1361.18	2858.49
1360.29	2983.96
1359.39	2991.83
1358.5	2949.34
1357.61	2862.09
1356.71	2822.43
1355.82	2852.7
1354.93	2902.54
1354.03	2851.71
1353.14	2820.46
1352.24	2817.17
1351.35	2744.03
1350.45	2729.58
1349.56	2709.55
1348.66	2703.49
1347.77	2730.94
1346.87	2752.8
1345.98	2757.9
1345.08	2696.02
1344.18	2639.74
1343.29	2533.26
1342.39	2613.71
1341.5	2641.14
1340.6	2551.45
1339.7	2626.28
1338.81	2581.22
1337.91	2505.52
1337.01	2435.42
1336.11	2379.27
1335.22	2495.85
1334.32	2367.3
1333.42	2386.37
1332.52	2374.82
1331.63	2477.4
1330.73	2340.59
1329.83	2315.14
1328.93	2345.34
1328.03	2317.11
1327.13	2344.52
1326.23	2302.39
1325.33	2224.15
1324.43	2296.03
1323.53	2203.91
1322.64	2317.45
1321.74	2125.35
1320.84	2152.76
1319.94	2196.81
1319.03	2160.33
1318.13	2126.64
1317.23	1954.17
1316.33	1878.89
1315.43	2050.6
1314.53	1936.49
1313.63	1991.63
1312.73	2080.03
1311.83	1960.43
1310.92	2026.62
1310.02	1945.88
1309.12	1928.91
1308.22	1870.39
1307.32	1969.79
1306.41	1977.76
1305.51	1891.56
1304.61	1891.23
1303.71	1838.29
1302.8	1851.81
1301.9	1895.77
1301	1865
1300.09	1908.93
1299.19	1941.79
1298.28	1841.89
1297.38	2013
1296.48	2112.18
1295.57	2247.25
1294.67	2293.84
1293.76	2332.12
1292.86	2157.66
1291.95	1997.07
1291.05	1855.88
1290.14	1734.06
1289.24	1681.3
1288.33	1631.32
1287.42	1622.75
1286.52	1611.43
1285.61	1611.15
1284.71	1621.9
1283.8	1583
1282.89	1519.3
1281.99	1496.98
1281.08	1521.53
1280.17	1485.43
1279.26	1487.93
1278.36	1465.63
1277.45	1432.31
1276.54	1462.36
1275.63	1541.95
1274.72	1486.62
1273.82	1502.87
1272.91	1519.12
1272	1507.85
1271.09	1469.07
1270.18	1512.82
1269.27	1468.55
1268.36	1479.29
1267.45	1556.01
1266.54	1393.56
1265.64	1415.3
1264.73	1483.75
1263.82	1450.52
1262.91	1411.81
1261.99	1474.72
1261.08	1521.14
1260.17	1592.25
1259.26	1493.16
1258.35	1476.43
1257.44	1443.25
1256.53	1382.64
1255.62	1379.65
1254.71	1338.27
1253.79	1327.07
1252.88	1324.1
1251.97	1375.94
1251.06	1394.88
1250.15	1334.36
1249.23	1347.82
1248.32	1413.32
1247.41	1374.73
1246.49	1336.15
1245.58	1308.54
1244.67	1330.21
1243.75	1368.29
1242.84	1329.74
1241.93	1324.03
1241.01	1397.65
1240.1	1279.81
1239.18	1274.12
1238.27	1328.57
1237.35	1276.4
1236.44	1317.17
1235.53	1273.22
1234.61	1289.39
1233.69	1204.49
1232.78	1193.36
1231.86	1236.83
1230.95	1233.88
1230.03	1239.12
1229.12	1266.19
1228.2	1255.06
1227.28	1246.65
1226.37	1202.79
1225.45	1232.58
1224.53	1273.26
1223.62	1221.24
1222.7	1278.26
1221.78	1256.23
1220.86	1266.91
1219.95	1234
1219.03	1225.61
1218.11	1255.34
1217.19	1295.96
1216.27	1265.79
1215.35	1241.07
1214.44	1186.43
1213.52	1139.97
1212.6	1199.61
1211.68	1207.56
1210.76	1294.36
1209.84	1226.16
1208.92	1269.44
1208	1261.06
1207.08	1198.34
1206.16	1230.73
1205.24	1162.6
1204.32	1178.69
1203.4	1135.04
1202.48	1129.41
1201.56	1159.07
1200.64	1101.87
1199.71	1134.24
1198.79	1123.18
1197.87	1079.59
1196.95	1095.67
1196.03	1165.97
1195.1	1087.15
1194.18	1195.38
1193.26	1127.41
1192.34	1127.21
1191.41	1135.14
1190.49	1050.97
1189.57	1137.45
1188.65	1126.42
1187.72	1128.92
1186.8	1182.86
1185.87	1177.24
1184.95	1136.44
1184.03	1068.61
1183.1	1087.35
1182.18	1057.41
1181.25	1111.3
1180.33	1075.96
1179.4	1097.39
1178.48	1075.58
1177.55	1007.84
1176.63	1118.42
1175.7	1110.12
1174.78	1061.32
1173.85	1107.03
1172.92	1101.43
1172	1163.32
1171.07	1187.4
1170.15	1141.32
1169.22	1178.89
1168.29	1070.79
1167.36	1062.51
1166.44	1032.66
1165.51	1043.26
1164.58	1096.98
1163.65	1094.09
1162.73	1021.15
1161.8	1066.77
1160.87	1018.1
1159.94	996.374
1159.01	1025.81
1158.08	996.021
1157.16	939.323
1156.23	976.83
1155.3	955.133
1154.37	946.894
1153.44	989.759
1152.51	957.314
1151.58	957.144
1150.65	932.781
1149.72	1024
1148.79	972.758
1147.86	1004.83
1146.93	1042.25
1146	1028.64
1145.07	953.27
1144.13	918.199
1143.2	985.144
1142.27	1038.65
1141.34	952.593
1140.41	939.01
1139.48	944.208
1138.54	1040.59
1137.61	1008.23
1136.68	973.196
1135.75	975.703
1134.81	1013.05
1133.88	1028.95
1132.95	1015.37
1132.01	1033.94
1131.08	1154.27
1130.15	1221.01
1129.21	1204.73
1128.28	1231.28
1127.35	1201.62
1126.41	1075.65
1125.48	1128.96
1124.54	1059.22
1123.61	1042.98
1122.67	973.278
1121.74	916.964
1120.8	943.53
1119.87	905.949
1118.93	919.147
1117.99	881.583
1117.06	822.665
1116.12	843.882
1115.19	905.143
1114.25	867.608
1113.31	918.166
1112.38	856.625
1111.44	848.468
1110.5	802.967
1109.56	874.838
1108.63	909.35
1107.69	789.207
1106.75	882.368
1105.81	820.909
1104.88	844.747
1103.94	809.96
1103	767.194
1102.06	854.949
1101.12	910.718
1100.18	828.02
1099.24	806.577
1098.3	835.709
1097.36	862.171
1096.42	864.678
1095.49	891.124
1094.55	898.944
1093.6	805.715
1092.66	935.845
1091.72	874.54
1090.78	903.619
1089.84	834.37
1088.9	812.967
1087.96	834.072
1087.02	802.054
1086.08	820.498
1085.14	849.556
1084.19	873.294
1083.25	846.599
1082.31	880.942
1081.37	917.927
1080.43	904.501
1079.48	792.954
1078.54	800.767
1077.6	850.995
1076.65	771.325
1075.71	810.939
1074.77	794.897
1073.82	744.42
1072.88	760.18
1071.93	813.009
1070.99	812.864
1070.05	847.133
1069.1	799.339
1068.16	870.648
1067.21	849.326
1066.27	859.755
1065.32	830.508
1064.38	1036.63
1063.43	1012.65
1062.49	1065.34
1061.54	1030.79
1060.59	967.18
1059.65	1001.35
1058.7	898.152
1057.75	866.298
1056.81	860.861
1055.86	863.348
1054.91	739.126
1053.97	702.044
1053.02	704.557
1052.07	762.475
1051.12	688.478
1050.18	741.103
1049.23	690.869
1048.28	624.835
1047.33	664.262
1046.38	674.686
1045.43	729.9
1044.48	708.693
1043.54	724.371
1042.59	721.608
1041.64	710.946
1040.69	695.023
1039.74	689.634
1038.79	707.933
1037.84	697.281
1036.89	726.095
1035.94	791.723
1034.99	783.692
1034.04	801.957
1033.08	799.184
1032.13	733.331
1031.18	675.384
1030.23	696.283
1029.28	662.007
1028.33	630.37
1027.37	709.04
1026.42	729.917
1025.47	685.159
1024.52	664.039
1023.57	690.162
1022.61	585.09
1021.66	642.697
1020.71	729.133
1019.75	708.024
1018.8	697.41
1017.85	665.828
1016.89	660.467
1015.94	689.174
1014.98	628.791
1014.03	615.581
1013.07	631.184
1012.12	714.865
1011.16	633.576
1010.21	683.197
1009.25	690.926
1008.3	748.369
1007.34	651.435
1006.39	653.934
1005.43	614.588
1004.48	583.1
1003.52	630.053
1002.56	622.099
1001.61	671.641
1000.65	645.392
999.693	645.276
998.736	619.04
997.778	631.987
996.821	639.706
995.863	707.466
994.905	762.152
993.947	785.502
992.989	832.326
992.031	790.437
991.072	672.924
990.114	667.588
989.155	610.108
988.196	602.177
987.237	568.187
986.277	562.873
985.318	570.588
984.358	612.165
983.398	651.122
982.438	648.401
981.478	632.663
980.517	606.519
979.557	650.654
978.596	632.322
977.635	600.988
976.674	619.089
975.713	608.574
974.751	650.069
973.79	631.754
972.828	636.839
971.866	527.572
970.904	571.65
969.942	563.753
968.979	558.457
968.017	586.923
967.054	547.87
966.091	565.943
965.128	607.371
964.164	568.335
963.201	612.342
962.237	596.667
961.273	619.903
960.309	601.638
959.345	557.452
958.381	596.237
957.416	619.457
956.451	637.485
955.486	595.915
954.521	564.722
953.556	626.78
952.591	577.466
951.625	623.966
950.659	520.309
949.693	574.566
948.727	667.619
947.761	688.196
946.794	682.899
945.828	651.74
944.861	659.38
943.894	586.872
942.927	555.748
941.959	607.336
940.992	583.971
940.024	539.946
939.056	607.007
938.088	601.733
937.12	586.132
936.152	617.005
935.183	536.879
934.214	562.589
933.246	652.795
932.276	613.981
931.307	619.028
930.338	660.178
929.368	698.734
928.398	701.186
927.428	670.13
926.458	623.624
925.488	577.135
924.517	579.607
923.547	620.711
922.576	574.247
921.605	579.293
920.634	545.724
919.662	589.378
918.691	599.565
917.719	635.475
916.747	684.235
915.775	681.539
914.803	658.274
913.831	619.591
912.858	604.056
911.885	593.667
910.912	616.686
909.939	603.729
908.966	688.384
907.992	603.511
907.019	626.511
906.045	603.293
905.071	685.319
904.097	546.617
903.122	518.294
902.148	590.03
901.173	584.793
900.198	584.688
899.223	620.477
898.248	592.167
897.273	666.387
896.297	630.391
895.321	622.591
894.345	640.41
893.369	578.825
892.393	612.01
891.416	637.502
890.44	614.348
889.463	619.356
888.486	583.42
887.509	557.73
886.531	606.23
885.554	608.678
884.576	549.756
883.598	529.204
882.62	580.23
881.642	595.459
880.664	590.241
879.685	549.259
878.706	613.015
877.727	623.119
876.748	651.093
875.769	681.609
874.789	742.742
873.81	783.438
872.83	877.7
871.85	798.46
870.87	675.89
869.889	640.067
868.909	688.393
867.928	652.581
866.947	662.657
865.966	644.699
864.985	736.302
864.003	782.02
863.022	781.878
862.04	758.819
861.058	791.778
860.076	773.816
859.094	697.326
858.111	615.775
857.128	620.751
856.146	577.398
855.162	574.75
854.179	602.615
853.196	597.421
852.212	632.897
851.229	701.397
850.245	622.504
849.261	614.77
848.276	640.058
847.292	678.033
846.307	782.009
845.322	832.637
844.337	829.948
843.352	796.808
842.367	659.658
841.381	613.878
840.396	613.766
839.41	613.655
838.424	557.767
837.437	575.409
836.451	620.923
835.464	582.802
834.477	572.562
833.49	552.194
832.503	587.549
831.516	569.718
830.528	589.867
829.541	716.318
828.553	850.315
827.565	837.509
826.577	698.219
825.588	662.682
824.6	619.57
823.611	616.929
822.622	611.761
821.633	672.31
820.643	692.403
819.654	619.007
818.664	646.682
817.674	737.487
816.684	818.159
815.694	812.96
814.704	782.521
813.713	691.522
812.723	620.743
811.732	628.198
810.741	544.844
809.749	635.535
808.758	668.199
807.766	640.346
806.774	597.379
805.782	640.113
804.79	607.241
803.798	622.245
802.805	624.651
801.812	569.134
800.819	563.995
799.826	586.549
798.833	669.5
797.84	724.74
796.846	704.48
795.852	671.65
794.858	611.165
793.864	656.317
792.87	731.623
791.875	776.736
790.88	723.816
789.885	653.326
788.89	673.306
787.895	658.112
786.9	650.457
785.904	705.58
784.908	853.571
783.912	780.624
782.916	715.232
781.92	674.956
780.923	637.202
779.926	599.463
778.929	566.753
777.932	594.23
776.935	609.162
775.938	601.532
774.94	591.398
773.942	603.818
772.944	638.778
771.946	641.166
770.948	628.528
769.949	718.544
768.95	690.878
767.951	590.643
766.952	613.056
765.953	617.947
764.954	670.363
763.954	640.23
762.954	602.606
761.954	649.996
760.954	639.879
759.954	597.278
758.953	597.169
757.952	564.583
756.951	594.453
755.95	651.781
754.949	649.165
753.948	589.134
752.946	696.349
751.944	686.24
750.942	661.165
749.94	653.56
748.937	668.405
747.935	693.219
746.932	723.01
745.929	740.326
744.926	772.59
743.923	755.006
742.919	677.637
741.916	670.041
740.912	677.389
739.908	632.446
738.903	657.226
737.899	604.836
736.894	599.748
735.89	584.709
734.885	649.281
733.88	686.471
732.874	663.964
731.869	668.815
730.863	668.693
729.857	745.618
728.851	708.207
727.845	643.481
726.838	705.464
725.832	653.179
724.825	640.644
723.818	710.041
722.811	635.445
721.804	682.482
720.796	625.287
719.788	684.713
718.78	625.058
717.772	605.104
716.764	632.267
715.756	575.134
714.747	622.121
713.738	599.704
712.729	654.102
711.72	710.958
710.71	609.281
709.701	656.219
708.691	618.961
707.681	594.094
706.671	660.808
705.661	687.906
704.65	677.884
703.64	685.18
702.629	615.807
701.618	593.44
700.606	697.164
699.595	632.77
698.583	679.609
697.572	627.596
696.56	642.303
695.547	647.125
694.535	661.823
693.523	595.038
692.51	565.306
691.497	547.925
690.484	621.855
689.471	606.937
688.457	646.294
687.443	643.709
686.43	663.317
685.416	769.208
684.401	727.163
683.387	699.92
682.372	672.686
681.358	707.053
680.343	679.829
679.327	728.957
678.312	667.267
677.297	649.912
676.281	598.105
675.265	649.673
674.249	652.014
673.233	568.255
672.216	641.936
671.2	627.064
670.183	671.204
669.166	644.04
668.148	651.295
667.131	737.179
666.113	737.044
665.096	687.781
664.078	670.463
663.06	653.151
662.041	623.571
661.023	616.093
660.004	618.433
658.985	684.568
657.966	706.521
656.947	657.336
655.927	617.978
654.908	639.931
653.888	639.813
652.868	598.029
651.848	607.721
650.827	575.759
649.807	634.443
648.786	604.936
647.765	580.338
646.744	651.23
645.723	668.244
644.701	682.805
643.679	690.02
642.657	648.303
641.635	640.846
640.613	650.51
639.591	704.182
638.568	616.045
637.545	608.599
636.522	610.931
635.499	618.148
634.475	620.477
633.452	620.362
632.428	600.713
631.404	644.548
630.38	622.46
629.356	663.835
628.331	612.47
627.306	685.547
626.281	636.636
625.256	646.274
624.231	672.976
623.205	663.1
622.18	631.291
621.154	648.234
620.128	652.987
619.102	645.558
618.075	655.182
617.049	689.153
616.022	620.854
614.995	649.95
613.968	700.94
612.94	669.177
611.913	661.755
610.885	681.092
609.857	639.622
608.829	622.483
607.8	651.541
606.772	622.253
605.743	629.428
604.714	682.767
603.685	604.902
602.656	624.222
601.626	648.391
600.597	643.415
599.567	677.281
598.537	689.291
597.507	662.471
596.476	679.332
595.446	650.097
594.415	635.425
593.384	678.955
592.353	676.405
591.321	736.878
590.29	753.706
589.258	874.719
588.226	724.356
587.194	709.689
586.162	658.702
585.129	658.58
584.096	694.771
583.063	718.846
582.03	762.271
580.997	733.096
579.964	759.57
578.93	686.872
577.896	747.198
576.862	863.107
575.828	911.292
574.793	831.37
573.759	826.383
572.724	753.754
571.689	777.768
570.654	738.984
569.618	697.8
568.583	729.054
567.547	782.019
566.511	760.155
565.475	692.458
564.438	680.268
563.402	706.672
562.365	774.06
561.328	846.245
560.291	778.594
559.254	761.58
558.216	754.209
557.178	848.027
556.141	917.723
555.102	970.535
554.064	871.634
553.026	758.325
551.987	731.708
550.948	724.353
549.909	690.534
548.87	716.867
547.83	733.57
546.791	752.672
545.751	766.957
544.711	687.489
543.671	687.362
542.63	720.875
541.59	718.339
540.549	735.019
539.508	727.678
538.467	693.927
537.425	780.223
536.384	758.476
535.342	763.135
534.3	750.996
533.258	731.665
532.216	815.475
531.173	743.383
530.13	755.233
529.088	781.461
528.044	819.663
527.001	738.038
525.958	709.152
524.914	665.904
523.87	668.175
522.826	687.206
521.782	708.625
520.737	758.758
519.693	839.982
518.648	918.784
517.603	964.065
516.557	901.7
515.512	920.663
514.466	784.211
513.42	772.113
512.374	769.579
511.328	745.54
510.282	707.176
509.235	702.267
508.188	726.018
507.141	713.944
506.094	732.91
505.047	742.321
503.999	687.295
502.951	696.711
501.903	675.111
500.855	653.519
499.807	696.322
