3200.54	50.5175
3199.95	75.7762
3199.35	58.9282
3198.76	50.5022
3198.16	29.4552
3197.57	46.2797
3196.98	46.2727
3196.38	54.6777
3195.79	50.4641
3195.19	29.4329
3194.6	50.4488
3194	67.2549
3193.41	58.8391
3192.81	58.8303
3192.22	25.2092
3191.62	63.0134
3191.03	54.6033
3190.43	37.7966
3189.84	50.3878
3189.24	37.7851
3188.65	50.3726
3188.05	37.7737
3187.45	46.1609
3186.86	54.5455
3186.26	25.171
3185.67	46.1399
3185.07	58.7147
3184.47	29.3529
3183.88	50.3116
3183.28	33.536
3182.69	33.5309
3182.09	62.861
3181.49	29.3307
3180.9	37.7052
3180.3	37.6995
3179.7	46.0702
3179.1	33.5005
3178.51	54.4301
3177.91	50.2355
3177.31	58.5993
3176.72	41.8503
3176.12	41.8439
3175.52	54.3889
3174.92	50.1975
3174.33	37.6424
3173.73	71.0916
3173.13	71.0808
3172.53	41.8059
3171.93	62.6994
3171.34	71.0486
3170.74	71.0378
3170.14	62.6709
3169.54	58.484
3168.94	58.4751
3168.34	66.8186
3167.74	33.4042
3167.15	33.3992
3166.55	29.2198
3165.95	66.7781
3165.35	37.557
3164.75	54.2408
3164.15	41.7173
3163.55	20.8555
3162.95	70.898
3162.35	45.8682
3161.75	37.5229
3161.15	45.8543
3160.55	37.5115
3159.95	37.5058
3159.35	50.0001
3158.75	37.4944
3158.15	29.1579
3157.55	20.8239
3156.95	33.3132
3156.35	45.7987
3155.75	37.466
3155.15	45.7848
3154.55	62.4244
3153.95	54.0929
3153.35	74.8865
3152.75	49.9168
3152.15	54.0683
3151.54	41.5847
3150.94	62.3676
3150.34	54.0437
3149.74	45.7224
3149.14	41.5595
3148.54	58.1744
3147.94	37.3922
3147.33	66.4649
3146.73	49.8411
3146.13	24.9168
3145.53	16.6087
3144.93	29.0607
3144.32	58.1127
3143.72	66.4044
3143.12	49.7957
3142.52	37.3411
3141.91	53.929
3141.31	41.4775
3140.71	53.9126
3140.1	62.1974
3139.5	53.8963
3138.9	49.7428
3138.29	58.0245
3137.69	49.7277
3137.09	78.7236
3136.48	33.1417
3135.88	49.7051
3135.28	33.1317
3134.67	41.4083
3134.07	74.5236
3133.47	33.1166
3132.86	74.501
3132.26	37.2448
3131.65	49.6522
3131.05	49.6447
3130.45	57.91
3129.84	49.6296
3129.24	45.4869
3128.63	16.5382
3128.03	49.607
3127.42	53.7327
3126.82	28.9286
3126.21	53.7164
3125.61	57.8396
3125	49.5693
3124.4	61.9522
3123.79	70.2018
3123.19	66.0622
3122.58	45.4109
3121.97	20.6382
3121.37	41.2701
3120.76	53.6429
3120.16	61.8863
3119.55	53.6266
3118.94	20.6225
3118.34	32.991
3117.73	45.3557
3117.13	57.7166
3116.52	61.8298
3115.91	49.4563
3115.31	78.2939
3114.7	65.9217
3114.09	53.5532
3113.48	57.6639
3112.88	70.0099
3112.27	78.2344
3111.66	69.9885
3111.06	45.2798
3110.45	45.2729
3109.84	61.7264
3109.23	53.4881
3108.63	57.5938
3108.02	69.9247
3107.41	86.3644
3106.8	78.1273
3106.19	41.1134
3105.59	41.1071
3104.98	45.2109
3104.37	28.7662
3103.76	28.7618
3103.15	41.0821
3102.54	57.5061
3101.93	49.2835
3101.33	78.0203
3100.72	36.9513
3100.11	32.8406
3099.5	82.0891
3098.89	45.1421
3098.28	53.3417
3097.67	77.949
3097.06	20.5098
3096.45	65.6213
3095.84	24.6042
3095.23	41.0008
3094.62	77.8896
3094.01	77.8778
3093.4	28.6874
3092.79	61.4637
3092.18	73.7452
3091.57	45.0596
3090.96	69.627
3090.35	81.9017
3089.74	73.7003
3089.13	61.4075
3088.52	81.8642
3087.91	49.111
3087.3	49.1035
3086.69	32.7307
3086.08	28.635
3085.46	36.8108
3084.85	36.8052
3084.24	53.155
3083.63	44.9704
3083.02	44.9636
3082.41	73.5655
3081.79	49.0362
3081.18	61.2859
3080.57	49.0212
3079.96	61.2672
3079.35	77.5933
3078.73	53.082
3078.12	69.4044
3077.51	93.8857
3076.9	65.3018
3076.28	61.2111
3075.67	36.7211
3075.06	73.4309
3074.45	61.1831
3073.83	36.7043
3073.22	48.9315
3072.61	61.1551
3071.99	69.2985
3071.38	52.9849
3070.77	48.9017
3070.15	32.5961
3069.54	69.2562
3068.93	57.0258
3068.31	69.235
3067.7	73.2965
3067.08	65.1425
3066.47	61.0618
3065.86	52.9121
3065.24	65.1127
3064.63	69.1716
3064.01	56.9562
3063.4	52.8798
3062.78	65.0729
3062.17	81.3287
3061.55	73.1846
3060.94	69.1082
3060.32	81.2914
3059.71	81.279
3059.09	65.0132
3058.48	60.9406
3057.86	69.0555
3057.25	44.6761
3056.63	69.0344
3056.02	52.7829
3055.4	56.8344
3054.78	56.8258
3054.17	73.0505
3053.55	77.0971
3052.94	64.9139
3052.32	68.9605
3051.7	73.0058
3051.09	56.7736
3050.47	68.9289
3049.85	56.7563
3049.24	56.7476
3048.62	48.6334
3048	56.7302
3047.39	72.9277
3046.77	64.8147
3046.15	60.7545
3045.53	56.6955
3044.92	60.7359
3044.3	93.1142
3043.68	64.7652
3043.06	56.6609
3042.45	32.3727
3041.83	56.6435
3041.21	40.4535
3040.59	64.7156
3039.97	60.6616
3039.35	60.6523
3038.74	68.7288
3038.12	68.7183
3037.5	64.6661
3036.88	60.6152
3036.26	72.7271
3035.64	76.7558
3035.02	105.018
3034.41	88.8479
3033.79	109.024
3033.17	60.5595
3032.55	80.7337
3031.93	64.5771
3031.31	84.7444
3030.69	88.7663
3030.07	68.5816
3029.45	92.7727
3028.83	80.6595
3028.21	72.5825
3027.59	68.5396
3026.97	64.498
3026.35	80.6101
3025.73	48.3587
3025.11	64.4683
3024.49	60.4298
3023.87	68.4766
3023.25	84.5758
3022.63	72.4824
3022	76.4975
3021.38	68.4346
3020.76	96.5988
3020.14	48.292
3019.52	100.593
3018.9	88.5082
3018.28	88.4946
3017.66	72.3936
3017.03	68.3612
3016.41	64.3301
3015.79	88.4404
3015.17	60.291
3014.55	68.3193
3013.92	68.3088
3013.3	36.158
3012.68	72.3048
3012.06	68.2774
3011.43	68.2669
3010.81	80.3017
3010.19	92.3328
3009.57	84.2909
3008.94	48.1589
3008.32	56.1767
3007.7	68.2041
3007.07	68.1937
3006.45	72.194
3005.83	40.1016
3005.2	100.239
3004.58	60.134
3003.96	52.1081
3003.33	68.1309
3002.71	88.1559
3002.08	84.1359
3001.46	96.1405
3000.84	68.0891
3000.21	80.0925
2999.59	64.0642
2998.96	60.0509
2998.34	108.075
2997.71	84.0455
2997.09	76.0295
2996.46	68.0159
2995.84	76.0061
2995.21	75.9944
2994.59	59.9864
2993.96	71.9726
2993.34	79.9573
2992.71	79.945
2992.09	63.9462
2991.46	87.9125
2990.84	99.8852
2990.21	79.8959
2989.58	99.8545
2988.96	79.8713
2988.33	95.8309
2987.71	87.8315
2987.08	107.777
2986.45	75.8311
2985.83	47.886
2985.2	107.727
2984.57	83.7747
2983.95	91.7392
2983.32	99.7011
2982.69	95.6984
2982.07	83.7232
2981.44	103.641
2980.81	103.625
2980.18	83.6846
2979.56	99.6092
2978.93	103.578
2978.3	99.5786
2977.67	83.6331
2977.05	107.512
2976.42	127.402
2975.79	87.5752
2975.16	99.502
2974.53	91.5278
2973.91	95.4925
2973.28	79.5649
2972.65	107.396
2972.02	103.403
2971.39	123.269
2970.76	135.177
2970.13	111.305
2969.5	119.237
2968.88	111.271
2968.25	103.307
2967.62	67.5365
2966.99	127.108
2966.36	107.231
2965.73	115.156
2965.1	111.168
2964.47	111.151
2963.84	123.041
2963.21	115.085
2962.58	154.746
2961.95	119.017
2961.32	146.765
2960.69	91.2183
2960.06	130.858
2959.43	130.838
2958.8	122.89
2958.17	158.543
2957.53	138.704
2956.9	150.569
2956.27	138.661
2955.64	142.601
2955.01	126.737
2954.38	150.477
2953.75	110.86
2953.12	134.595
2952.48	134.575
2951.85	122.681
2951.22	106.835
2950.59	150.337
2949.96	150.314
2949.33	146.336
2948.69	150.268
2948.06	150.245
2947.43	134.409
2946.8	173.914
2946.16	169.935
2945.53	130.395
2944.9	150.129
2944.26	169.857
2943.63	205.376
2943	157.957
2942.37	201.365
2941.73	193.438
2941.1	244.721
2940.47	236.79
2939.83	224.916
2939.2	268.279
2938.56	280.072
2937.93	299.749
2937.3	295.759
2936.66	283.885
2936.03	295.668
2935.39	342.922
2934.76	315.282
2934.13	330.995
2933.49	327.004
2932.86	323.014
2932.22	311.149
2931.59	326.852
2930.95	338.614
2930.32	346.435
2929.68	413.297
2929.05	373.877
2928.41	405.299
2927.78	377.696
2927.14	381.572
2926.5	393.312
2925.87	432.576
2925.23	401.054
2924.6	412.786
2923.96	393.069
2923.32	404.799
2922.69	463.678
2922.05	420.389
2921.42	384.97
2920.78	412.404
2920.14	435.902
2919.51	373.012
2918.87	416.138
2918.23	482.803
2917.6	455.256
2916.96	490.502
2916.32	439.422
2915.68	427.585
2915.05	435.364
2914.41	478.434
2913.77	470.518
2913.13	431.241
2912.5	450.774
2911.86	442.866
2911.22	442.797
2910.58	517.17
2909.94	458.33
2909.31	485.676
2908.67	497.349
2908.03	509.019
2907.39	485.451
2906.75	571.491
2906.11	544.006
2905.47	567.401
2904.83	582.963
2904.2	504.635
2903.56	539.758
2902.92	578.782
2902.28	633.433
2901.64	523.87
2901	558.969
2900.36	680.039
2899.72	695.564
2899.08	640.758
2898.44	636.752
2897.8	695.241
2897.16	714.66
2896.52	718.454
2895.88	733.959
2895.24	761.169
2894.6	710.314
2893.96	780.444
2893.32	749.111
2892.67	760.698
2892.03	838.588
2891.39	791.661
2890.75	775.941
2890.11	764.125
2889.47	814.681
2888.83	841.836
2888.19	849.499
2887.54	818.198
2886.9	860.923
2886.26	899.739
2885.62	852.868
2884.98	907.248
2884.33	953.826
2883.69	1097.7
2883.05	1035.26
2882.41	1105.15
2881.77	1326.75
2881.12	1357.66
2880.48	1446.91
2879.84	1540.02
2879.19	1683.65
2878.55	1652.29
2877.91	1655.92
2877.26	1523.52
2876.62	1597.12
2875.98	1359.86
2875.33	1204.27
2874.69	1126.4
2874.05	994.181
2873.4	885.306
2872.76	873.521
2872.11	826.805
2871.47	811.153
2870.83	779.983
2870.18	795.381
2869.54	752.586
2868.89	736.954
2868.25	748.474
2867.6	709.583
2866.96	732.734
2866.31	763.631
2865.67	751.885
2865.02	713.018
2864.38	724.53
2863.73	708.922
2863.09	716.559
2862.44	774.538
2861.8	793.778
2861.15	692.996
2860.5	747.081
2859.86	808.89
2859.21	770.067
2858.57	781.555
2857.92	835.592
2857.27	850.934
2856.63	823.731
2855.98	912.537
2855.33	900.797
2854.69	927.715
2854.04	912.112
2853.39	973.799
2852.75	962.056
2852.1	977.359
2851.45	1054.46
2850.81	1069.74
2850.16	1100.46
2849.51	1142.76
2848.86	1131
2848.21	1246.61
2847.57	1246.42
2846.92	1300.24
2846.27	1222.88
2845.62	1396.26
2844.97	1241.79
2844.33	1326.42
2843.68	1279.95
2843.03	1349.14
2842.38	1256.43
2841.73	1252.38
2841.08	1178.98
2840.43	1090.2
2839.78	1051.51
2839.14	966.623
2838.49	877.912
2837.84	823.877
2837.19	719.818
2836.54	738.949
2835.89	650.328
2835.24	596.362
2834.59	619.351
2833.94	511.558
2833.29	473.021
2832.64	434.497
2831.99	372.917
2831.34	411.298
2830.69	384.331
2830.04	338.159
2829.39	330.422
2828.74	307.321
2828.08	295.751
2827.43	311.066
2826.78	257.261
2826.13	253.382
2825.48	245.666
2824.83	245.627
2824.18	214.891
2823.53	214.857
2822.87	184.135
2822.22	214.79
2821.57	210.922
2820.92	210.889
2820.27	222.357
2819.61	199.324
2818.96	187.795
2818.31	187.766
2817.66	195.399
2817	153.23
2816.35	183.848
2815.7	179.99
2815.05	214.422
2814.39	172.277
2813.74	164.594
2813.09	168.396
2812.43	195.156
2811.78	175.996
2811.13	187.444
2810.47	195.065
2809.82	160.616
2809.16	202.651
2808.51	172.035
2807.86	168.186
2807.2	145.229
2806.55	133.743
2805.89	164.287
2805.24	187.181
2804.58	152.777
2803.93	198.58
2803.28	175.639
2802.62	175.612
2801.97	160.316
2801.31	160.291
2800.66	209.872
2800	156.426
2799.34	209.807
2798.69	171.633
2798.03	171.607
2797.38	163.954
2796.72	175.365
2796.07	171.526
2795.41	167.688
2794.75	156.231
2794.1	148.587
2793.44	175.229
2792.79	140.923
2792.13	171.366
2791.47	148.494
2790.82	144.664
2790.16	152.254
2789.5	156.036
2788.84	163.622
2788.19	144.573
2787.53	159.767
2786.87	163.545
2786.22	171.125
2785.56	174.901
2784.9	144.461
2784.24	140.637
2783.59	167.218
2782.93	155.792
2782.27	163.366
2781.61	148.146
2780.95	155.719
2780.29	189.872
2779.64	136.686
2778.98	132.869
2778.32	163.213
2777.66	163.188
2777	151.779
2776.34	140.374
2775.68	140.352
2775.02	193.427
2774.36	159.268
2773.71	140.286
2773.05	147.846
2772.39	117.5
2771.73	151.589
2771.07	162.933
2770.41	170.485
2769.75	151.518
2769.09	143.92
2768.43	147.684
2767.77	136.302
2767.11	162.78
2766.45	143.83
2765.79	151.376
2765.12	151.352
2764.46	155.112
2763.8	151.305
2763.14	143.717
2762.48	136.132
2761.82	155.015
2761.16	162.551
2760.5	170.085
2759.83	200.291
2759.17	177.589
2758.51	151.116
2757.85	181.31
2757.19	177.505
2756.53	162.373
2755.86	188.776
2755.2	124.573
2754.54	154.748
2753.88	143.403
2753.21	188.658
2752.55	173.538
2751.89	184.827
2751.23	181.027
2750.56	169.686
2749.9	188.511
2749.24	150.785
2748.57	150.761
2747.91	154.506
2747.25	195.928
2746.58	169.527
2745.92	184.567
2745.25	199.602
2744.59	184.509
2743.93	237.189
2743.26	210.801
2742.6	191.95
2741.93	188.156
2741.27	225.752
2740.61	191.859
2739.94	173.023
2739.28	199.321
2738.61	214.33
2737.95	214.297
2737.28	218.022
2736.62	251.814
2735.95	236.743
2735.29	206.648
2734.62	202.859
2733.95	199.071
2733.29	229.083
2732.62	214.028
2731.96	244.029
2731.29	225.222
2730.62	228.94
2729.96	225.151
2729.29	255.132
2728.63	236.335
2727.96	262.553
2727.29	225.01
2726.63	284.968
2725.96	266.178
2725.29	284.879
2724.62	269.843
2723.96	281.042
2723.29	269.758
2722.62	269.716
2721.96	277.164
2721.29	258.396
2720.62	299.543
2719.95	265.803
2719.28	235.816
2718.62	295.659
2717.95	254.452
2717.28	265.636
2716.61	310.483
2715.94	287.993
2715.27	276.729
2714.61	246.774
2713.94	265.427
2713.27	287.813
2712.6	280.293
2711.93	280.249
2711.26	261.524
2710.59	261.483
2709.92	242.768
2709.25	238.995
2708.58	280.029
2707.91	272.518
2707.24	268.743
2706.57	283.629
2705.9	235.076
2705.23	220.116
2704.56	216.351
2703.89	205.129
2703.22	302.051
2702.55	249.805
2701.88	227.399
2701.21	216.181
2700.54	275.774
2699.87	242.196
2699.2	234.707
2698.53	219.77
2697.86	234.633
2697.19	215.978
2696.51	215.944
2695.84	230.8
2695.17	219.598
2694.5	215.842
2693.83	223.249
2693.15	197.173
2692.48	223.179
2691.81	197.111
2691.14	171.05
2690.47	174.741
2689.79	189.583
2689.12	223.004
2688.45	189.523
2687.77	185.778
2687.1	226.613
2686.43	215.435
2685.76	219.114
2685.08	207.94
2684.41	181.919
2683.74	181.89
2683.06	211.554
2682.39	215.231
2681.71	237.459
2681.04	185.486
2680.37	200.293
2679.69	233.638
2679.02	215.062
2678.34	233.565
2677.67	192.753
2676.99	226.079
2676.32	163.047
2675.65	174.137
2674.97	188.927
2674.3	192.601
2673.62	233.307
2672.95	199.946
2672.27	196.213
2671.59	199.883
2670.92	162.842
2670.24	207.221
2669.57	199.789
2668.89	229.351
2668.22	210.822
2667.54	221.882
2666.86	184.873
2666.19	203.328
2665.51	232.866
2664.83	181.09
2664.16	214.317
2663.48	221.673
2662.8	221.638
2662.13	221.603
2661.45	258.496
2660.77	217.841
2660.1	225.189
2659.42	199.317
2658.74	236.19
2658.06	184.494
2657.39	250.873
2656.71	254.522
2656.03	188.095
2655.35	188.065
2654.68	188.036
2654	173.26
2653.32	246.949
2652.64	213.743
2651.96	257.925
2651.28	221.044
2650.6	213.642
2649.93	158.365
2649.25	261.445
2648.57	195.132
2647.89	224.551
2647.21	198.751
2646.53	224.48
2645.85	224.444
2645.17	224.409
2644.49	235.408
2643.81	231.693
2643.13	202.24
2642.45	198.532
2641.77	209.528
2641.09	224.196
2640.41	183.738
2639.73	220.451
2639.05	191.028
2638.37	209.363
2637.69	205.657
2637.01	205.625
2636.33	201.921
2635.65	223.913
2634.96	212.867
2634.28	216.503
2633.6	205.462
2632.92	187.088
2632.24	190.726
2631.56	190.696
2630.88	223.665
2630.19	241.96
2629.51	194.271
2628.83	190.575
2628.15	197.874
2627.46	183.187
2626.78	205.137
2626.1	205.105
2625.42	197.749
2624.73	237.993
2624.05	208.669
2623.37	215.956
2622.69	201.283
2622	208.57
2621.32	223.171
2620.64	208.504
2619.95	197.498
2619.27	234.035
2618.58	212.061
2617.9	212.027
2617.22	230.269
2616.53	252.159
2615.85	193.657
2615.16	175.36
2614.48	255.692
2613.79	189.913
2613.11	175.276
2612.43	200.806
2611.74	251.88
2611.06	211.692
2610.37	222.606
2609.69	204.327
2609	259.017
2608.31	222.5
2607.63	226.112
2606.94	196.905
2606.26	222.395
2605.57	226.005
2604.89	240.548
2604.2	204.069
2603.51	236.828
2602.83	229.504
2602.14	222.183
2601.45	258.566
2600.77	243.96
2600.08	200.234
2599.39	232.963
2598.71	189.252
2598.02	221.972
2597.33	225.575
2596.65	225.54
2595.96	200.044
2595.27	254.561
2594.58	203.616
2593.9	243.574
2593.21	210.821
2592.52	243.496
2591.83	207.121
2591.14	232.52
2590.46	250.646
2589.77	221.55
2589.08	232.409
2588.39	232.372
2587.7	214.184
2587.01	228.669
2586.32	272.182
2585.64	235.853
2584.95	261.212
2584.26	224.896
2583.57	250.248
2582.88	192.189
2582.19	206.661
2581.5	279.13
2580.81	260.963
2580.12	250.05
2579.43	242.763
2578.74	253.593
2578.05	249.931
2577.36	231.783
2576.67	206.399
2575.98	224.468
2575.29	235.292
2574.6	209.92
2573.91	238.836
2573.22	198.999
2572.52	217.055
2571.83	206.17
2571.14	220.603
2570.45	231.415
2569.76	209.687
2569.07	213.268
2568.38	224.077
2567.68	180.678
2566.99	213.166
2566.3	177.008
2565.61	249.217
2564.92	209.453
2564.22	231.084
2563.53	194.946
2562.84	184.087
2562.14	202.102
2561.45	227.329
2560.76	183.999
2560.07	187.577
2559.37	194.761
2558.68	238.003
2557.99	241.571
2557.29	230.717
2556.6	194.637
2555.91	219.832
2555.21	198.178
2554.52	230.571
2553.82	194.513
2553.13	255.708
2552.44	226.86
2551.74	223.223
2551.05	230.387
2550.35	244.747
2549.66	215.919
2548.96	251.866
2548.27	208.655
2547.57	212.219
2546.88	244.553
2546.18	251.705
2545.49	190.547
2544.79	248.031
2544.1	240.803
2543.4	294.667
2542.7	258.691
2542.01	222.726
2541.31	226.283
2540.62	204.699
2539.92	247.754
2539.22	179.504
2538.53	190.243
2537.83	208.158
2537.13	161.476
2536.44	222.443
2535.74	211.646
2535.04	258.238
2534.35	218.75
2533.65	250.985
2532.95	222.265
2532.25	218.646
2531.56	197.108
2530.86	197.077
2530.16	247.202
2529.46	239.999
2528.76	204.146
2528.07	264.989
2527.37	193.339
2526.67	250.585
2525.97	250.545
2525.27	236.191
2524.57	236.153
2523.88	221.805
2523.18	239.655
2522.48	228.887
2521.78	257.457
2521.08	232.39
2520.38	235.927
2519.68	221.593
2518.98	200.117
2518.28	200.085
2517.58	214.342
2516.88	239.311
2516.18	246.415
2515.48	189.245
2514.78	257.047
2514.08	228.45
2513.38	235.551
2512.68	224.808
2511.98	249.747
2511.28	214.035
2510.58	238.967
2509.88	231.797
2509.17	206.801
2508.47	274.503
2507.77	238.815
2507.07	260.16
2506.37	249.428
2505.67	281.453
2504.97	256.473
2504.26	227.94
2503.56	263.513
2502.86	252.79
2502.16	220.711
2501.45	231.353
2500.75	259.786
2500.05	249.07
2499.35	234.8
2498.64	245.433
2497.94	231.168
2497.24	256.023
2496.53	255.982
2495.83	234.612
2495.13	263.008
2494.42	227.43
2493.72	252.265
2493.02	255.777
2492.31	255.736
2491.61	266.349
2490.9	259.205
2490.2	248.513
2489.5	212.977
2488.79	234.238
2488.09	241.297
2487.38	258.998
2486.68	258.957
2485.97	248.275
2485.27	244.689
2484.56	248.196
2483.86	230.43
2483.15	269.383
2482.45	290.604
2481.74	244.493
2481.04	272.797
2480.33	255.042
2479.62	255.001
2478.92	272.666
2478.21	269.082
2477.51	269.039
2476.8	290.232
2476.09	258.336
2475.39	286.601
2474.68	265.329
2473.97	265.286
2473.27	286.463
2472.56	233.377
2471.85	236.875
2471.14	282.791
2470.44	247.402
2469.73	303.903
2469.02	268.522
2468.31	275.545
2467.61	222.52
2466.9	264.862
2466.19	240.103
2465.48	254.186
2464.77	268.264
2464.07	229.4
2463.36	306.994
2462.65	271.663
2461.94	250.455
2461.23	243.361
2460.52	253.901
2459.81	229.179
2459.1	257.345
2458.4	225.581
2457.69	285.455
2456.98	218.462
2456.27	239.565
2455.56	267.706
2454.85	271.185
2454.14	260.577
2453.43	260.536
2452.72	253.454
2452.01	274.531
2451.3	292.082
2450.59	263.887
2449.88	256.809
2449.16	263.802
2448.45	260.243
2447.74	281.299
2447.03	256.644
2446.32	242.543
2445.61	277.649
2444.9	277.605
2444.19	302.154
2443.47	245.9
2442.76	259.91
2442.05	252.844
2441.34	266.848
2440.63	231.7
2439.91	280.803
2439.2	228.116
2438.49	252.641
2437.78	284.176
2437.06	249.053
2436.35	301.621
2435.64	224.426
2434.93	259.451
2434.21	255.904
2433.5	266.378
2432.79	241.804
2432.07	259.284
2431.36	276.759
2430.64	283.72
2429.93	290.679
2429.22	273.124
2428.5	315.093
2427.79	294.039
2427.07	297.492
2426.36	279.947
2425.65	251.912
2424.93	339.327
2424.22	269.319
2423.5	300.75
2422.79	304.198
2422.07	297.157
2421.36	269.146
2420.64	237.649
2419.92	255.083
2419.21	307.447
2418.49	300.412
2417.78	300.363
2417.06	282.855
2416.35	296.775
2415.63	279.273
2414.91	279.228
2414.2	272.204
2413.48	293.095
2412.76	307.003
2412.05	275.56
2411.33	299.929
2410.61	275.472
2409.9	254.509
2409.18	268.411
2408.46	338.074
2407.74	296.203
2407.03	282.218
2406.31	310.042
2405.59	268.195
2404.87	282.082
2404.16	250.699
2403.44	275.029
2402.72	323.716
2402	247.098
2401.28	285.335
2400.56	264.414
2399.85	288.722
2399.13	309.543
2398.41	267.764
2397.69	219.044
2396.97	302.441
2396.25	288.489
2395.53	305.819
2394.81	319.668
2394.09	288.35
2393.37	274.409
2392.65	277.838
2391.93	295.155
2391.21	263.861
2390.49	288.118
2389.77	298.483
2389.05	281.084
2388.33	222.056
2387.61	291.401
2386.89	312.165
2386.17	305.179
2385.45	287.793
2384.73	280.813
2384	305.031
2383.28	273.791
2382.56	294.537
2381.84	297.955
2381.12	304.835
2380.4	294.395
2379.67	322.051
2378.95	301.225
2378.23	276.944
2377.51	252.67
2376.79	301.079
2376.06	290.65
2375.34	249.088
2374.62	300.933
2373.9	259.383
2373.17	321.583
2372.45	338.818
2371.73	297.282
2371	297.234
2370.28	300.642
2369.56	279.863
2368.83	252.181
2368.11	297.042
2367.38	272.821
2366.66	265.871
2365.94	279.637
2365.21	317.561
2364.49	279.547
2363.76	293.304
2363.04	327.758
2362.31	289.76
2361.59	300.06
2360.86	262.079
2360.14	272.38
2359.41	324.046
2358.69	320.547
2357.96	334.28
2357.24	306.661
2356.51	303.166
2355.79	289.339
2355.06	278.96
2354.33	306.462
2353.61	296.084
2352.88	320.132
2352.15	354.498
2351.43	357.882
2350.7	299.334
2349.98	306.165
2349.25	312.995
2348.52	330.139
2347.79	295.702
2347.07	330.032
2346.34	319.667
2345.61	285.248
2344.88	329.872
2344.16	329.819
2343.43	319.46
2342.7	298.802
2341.97	326.225
2341.25	319.305
2340.52	298.657
2339.79	274.582
2339.06	312.287
2338.33	281.356
2337.6	305.324
2336.87	315.565
2336.14	301.796
2335.42	291.46
2334.69	339.411
2333.96	342.784
2333.23	281.037
2332.5	349.526
2331.77	325.486
2331.04	315.157
2330.31	321.956
2329.58	304.781
2328.85	318.428
2328.12	301.259
2327.39	342.285
2326.66	321.695
2325.93	366.126
2325.2	331.855
2324.47	348.904
2323.73	294.126
2323	348.791
2322.27	321.383
2321.54	338.423
2320.81	324.696
2320.08	297.305
2319.35	345.092
2318.61	345.036
2317.88	327.902
2317.15	372.245
2316.42	351.697
2315.69	293.602
2314.95	344.756
2314.22	334.462
2313.49	365.118
2312.76	334.353
2312.02	351.355
2311.29	364.941
2310.56	317.14
2309.82	347.775
2309.09	347.718
2308.36	320.394
2307.62	354.421
2306.89	333.92
2306.16	337.272
2305.42	330.405
2304.69	333.757
2303.95	357.539
2303.22	333.649
2302.48	313.171
2301.75	353.962
2301.02	319.875
2300.28	330.03
2299.55	360.593
2298.81	312.917
2298.08	295.862
2297.34	346.817
2296.6	363.758
2295.87	343.305
2295.13	363.64
2294.4	312.612
2293.66	336.343
2292.93	356.669
2292.19	343.026
2291.45	346.366
2290.72	342.915
2289.98	359.832
2289.24	332.621
2288.51	366.503
2287.77	325.727
2287.03	349.421
2286.3	345.973
2285.56	335.742
2284.82	352.642
2284.08	355.975
2283.35	389.814
2282.61	332.135
2281.87	301.584
2281.13	359.131
2280.4	342.136
2279.66	386.11
2278.92	362.343
2278.18	352.126
2277.44	352.069
2276.7	368.935
2275.97	345.186
2275.23	362.048
2274.49	372.139
2273.75	341.635
2273.01	294.232
2272.27	365.194
2271.53	341.469
2270.79	334.652
2270.05	307.56
2269.31	358.198
2268.57	412.199
2267.83	347.947
2267.09	388.422
2266.35	381.604
2265.61	391.672
2264.87	367.976
2264.13	367.916
2263.39	344.233
2262.65	377.92
2261.91	404.848
2261.17	398.036
2260.42	364.244
2259.68	394.534
2258.94	424.813
2258.2	353.954
2257.46	367.378
2256.72	380.797
2255.97	363.889
2255.23	400.886
2254.49	370.507
2253.75	383.917
2253	390.589
2252.26	380.425
2251.52	390.462
2250.78	302.895
2250.03	400.429
2249.29	376.813
2248.55	316.202
2247.8	386.78
2247.06	410.256
2246.32	369.843
2245.57	393.314
2244.83	339.472
2244.09	396.547
2243.34	352.802
2242.6	409.855
2241.85	406.43
2241.11	372.78
2240.36	402.939
2239.62	382.73
2238.88	412.878
2238.13	406.098
2237.39	399.321
2236.64	412.676
2235.89	399.191
2235.15	395.771
2234.4	392.353
2233.66	335.29
2232.91	415.692
2232.17	398.865
2231.42	358.585
2230.67	432.242
2229.93	398.67
2229.18	395.255
2228.44	358.351
2227.69	368.338
2226.94	408.453
2226.2	378.26
2225.45	408.32
2224.7	408.253
2223.95	434.953
2223.21	418.156
2222.46	421.432
2221.71	397.954
2220.96	407.92
2220.22	384.452
2219.47	421.157
2218.72	387.669
2217.97	414.337
2217.22	354.133
2216.48	414.201
2215.73	374.056
2214.98	404.048
2214.23	383.95
2213.48	413.931
2212.73	400.512
2211.98	403.784
2211.23	440.42
2210.48	380.3
2209.73	413.592
2208.98	403.52
2208.23	443.466
2207.48	420.057
2206.73	369.99
2205.98	393.258
2205.23	406.523
2204.48	379.803
2203.73	413.052
2202.98	379.679
2202.23	389.607
2201.48	422.837
2200.73	419.439
2199.98	426.027
2199.23	402.663
2198.48	395.943
2197.72	379.244
2196.97	402.465
2196.22	409.051
2195.47	408.984
2194.72	418.891
2193.97	448.738
2193.21	405.46
2192.46	431.976
2191.71	431.906
2190.96	441.8
2190.2	418.479
2189.45	418.411
2188.7	494.706
2187.94	448.15
2187.19	454.715
2186.44	441.367
2185.68	444.612
2184.93	464.444
2184.18	461.051
2183.42	441.078
2182.67	417.794
2181.91	460.825
2181.16	497.211
2180.41	467.302
2179.65	440.716
2178.9	487.028
2178.14	424.009
2177.39	476.932
2176.63	453.673
2175.88	496.641
2175.12	423.731
2174.37	423.662
2173.61	463.304
2172.86	426.832
2172.1	439.994
2171.34	426.692
2170.59	436.543
2169.83	446.391
2169.08	443.012
2168.32	429.717
2167.56	446.172
2166.81	508.883
2166.05	479.064
2165.29	426.132
2164.54	445.879
2163.78	442.504
2163.02	455.638
2162.27	472.069
2161.51	465.39
2160.75	415.812
2159.99	455.339
2159.23	445.367
2158.48	435.399
2157.72	461.711
2156.96	445.148
2156.2	395.622
2155.44	458.187
2154.69	431.746
2153.93	448.151
2153.17	454.667
2152.41	487.533
2151.65	500.628
2150.89	477.494
2150.13	460.953
2149.37	447.709
2148.61	460.802
2147.85	427.817
2147.09	480.392
2146.33	437.546
2145.57	444.053
2144.81	417.67
2144.05	430.754
2143.29	417.532
2142.53	443.761
2141.77	420.682
2141.01	502.764
2140.25	450.113
2139.49	433.614
2138.73	433.543
2137.97	459.743
2137.2	466.234
2136.44	449.743
2135.68	472.645
2134.92	449.595
2134.16	410.147
2133.4	459.289
2132.63	400.172
2131.87	455.859
2131.11	452.505
2130.35	445.873
2129.58	465.468
2128.82	475.223
2128.06	448.93
2127.29	458.685
2126.53	488.092
2125.77	481.461
2125	448.635
2124.24	530.415
2123.48	455.034
2122.71	468.052
2121.95	503.973
2121.19	513.706
2120.42	484.178
2119.66	457.931
2118.89	490.559
2118.13	519.907
2117.36	470.782
2116.6	493.586
2115.83	509.846
2115.07	513.03
2114.3	457.403
2113.54	519.394
2112.77	509.51
2112.01	434.318
2111.24	502.812
2110.48	463.556
2109.71	502.646
2108.94	486.247
2108.18	486.167
2107.41	521.972
2106.64	525.148
2105.88	498.971
2105.11	440.196
2104.34	524.888
2103.58	492.205
2102.81	505.161
2102.04	540.921
2101.28	514.768
2100.51	472.336
2099.74	508.084
2098.97	501.488
2098.21	468.846
2097.44	511.088
2096.67	488.22
2095.9	504.411
2095.13	465.283
2094.36	510.751
2093.6	484.646
2092.83	465.053
2092.06	455.222
2091.29	494.159
2090.52	526.583
2089.75	532.996
2088.98	497.164
2088.21	516.575
2087.44	493.751
2086.67	490.422
2085.9	516.32
2085.13	503.247
2084.36	512.903
2083.59	503.081
2082.82	515.979
2082.05	528.872
2081.28	496.344
2080.51	570.863
2079.74	505.909
2078.97	505.825
2078.2	515.468
2077.43	551.038
2076.65	557.429
2075.88	505.491
2075.11	469.77
2074.34	524.76
2073.57	508.479
2072.8	566.683
2072.02	472.697
2071.25	537.361
2070.48	546.982
2069.71	521.004
2068.93	504.74
2068.16	530.536
2067.39	481.932
2066.61	501.256
2065.84	569.074
2065.07	533.418
2064.29	536.562
2063.52	539.706
2062.75	500.841
2061.97	578.295
2061.2	565.279
2060.43	503.823
2059.65	500.51
2058.88	510.113
2058.1	545.537
2057.33	548.674
2056.55	519.541
2055.78	554.946
2055	574.209
2054.23	522.508
2053.45	561.12
2052.68	561.027
2051.9	551.263
2051.13	564.064
2050.35	502.74
2049.57	547.767
2048.8	502.573
2048.02	518.596
2047.25	553.936
2046.47	544.184
2045.69	589.167
2044.92	576.194
2044.14	592.19
2043.36	537.388
2042.59	569.473
2041.81	575.812
2041.03	572.5
2040.25	540.248
2039.48	572.311
2038.7	546.498
2037.92	514.266
2037.14	539.89
2036.37	600.849
2035.59	571.837
2034.81	555.682
2034.03	600.551
2033.25	516.966
2032.47	574.668
2031.69	568.153
2030.92	606.571
2030.14	577.591
2029.36	551.829
2028.58	622.308
2027.8	535.61
2027.02	634.929
2026.24	516.195
2025.46	609.073
2024.68	599.357
2023.9	576.825
2023.12	583.138
2022.34	621.483
2021.56	611.771
2020.78	573.24
2020	560.337
2019.21	573.05
2018.43	569.754
2017.65	608.063
2016.87	633.561
2016.09	646.253
2015.31	610.959
2014.53	630.047
2013.74	604.361
2012.96	578.684
2012.18	655.306
2011.4	636.021
2010.62	587.982
2009.83	597.47
2009.05	629.315
2008.27	610.047
2007.49	625.913
2006.7	606.651
2005.92	606.551
2005.14	638.368
2004.35	615.923
2003.57	599.867
2002.79	599.767
2002	586.909
2001.22	570.865
2000.43	589.902
1999.65	634.438
1998.87	672.584
1998.08	621.479
1997.3	618.189
1996.51	649.946
1995.73	624.355
1994.94	649.73
1994.16	620.962
1993.37	620.859
1992.59	604.839
1991.8	620.653
1991.02	617.367
1990.23	639.537
1989.44	610.799
1988.66	623.421
1987.87	671.02
1987.09	661.369
1986.3	689.871
1985.51	654.792
1984.73	626.08
1983.94	664.107
1983.15	641.757
1982.37	644.827
1981.58	654.247
1980.79	650.963
1980	625.455
1979.22	622.177
1978.43	637.943
1977.64	653.703
1976.85	685.322
1976.06	663.002
1975.28	716.811
1974.49	656.439
1973.7	675.354
1972.91	684.752
1972.12	700.486
1971.33	675.016
1970.54	678.072
1969.76	658.951
1968.97	636.669
1968.18	696.735
1967.39	702.952
1966.6	664.844
1965.81	702.718
1965.02	727.92
1964.23	645.526
1963.44	721.35
1962.65	699.086
1961.86	651.528
1961.07	762.098
1960.28	641.826
1959.48	679.653
1958.69	654.255
1957.9	692.067
1957.11	704.59
1956.32	717.109
1955.53	729.624
1954.74	697.922
1953.94	682.018
1953.15	713.474
1952.36	779.64
1951.57	706.924
1950.78	722.583
1949.98	671.985
1949.19	687.644
1948.4	741.144
1947.61	728.407
1946.81	788.188
1946.02	721.86
1945.23	746.953
1944.43	724.77
1943.64	740.402
1942.85	733.978
1942.05	740.155
1941.26	730.584
1940.46	752.502
1939.67	714.6
1938.88	730.218
1938.08	742.684
1937.29	695.364
1936.49	843.105
1935.7	732.876
1934.9	751.623
1934.11	742.064
1933.31	789.097
1932.52	817.255
1931.72	776.263
1930.93	782.418
1930.13	782.287
1929.33	731.897
1928.54	731.775
1927.74	753.633
1926.95	753.507
1926.15	769.077
1925.35	778.364
1924.56	756.268
1923.76	793.791
1922.96	787.385
1922.17	787.253
1921.37	793.393
1920.57	718.011
1919.77	789.993
1918.98	821.205
1918.18	780.327
1917.38	792.73
1916.58	761.269
1915.78	761.142
1914.99	845.572
1914.19	798.462
1913.39	820.243
1912.59	816.976
1911.79	735.468
1910.99	782.282
1910.19	838.466
1909.39	753.868
1908.59	759.997
1907.8	822.41
1907	778.501
1906.2	787.749
1905.4	847.001
1904.6	774.985
1903.8	862.339
1903	809.089
1902.2	771.473
1901.39	749.484
1900.59	774.337
1899.79	758.598
1898.99	780.32
1898.19	798.914
1897.39	783.179
1896.59	804.885
1895.79	845.3
1894.99	823.328
1894.18	820.072
1893.38	876.051
1892.58	854.085
1891.78	906.923
1890.98	860.031
1890.17	884.811
1889.37	800.557
1888.57	909.43
1887.76	862.568
1886.96	868.65
1886.16	874.73
1885.36	812.336
1884.55	809.088
1883.75	852.511
1882.94	830.592
1882.14	811.791
1881.34	814.765
1880.53	830.174
1879.73	820.709
1878.92	780.164
1878.12	814.218
1877.32	879.332
1876.51	851.225
1875.71	879.037
1874.9	860.256
1874.1	881.847
1873.29	866.176
1872.49	800.846
1871.68	952.784
1870.87	896.77
1870.07	859.39
1869.26	853.042
1868.46	834.29
1867.65	964.389
1866.84	899.118
1866.04	892.767
1865.23	883.319
1864.42	880.072
1863.62	836.548
1862.81	870.483
1862	857.948
1861.2	870.191
1860.39	931.969
1859.58	938.004
1858.77	888.323
1857.96	937.689
1857.16	937.531
1856.35	872.407
1855.54	906.285
1854.73	977.262
1853.92	912.164
1853.12	958.385
1852.31	843.855
1851.5	911.704
1850.69	877.561
1849.88	926.845
1849.07	914.334
1848.26	926.534
1847.45	947.993
1846.64	944.746
1845.83	904.458
1845.02	922.824
1844.21	928.84
1843.4	851.551
1842.59	947.037
1841.78	968.468
1840.97	992.975
1840.16	931.143
1839.35	918.655
1838.54	958.569
1837.72	949.163
1836.91	973.652
1836.1	961.166
1835.29	939.443
1834.48	970.081
1833.67	936.048
1832.85	975.912
1832.04	960.357
1831.23	941.73
1830.42	969.265
1829.6	966.025
1828.79	987.394
1827.98	953.398
1827.17	940.937
1826.35	1048.38
1825.54	983.655
1824.73	971.196
1823.91	986.396
1823.1	980.086
1822.29	976.849
1821.47	982.827
1820.66	1004.16
1819.84	973.284
1819.03	994.609
1818.21	979.095
1817.4	1015.75
1816.58	1046.27
1815.77	941.787
1814.95	1015.24
1814.14	1015.07
1813.32	987.303
1812.51	984.071
1811.69	1066.66
1810.88	1011.32
1810.06	977.445
1809.25	1038.55
1808.43	986.305
1807.61	1038.2
1806.8	970.662
1805.98	1034.79
1805.16	970.334
1804.35	1006.9
1803.53	1009.79
1802.71	997.378
1801.89	1033.92
1801.08	987.866
1800.26	999.931
1799.44	963.074
1798.62	1005.71
1797.81	1026.93
1796.99	1026.76
1796.17	1063.25
1795.35	1020.3
1794.53	1072.05
1793.71	989.42
1792.9	1025.89
1792.08	1062.35
1791.26	985.866
1790.44	1007.06
1789.62	1037.4
1788.8	1018.92
1787.98	1003.5
1787.16	991.133
1786.34	1079.39
1785.52	1051.77
1784.7	1011.97
1783.88	1069.7
1783.06	1066.47
1782.24	1044.97
1781.42	1032.61
1780.6	1050.7
1779.78	1056.62
1778.95	1099.06
1778.13	1104.96
1777.31	1056.08
1776.49	1107.63
1775.67	1073.98
1774.85	1092.05
1774.02	1046.24
1773.2	1094.72
1772.38	1091.49
1771.56	1066.99
1770.74	1097.2
1769.91	1063.59
1769.09	1078.6
1768.27	1090.57
1767.44	1132.91
1766.62	1075.02
1765.8	1074.84
1764.97	1068.58
1764.15	1116.96
1763.33	1059.12
1762.5	1086.24
1761.68	1095.16
1760.85	1088.91
1760.03	1079.63
1759.21	1091.57
1758.38	1067.14
1757.56	1124.55
1756.73	1100.11
1755.91	1060.53
1755.08	1166.39
1754.26	1123.78
1753.43	1105.42
1752.6	1144.6
1751.78	1102.02
1750.95	1098.81
1750.13	1125.86
1749.3	1143.82
1748.47	1040.76
1747.65	1061.76
1746.82	1091.83
1745.99	1155.14
1745.17	1157.97
1744.34	1097.32
1743.51	1127.36
1742.69	1139.25
1741.86	1105.82
1741.03	1096.57
1740.2	1141.69
1739.38	1171.7
1738.55	1126.21
1737.72	1225.64
1736.89	1098.66
1736.06	1107.53
1735.23	1125.44
1734.4	1140.34
1733.58	1055.69
1732.75	1079.64
1731.92	1151.82
1731.09	1124.49
1730.26	1130.33
1729.43	1190.41
1728.6	1223.35
1727.77	1153.85
1726.94	1129.56
1726.11	1135.39
1725.28	1171.33
1724.45	1128.99
1723.62	1185.99
1722.79	1200.83
1721.96	1119.38
1721.13	1074.06
1720.3	1194.2
1719.46	1172.95
1718.63	1166.74
1717.8	1205.62
1716.97	1157.32
1716.14	1139.09
1715.31	1141.9
1714.47	1147.72
1713.64	1210.61
1712.81	1159.34
1711.98	1222.21
1711.14	1222
1710.31	1263.82
1709.48	1146.55
1708.65	1209.37
1707.81	1149.16
1706.98	1244.96
1706.15	1136.77
1705.31	1184.56
1704.48	1175.36
1703.64	1196.15
1702.81	1255.89
1701.98	1261.67
1701.14	1216.51
1700.31	1165.38
1699.47	1162.18
1698.64	1155.99
1697.8	1224.67
1696.97	1215.48
1696.13	1194.32
1695.3	1256.96
1694.46	1244.78
1693.63	1226.62
1692.79	1280.25
1691.95	1202.27
1691.12	1196.09
1690.28	1267.64
1689.45	1261.44
1688.61	1204.44
1687.77	1240.1
1686.94	1207.02
1686.1	1209.8
1685.26	1236.48
1684.42	1197.45
1683.59	1250.98
1682.75	1238.83
1681.91	1232.65
1681.07	1262.28
1680.24	1265.05
1679.4	1181.31
1678.56	1261.63
1677.72	1258.44
1676.88	1249.28
1676.04	1147.71
1675.21	1281.64
1674.37	1278.44
1673.53	1227.57
1672.69	1275.03
1671.85	1212.26
1671.01	1229.92
1670.17	1199.94
1669.33	1265.23
1668.49	1265.01
1667.65	1303.48
1666.81	1335.99
1665.97	1261.39
1665.13	1273.07
1664.29	1308.54
1663.45	1260.74
1662.61	1275.39
1661.77	1290.04
1660.92	1298.73
1660.08	1253.94
1659.24	1241.84
1658.4	1256.48
1657.56	1330.51
1656.72	1291.68
1655.87	1276.62
1655.03	1255.62
1654.19	1249.47
1653.35	1287.84
1652.5	1272.78
1651.66	1311.13
1650.82	1304.97
1649.98	1313.64
1649.13	1277.84
1648.29	1295.41
1647.45	1277.41
1646.6	1342.38
1645.76	1359.93
1644.91	1297.49
1644.07	1347.62
1643.23	1285.2
1642.38	1276.1
1641.54	1284.76
1640.69	1367.41
1639.85	1287.28
1639	1266.35
1638.16	1269.09
1637.31	1319.15
1636.47	1286.4
1635.62	1274.35
1634.78	1283
1633.93	1344.85
1633.08	1368.27
1632.24	1421.22
1631.39	1376.66
1630.55	1305.54
1629.7	1349.61
1628.85	1322.81
1628.01	1381.62
1627.16	1286.93
1626.31	1301.47
1625.46	1239.28
1624.62	1324.62
1623.77	1294.9
1622.92	1288.78
1622.07	1256.13
1621.23	1373.84
1620.38	1341.18
1619.53	1361.58
1618.68	1317.14
1617.83	1349.33
1616.98	1352.04
1616.13	1345.92
1615.29	1266.18
1614.44	1316.02
1613.59	1398.21
1612.74	1350.88
1611.89	1291.8
1611.04	1332.77
1610.19	1406.08
1609.34	1382.31
1608.49	1417.36
1607.64	1305.39
1606.79	1469.79
1605.94	1313.76
1605.09	1451.65
1604.24	1360.32
1603.38	1354.22
1602.53	1342.23
1601.68	1362.56
1600.83	1412.24
1599.98	1362.09
1599.13	1435.24
1598.27	1373.36
1597.42	1399.54
1596.57	1396.36
1595.72	1393.19
1594.87	1363.63
1594.01	1419.1
1593.16	1424.72
1592.31	1333.61
1591.45	1377.34
1590.6	1374.18
1589.75	1394.45
1588.89	1347.34
1588.04	1320.76
1587.19	1399.58
1586.33	1367.14
1585.48	1463.5
1584.62	1346.19
1583.77	1310.84
1582.92	1325.25
1582.06	1427.39
1581.21	1371.58
1580.35	1388.89
1579.5	1353.57
1578.64	1329.96
1577.78	1399.87
1576.93	1446.38
1576.07	1352.64
1575.22	1346.57
1574.36	1410.59
1573.51	1471.66
1572.65	1296.24
1571.79	1377.75
1570.94	1365.84
1570.08	1412.29
1569.22	1470.4
1568.37	1379.72
1567.51	1347.4
1566.65	1422.99
1565.79	1437.32
1564.94	1419.58
1564.08	1465.97
1563.22	1489.03
1562.36	1421.76
1561.5	1406.95
1560.65	1482.44
1559.79	1432.68
1558.93	1449.9
1558.07	1534.07
1557.21	1382.46
1556.35	1347.3
1555.49	1445.99
1554.63	1573.74
1553.77	1401.87
1552.91	1413.26
1552.05	1456.63
1551.19	1395.33
1550.33	1511.35
1549.47	1423.91
1548.61	1409.14
1547.75	1519.28
1546.89	1460.93
1546.03	1454.87
1545.17	1419.78
1544.31	1405.02
1543.45	1445.42
1542.58	1462.58
1541.72	1514.55
1540.86	1491.08
1540	1479.23
1539.14	1458.67
1538.28	1417.83
1537.41	1365.4
1536.55	1469.51
1535.69	1466.36
1534.82	1506.67
1533.96	1442.68
1533.1	1503.26
1532.24	1529.06
1531.37	1520.11
1530.51	1421.42
1529.64	1409.6
1528.78	1455.66
1527.92	1438.05
1527.05	1481.19
1526.19	1460.69
1525.32	1552.98
1524.46	1532.47
1523.59	1497.52
1522.73	1445.23
1521.86	1528.79
1521	1462.07
1520.13	1562.93
1519.27	1516.44
1518.4	1501.74
1517.54	1510.15
1516.67	1449.26
1515.8	1524.06
1514.94	1500.71
1514.07	1465.82
1513.21	1445.37
1512.34	1537.43
1511.47	1456.41
1510.6	1444.63
1509.74	1476.09
1508.87	1449.89
1508	1438.11
1507.14	1573.3
1506.27	1518.28
1505.4	1506.5
1504.53	1546.56
1503.66	1543.41
1502.8	1563.3
1501.93	1476.67
1501.06	1551.25
1500.19	1510.69
1499.32	1573.73
1498.45	1561.95
1497.58	1498.41
1496.71	1584.41
1495.84	1558.27
1494.97	1535
1494.1	1520.36
1493.23	1511.48
1492.36	1534.2
1491.49	1591.39
1490.62	1602.6
1489.75	1559.25
1488.88	1561.85
1488.01	1530.01
1487.14	1526.87
1486.27	1632.78
1485.4	1575.12
1484.52	1531.82
1483.65	1548.76
1482.78	1631.65
1481.91	1725.98
1481.04	1679.82
1480.17	1688.13
1479.29	1676.37
1478.42	1618.78
1477.55	1750.27
1476.67	1666.91
1475.8	1752.53
1474.93	1783.72
1474.06	1829.21
1473.18	1854.66
1472.31	1828.58
1471.43	1859.74
1470.56	1988.14
1469.69	2110.79
1468.81	2161.89
1467.94	2227.28
1467.06	2238.33
1466.19	2232.22
1465.31	2360.43
1464.44	2528.6
1463.56	2482.45
1462.69	2587.7
1461.81	2504.44
1460.94	2569.67
1460.06	2632.03
1459.19	2668.68
1458.31	2545.51
1457.43	2701.99
1456.56	2650.18
1455.68	2746.69
1454.8	2669.22
1453.93	2580.37
1453.05	2579.92
1452.17	2693.48
1451.3	2601.82
1450.42	2550.09
1449.54	2626.56
1448.66	2594.77
1447.78	2645.58
1446.91	2608.11
1446.03	2647.51
1445.15	2709.67
1444.27	2888.49
1443.39	2762.79
1442.51	3100.85
1441.64	3177.1
1440.76	3381.31
1439.88	3448.96
1439	3653.05
1438.12	3680.84
1437.24	3756.93
1436.36	3585.79
1435.48	3406.2
1434.6	3232.34
1433.72	3109.67
1432.84	2910.37
1431.96	2762.24
1431.08	2608.49
1430.2	2466.14
1429.31	2295.47
1428.43	2283.72
1427.55	2189.72
1426.67	2138.29
1425.79	2084.05
1424.91	2004.31
1424.02	2037.97
1423.14	2023.45
1422.26	1963.59
1421.38	1985.92
1420.49	2019.56
1419.61	2064.52
1418.73	2100.97
1417.85	2143.07
1416.96	2289.89
1416.08	2397.03
1415.2	2422.08
1414.31	2254.74
1413.43	2155.35
1412.54	1962.67
1411.66	1806.81
1410.78	1766.92
1409.89	1673.33
1409.01	1769.13
1408.12	1616.24
1407.24	1548.16
1406.35	1641.1
1405.47	1573.04
1404.58	1654.65
1403.7	1583.78
1402.81	1566.57
1401.92	1608.63
1401.04	1518.05
1400.15	1531.9
1399.27	1573.94
1398.38	1503.16
1397.49	1536.74
1396.61	1508.28
1395.72	1544.66
1394.83	1637.39
1393.94	1518.76
1393.06	1549.48
1392.17	1521.05
1391.28	1503.88
1390.39	1551.49
1389.51	1570.93
1388.62	1497.47
1387.73	1561.94
1386.84	1471.62
1385.95	1536.07
1385.06	1566.75
1384.17	1577.72
1383.29	1580.26
1382.4	1512.51
1381.51	1571.28
1380.62	1587.86
1379.73	1553.87
1378.84	1533.93
1377.95	1617.93
1377.06	1530.59
1376.17	1594.9
1375.28	1698.5
1374.39	1633.64
1373.5	1638.97
1372.6	1677.97
1371.71	1728.18
1370.82	1677.38
1369.93	1747.2
1369.04	1828.22
1368.15	1763.41
1367.26	1765.91
1366.36	1774.01
1365.47	1686.84
1364.58	1736.97
1363.69	1649.83
1362.79	1711.16
1361.9	1691.26
1361.01	1604.18
1360.11	1500.33
1359.22	1651.19
1358.33	1594.94
1357.43	1575.08
1356.54	1572.01
1355.65	1666.82
1354.75	1641.36
1353.86	1557.2
1352.96	1665.95
1352.07	1556.66
1351.17	1615.07
1350.28	1581.26
1349.39	1650.81
1348.49	1633.77
1347.59	1661.41
1346.7	1672.28
1345.8	1660.83
1344.91	1654.95
1344.01	1629.55
1343.12	1584.63
1342.22	1615.03
1341.32	1603.6
1340.43	1614.47
1339.53	1639.28
1338.63	1680.8
1337.74	1674.93
1336.84	1624.49
1335.94	1590.77
1335.04	1596.06
1334.15	1579.07
1333.25	1640.06
1332.35	1592.44
1331.45	1628.35
1330.55	1589.1
1329.66	1566.56
1328.76	1635.84
1327.86	1582.7
1326.96	1754.85
1326.06	1640.54
1325.16	1679.18
1324.26	1737.25
1323.36	1695.26
1322.46	1722.75
1321.56	1711.34
1320.66	1755.48
1319.76	1680.19
1318.86	1813.18
1317.96	1771.21
1317.06	1804.21
1316.16	1756.72
1315.26	1761.96
1314.36	1806.04
1313.46	1814.04
1312.55	1858.1
1311.65	1882.73
1310.75	1968.34
1309.85	1943.05
1308.95	1912.22
1308.04	1981.16
1307.14	2036.22
1306.24	2033.09
1305.34	2079.81
1304.43	2046.22
1303.53	2137.22
1302.63	2203.28
1301.72	2202.89
1300.82	2274.45
1299.92	2304.48
1299.01	2439.61
1298.11	2535.97
1297.21	2776.08
1296.3	3342.33
1295.4	4146.08
1294.49	4615.16
1293.59	4821.58
1292.68	4364.9
1291.78	3576.94
1290.87	2850
1289.97	2404.96
1289.06	2125.71
1288.16	1970.76
1287.25	1906.95
1286.34	1859.7
1285.44	1740.75
1284.53	1757
1283.62	1673.95
1282.72	1654.36
1281.81	1623.74
1280.9	1598.65
1280	1601.13
1279.09	1584.31
1278.18	1553.73
1277.27	1583.76
1276.37	1630.29
1275.46	1506.11
1274.55	1508.59
1273.64	1571.63
1272.73	1513.57
1271.82	1535.31
1270.92	1551.55
1270.01	1523.77
1269.1	1490.5
1268.19	1470.99
1267.28	1520.22
1266.37	1453.99
1265.46	1475.71
1264.55	1426
1263.64	1433.99
1262.73	1477.68
1261.82	1449.96
1260.91	1449.71
1260	1369.84
1259.09	1375.09
1258.18	1421.5
1257.27	1423.99
1256.35	1475.86
1255.44	1442.69
1254.53	1354.68
1253.62	1291.38
1252.71	1485.79
1251.79	1408.78
1250.88	1378.39
1249.97	1268.56
1249.06	1268.33
1248.14	1331.1
1247.23	1371.94
1246.32	1420.99
1245.41	1420.74
1244.49	1371.22
1243.58	1286.15
1242.66	1274.98
1241.75	1307.58
1240.84	1301.88
1239.92	1389.15
1239.01	1323.29
1238.09	1336.73
1237.18	1361.09
1236.26	1333.52
1235.35	1409.79
1234.43	1305.74
1233.52	1343.74
1232.6	1370.81
1231.69	1346
1230.77	1375.79
1229.86	1320.96
1228.94	1361.66
1228.02	1323.22
1227.11	1317.53
1226.19	1330.94
1225.27	1317.07
1224.36	1371.36
1223.44	1341.14
1222.52	1346.35
1221.6	1332.49
1220.69	1329.53
1219.77	1288.43
1218.85	1361.74
1217.93	1315.21
1217.01	1323.14
1216.1	1352.85
1215.18	1322.68
1214.26	1365.98
1213.34	1305.89
1212.42	1381.82
1211.5	1297.27
1210.58	1286.16
1209.66	1324
1208.74	1302.02
1207.82	1309.94
1206.9	1347.75
1205.98	1342.08
1205.06	1290.23
1204.14	1314.44
1203.22	1327.79
1202.3	1365.56
1201.38	1283.89
1200.46	1370.51
1199.54	1313.28
1198.61	1291.35
1197.69	1315.53
1196.77	1369.54
1195.85	1263.55
1194.93	1293.15
1194	1352.55
1193.08	1330.63
1192.16	1406.26
1191.24	1313.9
1190.31	1302.84
1189.39	1278.23
1188.47	1315.91
1187.54	1277.78
1186.62	1358.76
1185.7	1296.27
1184.77	1339.33
1183.85	1360.74
1182.92	1273.95
1182	1373.78
1181.07	1362.72
1180.15	1340.85
1179.23	1300.07
1178.3	1359.29
1177.37	1386.07
1176.45	1385.83
1175.52	1369.38
1174.6	1366.43
1173.67	1395.89
1172.75	1379.45
1171.82	1446.68
1170.89	1473.41
1169.97	1527.11
1169.04	1521.44
1168.11	1602.09
1167.19	1510.12
1166.26	1480.19
1165.33	1477.23
1164.4	1377.25
1163.48	1420.12
1162.55	1374.07
1161.62	1460.02
1160.69	1319.71
1159.76	1448.73
1158.83	1359.63
1157.91	1327.09
1156.98	1286.48
1156.05	1372.36
1155.12	1388.26
1154.19	1366.49
1153.26	1312.46
1152.33	1355.25
1151.4	1322.75
1150.47	1421.97
1149.54	1381.41
1148.61	1362.35
1147.68	1394.35
1146.75	1412.91
1145.82	1434.14
1144.89	1452.68
1143.96	1417.52
1143.02	1374.32
1142.09	1497.53
1141.16	1446.28
1140.23	1529.19
1139.3	1469.91
1138.36	1552.79
1137.43	1598.09
1136.5	1525.43
1135.57	1653.82
1134.63	1693.72
1133.7	1816.68
1132.77	1851.18
1131.83	2107.99
1130.9	2380.77
1129.97	2559.75
1129.03	2749.36
1128.1	2922.85
1127.17	2935.71
1126.23	2598.06
1125.3	2627.03
1124.36	2326.99
1123.43	2093.92
1122.49	1919.75
1121.56	1761.69
1120.62	1713.27
1119.69	1608.74
1118.75	1557.69
1117.81	1592.14
1116.88	1581.17
1115.94	1535.49
1115.01	1479.15
1114.07	1441.52
1113.13	1473.29
1112.2	1398.31
1111.26	1486.1
1110.32	1392.47
1109.38	1472.24
1108.45	1487.98
1107.51	1458.38
1106.57	1362.16
1105.63	1425.88
1104.69	1385.66
1103.76	1433.37
1102.82	1441.1
1101.88	1478.13
1100.94	1456.57
1100	1421.7
1099.06	1429.43
1098.12	1434.5
1097.18	1458.19
1096.24	1433.99
1095.3	1505.55
1094.36	1465.39
1093.42	1515.65
1092.48	1552.6
1091.54	1525.74
1090.6	1557.36
1089.66	1549.11
1088.72	1551.49
1087.78	1548.56
1086.84	1598.74
1085.9	1627.67
1084.95	1608.79
1084.01	1574
1083.07	1637.41
1082.13	1666.31
1081.19	1676.62
1080.24	1678.97
1079.3	1654.81
1078.36	1686.33
1077.41	1717.84
1076.47	1651.27
1075.53	1664.23
1074.58	1653.33
1073.64	1642.44
1072.7	1602.42
1071.75	1742.48
1070.81	1596.55
1069.86	1651.85
1068.92	1762.72
1067.98	1804.75
1067.03	1854.7
1066.09	2116.25
1065.14	2303.66
1064.19	2583.55
1063.25	2860.7
1062.3	3158.89
1061.36	3079.04
1060.41	2909.37
1059.46	2887.71
1058.52	2501.53
1057.57	2252.83
1056.63	2070.22
1055.68	1803.2
1054.73	1668.26
1053.78	1665.32
1052.84	1670.3
1051.89	1561.83
1050.94	1540.45
1049.99	1474.24
1049.05	1463.43
1048.1	1515.9
1047.15	1462.91
1046.2	1438.93
1045.25	1480.83
1044.3	1404.17
1043.35	1316.99
1042.4	1398.4
1041.45	1379.72
1040.5	1466.34
1039.55	1379.22
1038.6	1371.08
1037.65	1355.05
1036.7	1402.16
1035.75	1362.45
1034.8	1328.02
1033.85	1422.44
1032.9	1377.5
1031.95	1353.59
1031	1403.28
1030.05	1434.56
1029.1	1376.51
1028.14	1378.89
1027.19	1326.12
1026.24	1357.39
1025.29	1372.9
1024.33	1401.52
1023.38	1401.27
1022.43	1359.04
1021.48	1308.96
1020.52	1353.31
1019.57	1311.11
1018.62	1326.61
1017.66	1378.79
1016.71	1331.37
1015.75	1315.41
1014.8	1349.24
1013.85	1293.99
1012.89	1330.42
1011.94	1361.6
1010.98	1259.26
1010.03	1324.47
1009.07	1342.55
1008.12	1323.99
1007.16	1326.37
1006.2	1341.83
1005.25	1310.2
1004.29	1309.97
1003.34	1330.65
1002.38	1356.55
1001.42	1301.42
1000.47	1303.8
999.508	1355.82
998.551	1345.13
997.594	1331.83
996.636	1334.2
995.679	1297.41
994.721	1299.79
993.763	1317.82
992.805	1356.72
991.846	1309.52
990.888	1343.2
989.929	1366.42
988.97	1254.07
988.011	1345.08
987.052	1376.11
986.093	1323.75
985.133	1326.12
984.173	1255.55
983.213	1323.04
982.253	1338.42
981.293	1286.11
980.333	1288.48
979.372	1314.28
978.411	1327.05
977.45	1329.41
976.489	1269.35
975.528	1323.73
974.566	1261.09
973.605	1297.26
972.643	1330.82
971.681	1343.57
970.719	1312.15
969.756	1262.56
968.794	1319.47
967.831	1290.67
966.868	1321.59
965.905	1336.93
964.942	1357.45
963.979	1276.76
963.015	1367.34
962.052	1320.4
961.088	1317.57
960.124	1275.85
959.159	1301.54
958.195	1311.68
957.23	1308.85
956.266	1347.48
955.301	1308.38
954.336	1261.52
953.37	1377.83
952.405	1307.67
951.439	1291.9
950.473	1358.97
949.507	1338.02
948.541	1363.66
947.575	1316.84
946.608	1357.99
945.642	1300.85
944.675	1373.02
943.708	1315.89
942.741	1416.46
941.773	1349.02
940.806	1335.85
939.838	1369.2
938.87	1368.95
937.902	1345.46
936.934	1334.89
935.965	1339.81
934.997	1349.89
934.028	1367.72
933.059	1395.85
932.09	1354.32
931.121	1369.55
930.151	1317.73
929.182	1392.26
928.212	1402.32
927.242	1409.8
926.272	1409.55
925.301	1350.04
924.331	1419.34
923.36	1416.51
922.389	1390.51
921.418	1369.66
920.447	1356.54
919.475	1394.9
918.504	1440.97
917.532	1407.26
916.56	1412.15
915.588	1429.9
914.616	1396.21
913.643	1437.09
912.671	1421.41
911.698	1480.26
910.725	1490.27
909.752	1392.38
908.779	1392.13
907.805	1422.7
906.831	1417.3
905.858	1435.02
904.883	1396.26
903.909	1426.8
902.935	1388.06
901.96	1490.42
900.986	1554.27
900.011	1461.67
899.036	1528.07
898.06	1466.27
897.085	1448.06
896.109	1493.92
895.133	1583.33
894.157	1426.78
893.181	1534.09
892.205	1477.48
891.229	1543.78
890.252	1461.59
889.275	1494.59
888.298	1481.53
887.321	1555.45
886.343	1450.3
885.366	1460.27
884.388	1470.23
883.41	1513.42
882.432	1446.69
881.454	1489.87
880.475	1484.49
879.497	1489.33
878.518	1522.27
877.539	1473.47
876.56	1506.4
875.58	1580.16
874.601	1475.22
873.621	1497.92
872.641	1589.5
871.661	1548.4
870.681	1553.22
869.701	1527.44
868.72	1557.76
867.739	1452.96
866.758	1564.84
865.777	1503.4
864.796	1513.32
863.815	1597.1
862.833	1497.49
861.851	1522.68
860.869	1494.4
859.887	1557.76
858.905	1532.03
857.922	1539.39
856.939	1493.31
855.956	1480.33
854.973	1447
853.99	1512.84
853.007	1510.03
852.023	1535.17
851.039	1524.72
850.055	1565.1
849.071	1526.71
848.087	1577.23
847.102	1521.08
846.118	1513.19
845.133	1457.07
844.148	1497.41
843.163	1476.84
842.177	1557.75
841.192	1481.37
840.206	1521.68
839.22	1549.3
838.234	1516.06
837.248	1538.6
836.261	1556.06
835.274	1484.83
834.288	1525.09
833.301	1555.21
832.313	1484.02
831.326	1493.88
830.339	1465.76
829.351	1581.92
828.363	1601.88
827.375	1543.39
826.387	1576
825.398	1542.83
824.409	1524.85
823.421	1625.71
822.432	1521.77
821.443	1473.47
820.453	1503.53
819.464	1500.73
818.474	1566.13
817.484	1560.79
816.494	1459.5
815.504	1469.34
814.513	1522.08
813.523	1519.28
812.532	1561.9
811.541	1521.25
810.55	1490.7
809.559	1477.82
808.567	1535.55
807.575	1517.62
806.583	1504.74
805.591	1529.67
804.599	1552.06
803.607	1468.65
802.614	1591.8
801.621	1533.59
800.628	1548.42
799.635	1485.2
798.642	1527.72
797.649	1582.8
796.655	1610.19
795.661	1584.74
794.667	1624.69
793.673	1584.16
792.678	1518.51
791.684	1631.34
790.689	1522.98
789.694	1537.78
788.699	1522.42
787.704	1579.92
786.708	1552
785.713	1576.83
784.717	1538.89
783.721	1541.11
782.724	1563.42
781.728	1512.95
780.731	1507.66
779.735	1487.32
778.738	1522.16
777.741	1481.76
776.743	1456.42
775.746	1558.92
774.748	1591.21
773.75	1533.29
772.752	1628.2
771.754	1660.46
770.756	1595.05
769.757	1584.75
768.758	1556.93
767.759	1629.22
766.76	1603.9
765.761	1548.57
764.761	1558.29
763.762	1545.5
762.762	1592.73
761.762	1552.44
760.762	1594.64
759.761	1526.88
758.761	1524.1
757.76	1548.8
756.759	1610.96
755.758	1585.7
754.756	1610.37
753.755	1512.72
752.753	1677.17
751.751	1646.92
750.749	1649.11
749.747	1673.76
748.745	1683.43
747.742	1685.61
746.739	1622.98
745.736	1575.32
744.733	1644.81
743.73	1564.78
742.726	1661.65
741.723	1584.13
740.719	1678.47
739.715	1670.7
738.71	1645.5
737.706	1665.11
736.701	1654.85
735.697	1649.57
734.692	1624.39
733.686	1661.4
732.681	1685.96
731.675	1797.53
730.67	1690.32
729.664	1667.64
728.658	1726.97
727.651	1734.11
726.645	1703.98
725.638	1763.28
724.631	1708.33
723.624	1720.43
722.617	1710.18
721.61	1784.32
720.602	1759.18
719.595	1773.74
718.587	1798.22
717.578	1696.22
716.57	1643.84
715.562	1703.03
714.553	1831.6
713.544	1759.4
712.535	1729.35
711.526	1761.23
710.516	1807.97
709.507	1857.16
708.497	1812.26
707.487	1824.3
706.477	1799.22
705.467	1764.24
704.456	1758.97
703.445	1803.17
702.434	1753.38
701.423	1772.84
700.412	1794.76
699.401	1853.76
698.389	1826.23
697.377	1778.95
696.365	1795.92
695.353	1817.82
694.34	1773.03
693.328	1782.58
692.315	1829.16
691.302	1811.55
690.289	1803.81
689.276	1793.61
688.262	1837.68
687.249	1822.55
686.235	1864.13
685.221	1871.18
684.206	1816.61
683.192	1826.14
682.177	1875.08
681.162	1867.34
680.147	1862.07
679.132	1997.18
678.117	1878.63
677.101	1925.05
676.086	1841.02
675.07	1924.34
674.054	1823.12
673.037	1948.24
672.021	1945.42
671.004	1918.01
669.987	1942.24
668.97	1843.56
667.953	1902.21
666.936	1857.63
665.918	1903.96
664.9	1933.09
663.882	1959.75
662.864	1883.27
661.846	1990.94
660.827	1978.3
659.808	1926.4
658.789	1965.31
657.77	2009.1
656.751	1937.6
655.731	2008.36
654.712	2049.67
653.692	2081.16
652.672	2066.07
651.652	2053.44
650.631	2080.01
649.611	2062.48
648.59	2111.08
647.569	2113.14
646.548	2112.75
645.526	2185.79
644.505	2148.68
643.483	2270.63
642.461	2331.37
641.439	2211.09
640.417	2271.82
639.394	2425.43
638.371	2336.98
637.348	2314.55
636.325	2397.21
635.302	2467.62
634.279	2469.61
633.255	2478.92
632.231	2524.86
631.207	2468.24
630.183	2584.95
629.159	2662.57
628.134	2747.48
627.109	2671.35
626.084	2814.76
625.059	2850.82
624.034	2825.91
623.008	2981.41
621.983	2975.99
620.957	3072.91
619.931	3186.86
618.904	3242.3
617.878	3339.12
616.851	3316.59
615.824	3369.54
614.797	3412.73
613.77	3502.15
612.743	3547.73
611.715	3500.85
610.687	3582.91
609.659	3582.25
608.631	3513.5
607.603	3483.68
606.574	3451.44
605.546	3518.84
604.517	3472.03
603.487	3442.24
602.458	3470.75
601.429	3212.7
600.399	3333.5
599.369	3221.22
598.339	3237.62
597.309	3098.7
596.278	3030.2
595.248	3034.49
594.217	3036.35
593.186	2897.58
592.155	2964.93
591.123	2765.62
590.091	2801.46
589.06	2895.44
588.028	2705.95
586.996	2654.58
585.963	2680.73
584.931	2607.6
583.898	2604.69
582.865	2604.21
581.832	2560.17
580.798	2528.25
579.765	2571.32
578.731	2536.98
577.697	2584.88
576.663	2475.61
575.629	2455.81
574.594	2423.94
573.56	2442.82
572.525	2321.58
571.49	2408.1
570.455	2371.43
569.419	2356.5
568.384	2382.62
567.348	2244.61
566.312	2316.58
565.276	2284.79
564.239	2228.89
563.203	2194.71
562.166	2314.87
561.129	2333.72
560.092	2364.63
559.054	2299.12
558.017	2310.74
556.979	2319.95
555.941	2288.21
554.903	2372.07
553.865	2227.16
552.826	2205.08
551.787	2183.01
550.749	2247.58
549.709	2206.26
548.67	2210.66
547.631	2255.95
546.591	2257.94
545.551	2240.69
544.511	2209.02
543.471	2275.91
542.43	2371.6
541.39	2188.57
540.349	2238.61
539.308	2223.78
538.267	2266.59
537.225	2263.77
536.184	2205.74
535.142	2207.73
534.1	2245.71
533.058	2230.9
532.015	2170.53
530.973	2131.76
529.93	2167.32
528.887	2145.35
527.844	2104.21
526.801	2214.04
525.757	2158.53
524.713	2201.24
523.669	2239.15
522.625	2284.22
521.581	2264.65
520.537	2405.44
519.492	2381.06
518.447	2387.8
517.402	2229.47
516.357	2319.94
515.311	2274.08
514.265	2197.15
513.22	2218.25
512.174	2239.35
511.127	2267.61
510.081	2283.91
509.034	2137.78
507.987	2173.2
506.94	2117.88
505.893	2181.94
504.846	2217.34
503.798	2221.7
502.75	2233.21
501.702	2192.25
500.654	2225.23
499.606	2370.27
