3200.66	37.8892
3200.06	42.0991
3199.47	54.7206
3198.87	-16.8346
3198.28	8.41601
3197.69	8.41473
3197.09	21.0337
3196.5	16.8244
3195.9	21.0273
3195.31	25.2289
3194.71	29.4293
3194.12	16.8142
3193.52	21.0146
3192.93	12.6068
3192.33	16.8066
3191.74	37.8091
3191.14	29.4026
3190.55	16.799
3189.95	-12.5973
3189.36	20.9923
3188.76	-20.9892
3188.17	50.3664
3187.57	79.7347
3186.97	37.7634
3186.38	33.5624
3185.78	12.584
3185.19	8.38805
3184.59	25.1603
3183.99	37.7348
3183.4	4.19212
3182.8	46.1064
3182.2	25.1451
3181.61	46.0924
3181.01	50.275
3180.41	41.8895
3179.82	8.37663
3179.22	4.18768
3178.62	20.9352
3178.03	16.7457
3177.43	33.4862
3176.83	62.7772
3176.23	25.1071
3175.64	16.7355
3175.04	0
3174.44	12.5478
3173.84	12.5459
3173.25	25.0881
3172.65	41.8071
3172.05	29.2606
3171.45	16.7178
3170.85	16.7153
3170.26	33.4254
3169.66	45.953
3169.06	29.2384
3168.46	12.5288
3167.86	25.0539
3167.26	29.2251
3166.66	25.0463
3166.06	-12.5213
3165.47	20.8656
3164.87	29.2074
3164.27	25.0311
3163.67	41.7122
3163.07	29.1941
3162.47	33.3597
3161.87	12.508
3161.27	0
3160.67	62.5209
3160.07	4.16743
3159.47	25.0008
3158.87	29.1632
3158.27	29.1587
3157.67	33.3192
3157.07	29.1499
3156.47	33.3091
3155.87	24.978
3155.27	4.16238
3154.67	41.6175
3154.07	-4.16111
3153.46	0
3152.86	12.4796
3152.26	8.31844
3151.66	33.2687
3151.06	41.5796
3150.46	12.472
3149.86	49.8804
3149.26	45.7167
3148.65	24.9326
3148.05	24.9288
3147.45	29.0792
3146.85	33.2284
3146.25	20.7646
3145.64	-4.15228
3145.04	20.7583
3144.44	29.0572
3143.84	20.752
3143.24	58.0967
3142.63	4.14913
3142.03	33.188
3141.43	16.5915
3140.82	16.589
3140.22	29.0263
3139.62	16.5839
3139.02	24.8721
3138.41	16.5789
3137.81	24.8646
3137.21	-4.14347
3136.6	41.4284
3136	37.2799
3135.4	28.9911
3134.79	20.7047
3134.19	28.9822
3133.58	12.4191
3132.98	78.6422
3132.38	12.4153
3131.77	16.5512
3131.17	4.13718
3130.56	4.13655
3129.96	12.4078
3129.35	37.2176
3128.75	57.8853
3128.14	28.9382
3127.54	8.26681
3126.93	28.9294
3126.33	45.4536
3125.72	20.6576
3125.12	33.0471
3124.51	37.1724
3123.91	37.1667
3123.3	57.8061
3122.7	12.3851
3122.09	24.7665
3121.49	4.12713
3120.88	37.1385
3120.27	45.3846
3119.67	28.8767
3119.06	32.9969
3118.46	16.496
3117.85	16.4934
3117.24	24.7364
3116.64	49.4653
3116.03	24.7289
3115.42	16.4834
3114.82	20.6011
3114.21	65.9136
3113.6	8.23794
3113	20.5917
3112.39	24.7063
3111.78	0
3111.17	37.0482
3110.57	16.4634
3109.96	28.8065
3109.35	20.5729
3108.74	41.1396
3108.14	12.34
3107.53	41.1271
3106.92	28.7846
3106.31	37.0031
3105.7	24.665
3105.1	28.7714
3104.49	16.4383
3103.88	32.8716
3103.27	28.7583
3102.66	24.6462
3102.05	8.21415
3101.44	32.8516
3100.84	41.0582
3100.23	36.9468
3099.62	36.9412
3099.01	36.9355
3098.4	32.8266
3097.79	36.9243
3097.18	32.8166
3096.57	12.3043
3095.96	36.9074
3095.35	49.2024
3094.74	-4.09957
3094.13	20.4947
3093.52	45.0816
3092.91	28.6839
3092.3	20.4854
3091.69	20.4822
3091.08	12.2875
3090.47	24.5712
3089.86	16.3783
3089.25	32.7516
3088.64	36.84
3088.03	12.2781
3087.42	32.7366
3086.81	8.18291
3086.19	28.6358
3085.58	12.2706
3084.97	36.8063
3084.36	53.1565
3083.75	57.2367
3083.14	32.7017
3082.53	36.7838
3081.91	57.2105
3081.3	24.5151
3080.69	4.08522
3080.08	16.3384
3079.47	36.7558
3078.85	49.0002
3078.24	16.3309
3077.63	57.1495
3077.02	44.8963
3076.4	8.16172
3075.79	32.6419
3075.18	20.3981
3074.57	48.9479
3073.95	28.5486
3073.34	28.5442
3072.73	36.6941
3072.11	36.6885
3071.5	16.3035
3070.89	16.301
3070.27	36.6717
3069.66	40.7401
3069.05	32.5871
3068.43	24.4366
3067.82	36.6493
3067.2	16.2861
3066.59	28.4963
3065.98	8.14056
3065.36	32.5573
3064.75	32.5523
3064.13	28.4789
3063.52	44.7457
3062.9	4.06717
3062.29	65.0648
3061.67	52.8571
3061.06	36.5878
3060.44	56.9056
3059.83	28.4485
3059.21	8.12689
3058.6	32.5026
3057.98	16.2488
3057.37	40.6158
3056.75	36.5487
3056.14	36.5431
3055.52	32.4778
3054.9	32.4728
3054.29	64.9357
3053.67	36.5207
3053.06	48.6869
3052.44	12.1699
3051.82	24.336
3051.21	28.3876
3050.59	24.3285
3049.97	48.6496
3049.36	36.4817
3048.74	28.3703
3048.12	28.3659
3047.51	20.2583
3046.89	12.1531
3046.27	48.605
3045.65	52.6474
3045.04	24.2951
3044.42	20.2428
3043.8	52.6232
3043.18	44.5205
3042.57	40.467
3041.95	32.3687
3041.33	4.04546
3040.71	40.4484
3040.09	36.398
3039.48	64.6977
3038.86	16.1719
3038.24	24.2542
3037.62	20.2087
3037	60.617
3036.38	28.2836
3035.76	48.4787
3035.14	40.3928
3034.53	52.5025
3033.91	12.1141
3033.29	40.3742
3032.67	16.1472
3032.05	20.1809
3031.43	60.5335
3030.81	24.2097
3030.19	56.4806
3029.57	28.236
3028.95	52.4302
3028.33	44.3572
3027.71	24.1911
3027.09	24.1874
3026.47	16.1225
3025.85	12.09
3025.23	16.1175
3024.61	48.3452
3023.99	20.1408
3023.37	24.1652
3022.75	16.1077
3022.13	12.0789
3021.5	32.2055
3020.88	36.2256
3020.26	44.2689
3019.64	44.2622
3019.02	40.2322
3018.4	44.2486
3017.78	40.2198
3017.15	68.3632
3016.53	12.0622
3015.91	48.2416
3015.29	52.2537
3014.67	40.189
3014.04	28.128
3013.42	60.265
3012.8	44.1876
3012.18	28.115
3011.56	8.03164
3010.93	64.2432
3010.31	-4.01459
3009.69	40.1397
3009.06	60.2003
3008.44	36.1147
3007.82	20.0606
3007.19	40.1151
3006.57	40.1089
3005.95	8.02055
3005.32	36.087
3004.7	40.0905
3004.08	40.0843
3003.45	56.1094
3002.83	52.0936
3002.21	28.0461
3001.58	72.1075
3000.96	36.0482
3000.33	52.0616
2999.71	48.0495
2999.08	12.0105
2998.46	64.0463
2997.84	68.0388
2997.21	36.015
2996.59	60.0158
2995.96	48.0053
2995.34	51.9977
2994.71	35.9929
2994.09	35.9874
2993.46	51.9737
2992.83	19.9868
2992.21	35.9708
2991.58	47.9537
2990.96	43.9508
2990.33	47.9389
2989.71	39.943
2989.08	43.9305
2988.45	19.9653
2987.83	27.9472
2987.2	35.9266
2986.58	43.9035
2985.95	19.9531
2985.32	59.85
2984.7	11.9682
2984.07	47.8653
2983.44	11.9645
2982.82	43.863
2982.19	39.8694
2981.56	43.8495
2980.93	31.8857
2980.31	47.8212
2979.68	59.7673
2979.05	59.7581
2978.42	27.8828
2977.8	11.9479
2977.17	43.8024
2976.54	27.8699
2975.91	47.7697
2975.28	51.7425
2974.66	39.7958
2974.03	71.6215
2973.4	63.6537
2972.77	39.7775
2972.14	51.7028
2971.51	35.7887
2970.88	55.6628
2970.26	51.6789
2969.63	87.4431
2969	63.5852
2968.37	39.7346
2967.74	59.5928
2967.11	39.7224
2966.48	63.5461
2965.85	39.7102
2965.22	43.6745
2964.59	31.7584
2963.96	23.8151
2963.33	55.56
2962.7	79.3592
2962.07	47.6082
2961.44	67.4346
2960.81	55.5258
2960.18	59.4828
2959.55	67.4034
2958.92	71.3573
2958.29	51.5279
2957.66	43.5938
2957.03	63.3994
2956.4	31.6948
2955.76	47.5349
2955.13	75.252
2954.5	63.3604
2953.87	47.513
2953.24	35.6292
2952.61	43.5401
2951.98	47.491
2951.34	59.3546
2950.71	59.3454
2950.08	67.2478
2949.45	47.4617
2948.82	63.2725
2948.18	90.9403
2947.55	94.8796
2946.92	67.196
2946.29	47.4251
2945.65	86.9327
2945.02	47.4105
2944.39	90.8562
2943.76	67.1442
2943.12	51.3376
2942.49	55.2782
2941.86	82.9045
2941.22	82.8917
2940.59	71.039
2939.96	106.542
2939.32	82.8533
2938.69	98.6197
2938.05	78.8836
2937.42	126.194
2936.79	82.8022
2936.15	126.155
2935.52	110.369
2934.88	137.94
2934.25	94.5727
2933.61	114.258
2932.98	94.5435
2932.34	94.5289
2931.71	66.9476
2931.08	110.25
2930.44	114.17
2929.81	114.152
2929.17	102.327
2928.53	129.857
2927.9	114.099
2927.26	102.28
2926.63	121.93
2925.99	125.844
2925.36	117.961
2924.72	153.325
2924.08	157.232
2923.45	168.999
2922.81	125.747
2922.18	94.2956
2921.54	141.422
2920.9	137.472
2920.27	106.033
2919.63	164.915
2918.99	121.704
2918.36	121.686
2917.72	125.592
2917.08	133.42
2916.44	98.0881
2915.81	117.688
2915.17	133.359
2914.53	109.808
2913.9	129.396
2913.26	129.376
2912.62	148.956
2911.98	145.013
2911.34	137.154
2910.71	133.214
2910.07	137.111
2909.43	121.423
2908.79	133.153
2908.15	156.626
2907.51	168.347
2906.88	140.92
2906.24	136.984
2905.6	172.182
2904.96	117.379
2904.32	136.92
2903.68	144.722
2903.04	164.254
2902.4	164.228
2901.76	148.564
2901.12	168.086
2900.48	175.877
2899.84	183.666
2899.2	148.473
2898.56	156.263
2897.92	152.333
2897.28	199.173
2896.64	179.619
2896	175.687
2895.36	191.274
2894.72	167.826
2894.08	206.824
2893.44	183.381
2892.8	167.748
2892.16	191.126
2891.52	148.197
2890.88	159.872
2890.24	148.151
2889.59	159.822
2888.95	210.465
2888.31	171.464
2887.67	202.607
2887.03	175.306
2886.39	167.489
2885.74	194.724
2885.1	179.119
2884.46	210.237
2883.82	206.312
2883.18	229.632
2882.53	225.705
2881.89	241.234
2881.25	221.745
2880.6	280.056
2879.96	256.678
2879.32	295.523
2878.68	295.477
2878.03	233.235
2877.39	240.972
2876.75	272.023
2876.1	244.783
2875.46	233.09
2874.82	244.707
2874.17	217.484
2873.53	201.918
2872.88	213.534
2872.24	248.437
2871.6	178.536
2870.95	209.554
2870.31	128.041
2869.66	186.212
2869.02	178.426
2868.37	221.058
2867.73	162.86
2867.08	201.605
2866.44	224.832
2865.79	220.921
2865.15	201.511
2864.5	147.235
2863.86	209.196
2863.21	182.05
2862.57	243.987
2861.92	189.738
2861.28	178.094
2860.63	185.808
2859.98	185.779
2859.34	212.839
2858.69	201.198
2858.05	232.116
2857.4	224.344
2856.75	177.9
2856.11	232.008
2855.46	259.035
2854.81	193.28
2854.17	235.765
2853.52	274.372
2852.87	293.648
2852.23	301.329
2851.58	297.42
2850.93	297.373
2850.28	239.406
2849.64	250.952
2848.99	301.095
2848.34	289.469
2847.69	304.86
2847.05	335.68
2846.4	347.201
2845.75	316.29
2845.1	258.392
2844.45	281.488
2843.8	281.444
2843.16	269.836
2842.51	277.502
2841.86	250.484
2841.21	269.71
2840.56	231.144
2839.91	215.701
2839.26	227.221
2838.61	227.186
2837.96	204.05
2837.31	184.771
2836.66	134.708
2836.01	134.687
2835.36	161.6
2834.72	161.574
2834.07	138.471
2833.42	138.449
2832.76	130.737
2832.11	88.4262
2831.46	115.321
2830.81	103.772
2830.16	103.756
2829.51	88.3712
2828.86	72.9909
2828.21	99.8668
2827.56	92.1704
2826.91	53.7577
2826.26	95.9809
2825.61	88.2887
2824.96	88.2749
2824.3	130.473
2823.65	72.9001
2823	84.3975
2822.35	92.0556
2821.7	95.8763
2821.04	65.1858
2820.39	69.0095
2819.74	99.6648
2819.09	84.3186
2818.44	91.9696
2817.78	57.4721
2817.13	80.4484
2816.48	95.7569
2815.83	80.4233
2815.17	91.898
2814.52	88.0552
2813.87	57.4184
2813.21	88.0278
2812.56	95.6675
2811.91	65.0437
2811.25	72.6846
2810.6	80.3231
2809.95	76.4863
2809.29	110.888
2808.64	76.4624
2807.98	84.0956
2807.33	57.3289
2806.68	80.248
2806.02	80.2355
2805.37	84.0431
2804.71	80.2105
2804.06	87.8359
2803.4	99.2772
2802.75	83.9907
2802.09	80.1605
2801.44	38.1657
2800.78	83.9514
2800.13	64.8614
2799.47	91.5548
2798.82	64.8412
2798.16	76.2719
2797.51	49.569
2796.85	60.9985
2796.19	53.3653
2795.54	57.1682
2794.88	83.8336
2794.23	76.2005
2793.57	60.9509
2792.91	60.9414
2792.26	79.9731
2791.6	91.3835
2790.94	72.334
2790.29	91.355
2789.63	83.729
2788.97	68.4948
2788.32	79.8982
2787.66	98.9061
2787	57.0523
2786.34	64.6492
2785.69	91.2552
2785.03	68.4307
2784.37	98.8289
2783.71	87.4119
2783.06	60.7988
2782.4	75.9866
2781.74	75.9747
2781.08	83.5592
2780.42	68.3559
2779.76	45.5635
2779.11	79.7236
2778.45	79.7112
2777.79	30.3614
2777.13	72.0971
2776.47	121.408
2775.81	79.6614
2775.15	60.6849
2774.49	87.2209
2773.83	60.6659
2773.17	90.9847
2772.51	83.3896
2771.86	90.9562
2771.2	75.785
2770.54	83.3505
2769.88	45.4568
2769.22	71.962
2768.56	75.7376
2767.9	71.9395
2767.23	83.2853
2766.57	60.5617
2765.91	90.8283
2765.25	83.2462
2764.59	75.6666
2763.93	64.3065
2763.27	56.7322
2762.61	68.0679
2761.95	79.4002
2761.29	71.827
2760.63	79.3753
2759.96	71.8045
2759.3	68.0147
2758.64	60.4481
2757.98	45.3289
2757.32	79.3132
2756.65	83.0771
2755.99	79.2884
2755.33	90.6011
2754.67	117.008
2754.01	75.4773
2753.34	90.5586
2752.68	98.0898
2752.02	90.5302
2751.35	67.8871
2750.69	71.6473
2750.03	82.9471
2749.37	71.6249
2748.7	109.305
2748.04	105.519
2747.38	60.2874
2746.71	60.2779
2746.05	64.0353
2745.38	79.09
2744.72	82.8432
2744.06	86.5952
2743.39	112.933
2742.73	86.5681
2742.06	94.081
2741.4	86.541
2740.73	120.386
2740.07	101.56
2739.41	75.2176
2738.74	78.9661
2738.08	75.194
2737.41	90.2187
2736.75	97.7216
2736.08	63.8849
2735.41	97.691
2734.75	86.4054
2734.08	71.3672
2733.42	112.667
2732.75	78.8548
2732.09	78.8424
2731.42	90.0915
2730.75	93.8306
2730.09	75.0527
2729.42	86.297
2728.76	105.041
2728.09	67.5156
2727.42	116.259
2726.76	108.741
2726.09	134.968
2725.42	108.707
2724.75	101.194
2724.09	116.167
2723.42	116.149
2722.75	93.654
2722.09	93.6393
2721.42	123.585
2720.75	131.054
2720.08	108.571
2719.41	89.8373
2718.75	145.963
2718.08	108.519
2717.41	164.624
2716.74	119.708
2716.07	104.728
2715.41	119.67
2714.74	100.956
2714.07	142.064
2713.4	85.9725
2712.73	93.4337
2712.06	112.103
2711.39	93.4044
2710.72	70.9762
2710.05	108.315
2709.38	97.0948
2708.71	104.547
2708.04	145.596
2707.37	100.782
2706.7	93.3017
2706.03	100.75
2705.36	93.2724
2704.69	74.6062
2704.02	104.432
2703.35	119.332
2702.68	78.2995
2702.01	63.3754
2701.34	119.276
2700.67	122.984
2700	108.06
2699.33	104.317
2698.66	93.1258
2697.99	93.1112
2697.32	107.992
2696.64	100.528
2695.97	78.1765
2695.3	93.0526
2694.63	96.7595
2693.96	115.349
2693.29	100.449
2692.61	111.593
2691.94	81.8219
2691.27	111.558
2690.6	104.104
2689.92	63.1962
2689.25	78.0536
2688.58	118.92
2687.91	111.47
2687.23	70.5866
2686.56	137.436
2685.89	92.8478
2685.21	115.113
2684.54	63.1167
2683.87	107.653
2683.19	66.8084
2682.52	92.7748
2681.85	122.443
2681.17	74.1965
2680.5	100.149
2679.82	103.842
2679.15	126.074
2678.48	107.517
2677.8	85.2588
2677.13	107.483
2676.45	70.409
2675.78	107.449
2675.1	55.5685
2674.43	96.3036
2673.75	77.7714
2673.08	114.787
2672.4	85.1514
2671.73	103.646
2671.05	62.9181
2670.37	107.314
2669.7	125.797
2669.02	85.0843
2668.35	129.456
2667.67	96.1519
2667	92.4392
2666.32	118.303
2665.64	70.2316
2664.97	103.483
2664.29	92.3809
2663.61	99.7556
2662.94	81.2696
2662.26	107.111
2661.58	129.252
2660.91	81.2311
2660.23	77.5266
2659.55	88.5878
2658.87	103.336
2658.2	62.7299
2657.52	106.993
2656.84	125.42
2656.16	106.959
2655.49	88.504
2654.81	84.8029
2654.13	110.595
2653.45	66.3466
2652.77	140.043
2652.09	88.4342
2651.42	121.578
2650.74	88.4062
2650.06	84.7093
2649.38	117.838
2648.7	77.3188
2648.02	95.713
2647.34	106.74
2646.66	51.5215
2645.98	84.6291
2645.3	106.689
2644.62	117.708
2643.94	114.011
2643.26	128.702
2642.58	99.2687
2641.9	102.929
2641.22	88.211
2640.54	106.571
2639.86	95.5317
2639.18	77.1481
2638.5	117.54
2637.82	121.194
2637.14	88.1274
2636.46	99.1277
2635.78	102.783
2635.1	99.0963
2634.42	73.3931
2633.73	69.7124
2633.05	110.055
2632.37	117.373
2631.69	84.3487
2631.01	110.003
2630.33	131.982
2629.64	117.299
2628.96	76.9653
2628.28	102.604
2627.6	95.2603
2626.91	54.9492
2626.23	80.5794
2625.55	117.188
2624.87	106.185
2624.18	95.185
2623.5	76.868
2622.82	91.4951
2622.13	142.71
2621.45	113.418
2620.77	87.7936
2620.08	113.382
2619.4	127.992
2618.72	135.284
2618.03	116.984
2617.35	91.3793
2616.67	105.983
2615.98	127.891
2615.3	153.444
2614.61	127.85
2613.93	138.787
2613.24	124.158
2612.56	116.836
2611.87	116.817
2611.19	120.449
2610.5	113.131
2609.82	62.0298
2609.13	109.447
2608.45	105.782
2607.76	105.765
2607.08	109.395
2606.39	113.024
2605.71	87.4883
2605.02	138.501
2604.33	112.97
2603.65	87.4467
2602.96	105.648
2602.27	127.486
2601.59	116.54
2600.9	91.0326
2600.21	98.2996
2599.53	120.125
2598.84	109.187
2598.15	98.2529
2597.47	123.706
2596.78	116.411
2596.09	90.9316
2595.41	130.921
2594.72	112.719
2594.03	123.608
2593.34	101.779
2592.65	123.569
2591.97	112.648
2591.28	112.63
2590.59	94.449
2589.9	108.962
2589.21	119.84
2588.52	101.666
2587.84	127.062
2587.15	130.672
2586.46	112.505
2585.77	112.487
2585.08	141.494
2584.39	130.589
2583.7	112.434
2583.01	105.163
2582.32	108.772
2581.63	126.881
2580.94	105.113
2580.25	130.465
2579.56	112.327
2578.87	115.932
2578.18	94.1796
2577.49	148.49
2576.8	90.5286
2576.11	130.34
2575.42	130.32
2574.73	94.1048
2574.04	75.9957
2573.35	119.403
2572.66	130.237
2571.97	108.514
2571.28	119.346
2570.58	83.1673
2569.89	112.077
2569.2	115.674
2568.51	104.813
2567.82	108.41
2567.13	97.5536
2566.43	119.213
2565.74	108.358
2565.05	111.953
2564.36	122.767
2563.66	126.358
2562.97	129.948
2562.28	126.318
2561.59	104.647
2560.89	104.63
2560.2	115.435
2559.51	137.058
2558.81	137.036
2558.12	126.197
2557.43	111.757
2556.73	108.135
2556.04	90.098
2555.35	93.687
2554.65	129.7
2553.96	133.281
2553.26	100.846
2552.57	75.6221
2551.88	122.416
2551.18	133.197
2550.49	75.586
2549.79	111.562
2549.1	115.142
2548.4	115.124
2547.71	133.091
2547.01	122.28
2546.32	107.877
2545.62	125.836
2544.93	129.411
2544.23	140.173
2543.53	154.525
2542.84	147.315
2542.14	140.106
2541.45	129.308
2540.75	150.836
2540.05	154.402
2539.36	136.427
2538.66	100.509
2537.97	147.15
2537.27	122.008
2536.57	129.164
2535.88	132.731
2535.18	104.016
2534.48	136.275
2533.78	75.2977
2533.09	114.721
2532.39	132.625
2531.69	86.0134
2530.99	107.5
2530.3	118.231
2529.6	93.1366
2528.9	128.938
2528.2	146.823
2527.5	103.834
2526.81	128.876
2526.11	100.221
2525.41	121.678
2524.71	132.393
2524.01	125.216
2523.31	128.774
2522.61	118.024
2521.91	128.732
2521.21	153.739
2520.52	150.14
2519.82	135.819
2519.12	117.929
2518.42	121.484
2517.72	135.754
2517.02	114.301
2516.32	114.283
2515.62	114.265
2514.92	160.659
2514.22	132.076
2513.52	128.486
2512.82	167.719
2512.11	135.581
2511.41	164.098
2510.71	128.404
2510.01	124.818
2509.31	131.929
2508.61	139.038
2507.91	106.935
2507.21	121.174
2506.5	117.591
2505.8	89.07
2505.1	135.365
2504.4	113.973
2503.7	160.249
2503	135.3
2502.29	131.718
2501.59	149.494
2500.89	124.559
2500.19	135.214
2499.48	103.173
2498.78	135.17
2498.08	135.149
2497.37	156.463
2496.67	145.772
2495.97	152.858
2495.26	142.171
2494.56	124.38
2493.86	135.019
2493.15	134.998
2492.45	127.872
2491.75	156.263
2491.04	110.077
2490.34	138.462
2489.63	120.691
2488.93	127.77
2488.22	156.138
2487.52	163.209
2486.81	159.636
2486.11	166.704
2485.41	134.76
2484.7	166.651
2483.99	134.717
2483.29	120.517
2482.58	177.203
2481.88	127.566
2481.17	145.26
2480.47	152.321
2479.76	138.13
2479.06	152.273
2478.35	180.573
2477.64	106.203
2476.94	113.265
2476.23	138.019
2475.52	134.459
2474.82	102.597
2474.11	137.953
2473.4	166.224
2472.7	134.373
2471.99	113.138
2471.28	159.075
2470.57	155.515
2469.87	151.956
2469.16	113.065
2468.45	137.776
2467.74	151.883
2467.04	130.669
2466.33	144.772
2465.62	88.2616
2464.91	169.435
2464.2	141.173
2463.5	158.795
2462.79	158.769
2462.08	158.744
2461.37	151.664
2460.66	126.954
2459.95	130.46
2459.24	109.287
2458.53	165.666
2457.82	155.067
2457.11	151.518
2456.4	151.494
2455.69	158.515
2454.99	123.27
2454.28	147.9
2453.57	126.751
2452.85	119.69
2452.14	161.908
2451.43	165.401
2450.72	130.188
2450.01	123.131
2449.3	179.391
2448.59	165.295
2447.88	144.17
2447.17	161.726
2446.46	151.154
2445.75	144.101
2445.04	154.62
2444.32	154.595
2443.61	129.98
2442.9	158.058
2442.19	140.473
2441.48	150.985
2440.76	133.407
2440.05	161.467
2439.34	157.931
2438.63	164.924
2437.92	143.847
2437.2	122.776
2436.49	140.293
2435.78	150.791
2435.06	126.223
2434.35	168.271
2433.64	178.759
2432.92	150.694
2432.21	150.67
2431.5	161.156
2430.78	168.135
2430.07	168.108
2429.36	119.058
2428.64	115.537
2427.93	136.522
2427.21	129.5
2426.5	146.977
2425.78	195.938
2425.07	167.919
2424.35	122.422
2423.64	164.368
2422.92	125.879
2422.21	150.331
2421.49	143.316
2420.78	146.788
2420.06	178.214
2419.35	181.679
2418.63	164.183
2417.92	167.65
2417.2	192.068
2416.48	150.138
2415.77	150.114
2415.05	136.128
2414.34	132.616
2413.62	132.595
2412.9	167.461
2412.19	146.505
2411.47	163.92
2410.75	122.048
2410.04	156.894
2409.32	132.467
2408.6	156.843
2407.88	153.333
2407.17	149.824
2406.45	118.447
2405.73	139.327
2405.01	156.717
2404.29	128.836
2403.58	163.63
2402.86	174.046
2402.14	139.214
2401.42	187.909
2400.7	153.087
2399.98	153.062
2399.27	149.559
2398.55	166.923
2397.83	132.126
2397.11	128.628
2396.39	128.608
2395.67	159.865
2394.95	159.839
2394.23	128.545
2393.51	152.84
2392.79	145.869
2392.07	201.406
2391.35	177.07
2390.63	145.799
2389.91	152.717
2389.19	138.811
2388.47	145.728
2387.75	131.828
2387.03	176.899
2386.31	166.466
2385.59	180.309
2384.87	149.078
2384.14	214.915
2383.42	155.961
2382.7	149.006
2381.98	183.629
2381.26	187.063
2380.54	162.788
2379.82	145.447
2379.09	117.724
2378.37	173.095
2377.65	148.838
2376.93	159.196
2376.2	155.71
2375.48	159.145
2374.76	159.119
2374.04	155.635
2373.31	145.236
2372.59	155.585
2371.87	165.93
2371.14	190.097
2370.42	158.965
2369.7	176.215
2368.97	176.187
2368.25	117.439
2367.52	176.13
2366.8	220.99
2366.08	141.549
2365.35	144.978
2364.63	158.76
2363.9	175.988
2363.18	179.41
2362.45	189.73
2361.73	165.555
2361	165.529
2360.28	168.95
2359.55	148.238
2358.83	175.789
2358.1	155.083
2357.38	168.841
2356.65	155.033
2355.93	189.454
2355.2	161.871
2354.47	206.61
2353.75	199.691
2353.02	148.023
2352.3	154.882
2351.57	147.975
2350.84	165.155
2350.12	182.329
2349.39	165.101
2348.66	175.392
2347.94	165.048
2347.21	161.583
2346.48	164.994
2345.75	161.531
2345.03	185.559
2344.3	195.836
2343.57	178.628
2342.84	178.599
2342.11	182.005
2341.39	175.108
2340.66	192.245
2339.93	205.943
2339.2	195.614
2338.47	199.014
2337.74	178.397
2337.02	181.799
2336.29	174.91
2335.56	157.736
2334.83	195.424
2334.1	167.969
2333.37	198.788
2332.64	202.183
2331.91	188.445
2331.18	150.732
2330.45	191.809
2329.72	191.778
2328.99	154.083
2328.26	184.869
2327.53	181.416
2326.8	181.387
2326.07	195.045
2325.34	188.171
2324.61	222.348
2323.88	177.849
2323.14	198.338
2322.41	211.982
2321.68	194.855
2320.95	167.48
2320.22	174.288
2319.49	201.594
2318.76	157.15
2318.02	184.45
2317.29	228.818
2316.56	177.561
2315.83	180.947
2315.1	184.331
2314.36	187.714
2313.63	163.796
2312.9	184.241
2312.16	197.857
2311.43	180.771
2310.7	167.1
2309.97	170.483
2309.23	167.046
2308.5	187.47
2307.76	190.848
2307.03	214.669
2306.3	207.821
2305.56	183.943
2304.83	221.376
2304.1	194.099
2303.36	197.472
2302.63	180.419
2301.89	187.197
2301.16	183.764
2300.42	231.368
2299.69	153.087
2298.95	193.878
2298.22	200.648
2297.48	204.016
2296.75	190.384
2296.01	193.752
2295.28	180.126
2294.54	193.689
2293.8	156.285
2293.07	190.23
2292.33	159.631
2291.6	210.543
2290.86	200.323
2290.12	190.106
2289.39	196.864
2288.65	179.863
2287.91	196.8
2287.18	179.805
2286.44	193.344
2285.7	172.964
2284.97	186.499
2284.23	210.201
2283.49	210.167
2282.75	186.408
2282.01	176.212
2281.28	220.229
2280.54	186.317
2279.8	172.739
2279.06	176.097
2278.32	216.7
2277.59	253.904
2276.85	213.244
2276.11	175.983
2275.37	233.477
2274.63	186.075
2273.89	189.427
2273.15	189.397
2272.41	192.747
2271.67	209.621
2270.93	226.489
2270.19	182.514
2269.45	168.967
2268.71	195.969
2267.97	189.181
2267.23	195.906
2266.49	202.628
2265.75	165.453
2265.01	212.69
2264.27	219.406
2263.53	215.996
2262.79	226.084
2262.05	172.066
2261.31	192.277
2260.57	195.619
2259.83	205.703
2259.09	198.927
2258.34	161.812
2257.6	229.197
2256.86	225.789
2256.12	215.644
2255.38	195.396
2254.63	205.469
2253.89	212.171
2253.15	215.504
2252.41	212.102
2251.66	218.8
2250.92	205.302
2250.18	228.824
2249.43	242.244
2248.69	248.933
2247.95	221.985
2247.21	235.4
2246.46	228.637
2245.72	248.771
2244.97	242.008
2244.23	211.722
2243.49	211.688
2242.74	238.53
2242	218.337
2241.25	198.15
2240.51	208.192
2239.76	198.086
2239.02	218.194
2238.27	241.653
2237.53	201.344
2236.78	214.732
2236.04	231.471
2235.29	214.662
2234.55	177.738
2233.8	207.886
2233.06	204.5
2232.31	224.578
2231.57	217.839
2230.82	187.646
2230.07	227.818
2229.33	241.18
2228.58	190.903
2227.83	207.615
2227.09	237.714
2226.34	190.81
2225.59	204.166
2224.85	214.172
2224.1	217.483
2223.35	227.484
2222.6	230.791
2221.86	217.377
2221.11	203.966
2220.36	240.708
2219.61	223.955
2218.87	187.156
2218.12	237.248
2217.37	190.436
2216.62	220.469
2215.87	190.374
2215.12	160.288
2214.37	220.361
2213.63	253.707
2212.88	223.626
2212.13	233.601
2211.38	240.236
2210.63	203.5
2209.88	236.822
2209.13	233.449
2208.38	153.384
2207.63	233.372
2206.88	223.334
2206.13	216.632
2205.38	179.942
2204.63	236.551
2203.88	206.532
2203.13	233.143
2202.38	236.435
2201.63	196.442
2200.88	229.7
2200.12	249.633
2199.37	239.609
2198.62	202.968
2197.87	206.262
2197.12	256.122
2196.37	249.429
2195.62	236.087
2194.86	196.153
2194.11	226.038
2193.36	216.03
2192.61	219.318
2191.85	255.829
2191.1	229.212
2190.35	209.246
2189.6	245.741
2188.84	222.459
2188.09	239.021
2187.34	229.024
2186.58	232.305
2185.83	245.54
2185.08	258.77
2184.32	222.24
2183.57	238.786
2182.82	215.536
2182.06	195.608
2181.31	232.039
2180.55	248.573
2179.8	245.218
2179.04	228.612
2178.29	241.825
2177.53	231.849
2176.78	248.369
2176.02	258.261
2175.27	218.493
2174.51	254.867
2173.76	215.112
2173	225.003
2172.25	261.358
2171.49	284.47
2170.74	264.58
2169.98	234.776
2169.22	267.799
2168.47	238.005
2167.71	254.491
2166.95	257.754
2166.2	261.015
2165.44	274.186
2164.68	247.718
2163.93	257.585
2163.17	221.222
2162.41	217.885
2161.65	244.255
2160.9	227.714
2160.14	247.474
2159.38	263.929
2158.62	260.588
2157.87	250.651
2157.11	220.932
2156.35	253.865
2155.59	220.86
2154.83	243.894
2154.07	243.854
2153.31	243.814
2152.56	247.068
2151.8	237.147
2151.04	207.469
2150.28	217.313
2149.52	246.906
2148.76	253.449
2148	273.153
2147.24	227.042
2146.48	240.164
2145.72	233.546
2144.96	220.352
2144.2	292.659
2143.44	240.006
2142.68	239.967
2141.92	243.214
2141.16	223.457
2140.4	239.849
2139.64	216.814
2138.87	269.33
2138.11	236.446
2137.35	229.841
2136.59	256.066
2135.83	249.459
2135.07	239.573
2134.31	265.784
2133.54	229.652
2132.78	252.575
2132.02	226.297
2131.26	285.284
2130.49	278.679
2129.73	268.799
2128.97	239.258
2128.21	255.603
2127.44	268.667
2126.68	301.381
2125.92	229.274
2125.15	281.633
2124.39	261.941
2123.63	261.898
2122.86	235.67
2122.1	206.177
2121.33	255.225
2120.57	261.726
2119.81	310.748
2119.04	264.91
2118.28	255.057
2117.51	287.709
2116.75	232.091
2115.98	245.126
2115.22	264.692
2114.45	267.916
2113.69	287.472
2112.92	271.094
2112.16	248.19
2111.39	251.414
2110.62	274.224
2109.86	251.331
2109.09	270.871
2108.33	212.093
2107.56	280.569
2106.79	264.213
2106.03	254.385
2105.26	244.561
2104.49	303.206
2103.73	277.078
2102.96	270.514
2102.19	332.384
2101.42	280.199
2100.66	198.713
2099.89	263.821
2099.12	289.83
2098.35	289.782
2097.59	266.946
2096.82	286.432
2096.05	292.893
2095.28	296.099
2094.51	276.53
2093.74	256.968
2092.98	263.43
2092.21	250.38
2091.44	253.59
2090.67	269.801
2089.9	276.256
2089.13	321.704
2088.36	266.418
2087.59	276.12
2086.82	266.33
2086.05	250.049
2085.28	256.502
2084.51	298.662
2083.74	314.841
2082.97	269.356
2082.2	295.269
2081.43	214.116
2080.66	272.466
2079.89	259.449
2079.12	285.346
2078.35	252.879
2077.57	249.595
2076.8	285.205
2076.03	314.322
2075.26	327.229
2074.49	262.388
2073.72	288.255
2072.94	272.016
2072.17	265.496
2071.4	275.164
2070.63	268.645
2069.86	310.67
2069.08	307.383
2068.31	297.627
2067.54	297.578
2066.76	271.657
2065.99	271.612
2065.22	307.129
2064.44	307.078
2063.67	284.405
2062.9	255.276
2062.12	297.234
2061.35	264.882
2060.58	242.23
2059.8	290.628
2059.03	280.894
2058.25	280.847
2057.48	293.711
2056.7	293.663
2055.93	280.708
2055.15	312.921
2054.38	277.39
2053.6	293.468
2052.83	303.093
2052.05	254.685
2051.28	270.759
2050.5	286.829
2049.72	309.337
2048.95	312.507
2048.17	306.013
2047.4	276.977
2046.62	293.031
2045.84	305.861
2045.07	338.001
2044.29	289.667
2043.51	267.093
2042.74	292.789
2041.96	273.439
2041.18	292.692
2040.4	315.154
2039.63	292.595
2038.85	347.198
2038.07	295.712
2037.29	305.304
2036.52	308.467
2035.74	343.755
2034.96	327.638
2034.18	311.525
2033.4	333.951
2032.62	340.317
2031.84	292.11
2031.07	308.109
2030.29	311.267
2029.51	333.674
2028.73	323.995
2027.95	327.149
2027.17	295.027
2026.39	311.009
2025.61	275.694
2024.83	314.111
2024.05	310.854
2023.27	281.965
2022.49	304.344
2021.71	345.934
2020.93	285.028
2020.15	297.789
2019.37	310.545
2018.59	361.709
2017.8	310.442
2017.02	319.99
2016.24	329.535
2015.46	313.486
2014.68	345.417
2013.9	326.173
2013.11	342.105
2012.33	306.885
2011.55	332.403
2010.77	351.522
2009.99	367.439
2009.2	345.016
2008.42	335.377
2007.64	341.708
2006.85	309.721
2006.07	367.134
2005.29	325.578
2004.5	315.95
2003.72	315.897
2002.94	370.081
2002.15	328.552
2001.37	328.497
2000.59	341.197
1999.8	341.141
1999.02	366.586
1998.23	350.589
1997.45	337.784
1996.66	344.1
1995.88	331.301
1995.09	353.541
1994.31	356.667
1993.52	347.055
1992.74	315.163
1991.95	350.123
1991.17	311.876
1990.38	375.461
1989.6	378.58
1988.81	298.997
1988.02	337.111
1987.24	391.11
1986.45	327.461
1985.67	336.942
1984.88	327.352
1984.09	330.475
1983.3	371.722
1982.52	352.601
1981.73	355.718
1980.94	342.957
1980.16	349.25
1979.37	387.286
1978.58	361.83
1977.79	342.729
1977.01	345.845
1976.22	364.821
1975.43	390.135
1974.64	364.7
1973.85	370.981
1973.06	351.897
1972.27	345.499
1971.49	320.088
1970.7	351.721
1969.91	377.008
1969.12	373.778
1968.33	288.204
1967.54	395.819
1966.75	351.429
1965.96	373.528
1965.17	367.136
1964.38	379.733
1963.59	392.325
1962.8	379.606
1962.01	379.543
1961.22	338.369
1960.43	373.093
1959.64	401.482
1958.85	376.129
1958.06	350.785
1957.26	360.205
1956.47	388.578
1955.68	423.258
1954.89	388.448
1954.1	378.911
1953.31	404.104
1952.51	347.219
1951.72	347.161
1950.93	384.969
1950.14	384.905
1949.34	359.605
1948.55	337.468
1947.76	381.559
1946.97	394.106
1946.17	381.431
1945.38	387.671
1944.59	349.791
1943.79	337.13
1943	431.58
1942.21	434.658
1941.41	387.348
1940.62	415.621
1939.82	371.478
1939.03	393.449
1938.24	374.501
1937.44	421.636
1936.65	399.544
1935.85	377.459
1935.06	411.99
1934.26	364.755
1933.47	389.845
1932.67	424.357
1931.88	421.144
1931.08	358.227
1930.28	421.003
1929.49	389.52
1928.69	464.833
1927.9	398.81
1927.1	442.7
1926.3	408.094
1925.51	408.026
1924.71	404.82
1923.91	401.615
1923.12	376.451
1922.32	395.207
1921.52	420.229
1920.73	401.346
1919.93	382.469
1919.13	407.481
1918.33	466.958
1917.53	463.746
1916.74	391.612
1915.94	438.532
1915.14	460.381
1914.34	407.072
1913.54	444.573
1912.74	422.587
1911.95	406.868
1911.15	409.929
1910.35	394.217
1909.55	412.92
1908.75	375.319
1907.95	403.4
1907.15	418.966
1906.35	434.526
1905.55	437.579
1904.75	478.131
1903.95	459.304
1903.15	443.607
1902.35	459.15
1901.55	402.86
1900.75	440.262
1899.95	465.163
1899.15	433.871
1898.35	446.282
1897.54	424.365
1896.74	421.174
1895.94	417.984
1895.14	455.339
1894.34	439.672
1893.54	455.187
1892.73	436.407
1891.93	445.684
1891.13	420.68
1890.33	457.997
1889.53	423.654
1888.72	464.073
1887.92	398.6
1887.12	470.145
1886.31	423.37
1885.51	469.987
1884.71	445.012
1883.9	426.269
1883.1	444.863
1882.3	460.34
1881.49	438.494
1880.69	491.28
1879.88	407.258
1879.08	453.815
1878.28	419.553
1877.47	469.199
1876.67	497.081
1875.86	506.317
1875.06	475.174
1874.25	493.726
1873.45	487.434
1872.64	412.852
1871.84	456.234
1871.03	394.095
1870.22	496.414
1869.42	477.718
1868.61	446.623
1867.81	465.154
1867	440.272
1866.19	483.598
1865.39	433.925
1864.58	492.732
1863.77	474.059
1862.97	452.294
1862.16	473.899
1861.35	504.788
1860.54	452.066
1859.74	442.702
1858.93	448.819
1858.12	482.786
1857.31	479.61
1856.51	464.061
1855.7	513.475
1854.89	491.739
1854.08	500.933
1853.27	485.391
1852.46	497.674
1851.65	485.228
1850.84	494.416
1850.04	475.796
1849.23	518.962
1848.42	478.724
1847.61	503.348
1846.8	469.301
1845.99	497.005
1845.18	490.748
1844.37	475.236
1843.56	481.327
1842.75	438.057
1841.94	493.502
1841.13	502.671
1840.31	521.086
1839.5	465.508
1838.69	523.993
1837.88	496.169
1837.07	523.817
1836.26	492.921
1835.45	523.641
1834.64	498.915
1833.82	489.593
1833.01	486.432
1832.2	455.568
1831.39	504.734
1830.57	526.189
1829.76	486.104
1828.95	519.859
1828.14	464.412
1827.32	541.21
1826.51	491.926
1825.7	454.955
1824.88	494.834
1824.07	494.75
1823.26	516.174
1822.44	513.015
1821.63	491.429
1820.81	509.772
1820	543.46
1819.19	512.67
1818.37	524.861
1817.56	546.254
1816.74	543.094
1815.93	500.053
1815.11	512.238
1814.3	472.283
1813.48	567.257
1812.67	496.65
1811.85	514.957
1811.03	533.259
1810.22	523.976
1809.4	477.933
1808.59	551.368
1807.77	529.836
1806.95	462.38
1806.14	492.918
1805.32	486.713
1804.5	489.691
1803.69	514.089
1802.87	504.824
1802.05	532.27
1801.24	498.536
1800.42	574.902
1799.6	532
1798.78	473.828
1797.96	467.635
1797.15	550.066
1796.33	543.863
1795.51	562.1
1794.69	549.788
1793.87	513.049
1793.05	543.495
1792.23	515.928
1791.42	534.155
1790.6	534.065
1789.78	500.41
1788.96	536.935
1788.14	512.442
1787.32	512.356
1786.5	576.303
1785.68	545.718
1784.86	539.53
1784.04	576.011
1783.22	551.536
1782.4	496.603
1781.58	505.658
1780.76	536.028
1779.93	508.532
1779.11	551.07
1778.29	535.756
1777.47	535.666
1776.65	547.747
1775.83	538.527
1775.01	532.352
1774.18	544.428
1773.36	535.213
1772.54	553.365
1771.72	571.511
1770.89	556.217
1770.07	498.384
1769.25	534.76
1768.43	589.352
1767.6	504.206
1766.78	589.153
1765.96	537.435
1765.13	564.666
1764.31	619.207
1763.49	613.032
1762.66	564.38
1761.84	549.115
1761.01	597.555
1760.19	539.831
1759.36	557.933
1758.54	572.997
1757.72	542.588
1756.89	490.974
1756.07	554.525
1755.24	611.995
1754.41	581.6
1753.59	575.444
1752.76	532.952
1751.94	569.193
1751.11	538.826
1750.29	559.921
1749.46	587.061
1748.63	602.089
1747.81	592.912
1746.98	547.443
1746.15	604.807
1745.33	580.516
1744.5	610.648
1743.67	544.049
1742.85	580.221
1742.02	568.037
1741.19	589.087
1740.36	601.069
1739.54	649.286
1738.71	612.943
1737.88	555.48
1737.05	630.845
1736.22	618.667
1735.39	561.232
1734.57	627.507
1733.74	564.058
1732.91	563.962
1732.08	584.973
1731.25	596.933
1730.42	575.732
1729.59	638.924
1728.76	623.749
1727.93	584.477
1727.1	536.182
1726.27	563.196
1725.44	572.135
1724.61	578.059
1723.78	580.971
1722.95	586.892
1722.12	625.911
1721.29	622.796
1720.46	592.609
1719.62	634.616
1718.79	604.436
1717.96	625.38
1717.13	613.249
1716.3	610.139
1715.47	601.02
1714.63	630.964
1713.8	627.853
1712.97	591.703
1712.14	588.6
1711.31	621.528
1710.47	642.436
1709.64	618.315
1708.81	648.22
1707.97	612.104
1707.14	660
1706.31	578.901
1705.47	629.785
1704.64	587.7
1703.81	617.579
1702.97	602.487
1702.14	623.363
1701.3	602.282
1700.47	689.061
1699.63	599.082
1698.8	655.883
1697.96	691.704
1697.13	619.733
1696.29	613.641
1695.46	610.544
1694.62	682.256
1693.79	664.189
1692.95	685.015
1692.12	616.11
1691.28	651.889
1690.44	621.88
1689.61	588.891
1688.77	606.724
1687.93	651.445
1687.1	615.481
1686.26	648.236
1685.42	663.059
1684.59	719.685
1683.75	609.09
1682.91	608.986
1682.07	671.561
1681.24	659.51
1680.4	662.382
1679.56	665.252
1678.72	709.879
1677.88	694.847
1677.05	632.113
1676.21	679.704
1675.37	679.588
1674.53	727.155
1673.69	744.909
1672.85	723.928
1672.01	753.591
1671.17	759.418
1670.33	714.625
1669.49	729.388
1668.65	729.264
1667.81	720.211
1666.97	696.284
1666.13	708.065
1665.29	713.894
1664.45	728.642
1663.61	710.677
1662.77	713.528
1661.93	662.874
1661.09	704.369
1660.25	725.049
1659.4	727.897
1658.56	712.92
1657.72	709.828
1656.88	727.524
1656.04	727.4
1655.19	706.496
1654.35	733.087
1653.51	756.702
1652.67	732.837
1651.82	649.651
1650.98	688.098
1650.14	714.669
1649.3	699.722
1648.45	714.425
1647.61	723.195
1646.77	731.961
1645.92	678.504
1645.08	702.087
1644.23	740.472
1643.39	719.616
1642.54	740.219
1641.7	704.568
1640.86	713.327
1640.01	736.88
1639.17	701.248
1638.32	730.711
1637.48	736.502
1636.63	774.822
1635.78	780.603
1634.94	771.6
1634.09	712.352
1633.25	712.23
1632.4	771.205
1631.56	782.89
1630.71	815.248
1629.86	800.342
1629.02	744.102
1628.17	797.116
1627.32	794.028
1626.47	773.233
1625.63	784.904
1624.78	778.869
1623.93	834.781
1623.09	831.689
1622.24	793.213
1621.39	796.025
1620.54	766.412
1619.69	792.805
1618.84	810.35
1618	830.835
1617.15	786.507
1616.3	848.222
1615.45	892.247
1614.6	859.708
1613.75	877.223
1612.9	903.561
1612.05	924.006
1611.2	932.674
1610.35	888.389
1609.5	1005.88
1608.65	999.83
1607.8	1070.22
1606.95	1017.13
1606.1	1087.49
1605.25	1175.46
1604.4	1192.89
1603.55	1289.63
1602.7	1365.78
1601.85	1485.94
1600.99	1702.96
1600.14	1811.29
1599.29	2086.88
1598.44	2247.93
1597.59	2520.42
1596.74	2481.85
1595.88	2598.75
1595.03	2651.09
1594.18	2583.2
1593.32	2483.08
1592.47	2221.78
1591.62	2051.43
1590.77	1872.34
1589.91	1748.97
1589.06	1517.27
1588.21	1344.23
1587.35	1341.07
1586.5	1282.29
1585.64	1167.91
1584.79	1141.37
1583.93	1062.17
1583.08	1076.61
1582.23	1006.23
1581.37	956.337
1580.52	953.249
1579.66	976.474
1578.81	914.922
1577.95	905.997
1577.09	856.166
1576.24	908.607
1575.38	841.267
1574.53	887.851
1573.67	861.418
1572.81	805.799
1571.96	875.718
1571.1	825.952
1570.24	849.154
1569.39	781.904
1568.53	825.526
1567.67	807.885
1566.82	790.249
1565.96	874.665
1565.1	813.298
1564.24	856.877
1563.39	885.87
1562.53	865.323
1561.67	873.913
1560.81	867.938
1559.95	861.964
1559.09	873.462
1558.23	914.066
1557.38	797.488
1556.52	864.281
1555.66	840.856
1554.8	901.801
1553.94	890.012
1553.08	930.571
1552.22	889.706
1551.36	901.181
1550.5	880.68
1549.64	950.273
1548.78	862.944
1547.92	912.181
1547.06	880.074
1546.2	847.978
1545.34	847.832
1544.47	807.043
1543.61	838.832
1542.75	870.61
1541.89	899.476
1541.03	809.389
1540.17	890.464
1539.3	788.81
1538.44	846.664
1537.58	863.913
1536.72	828.982
1535.85	846.227
1534.99	837.389
1534.13	883.597
1533.27	857.376
1532.4	851.436
1531.54	897.618
1530.68	885.883
1529.81	882.836
1528.95	902.942
1528.08	891.212
1527.22	940.24
1526.36	931.4
1525.49	954.376
1524.63	910.838
1523.76	928.027
1522.9	933.649
1522.03	919.037
1521.17	910.21
1520.3	881.162
1519.44	935.893
1518.57	953.06
1517.7	883.594
1516.84	932.522
1515.97	871.743
1515.11	926.428
1514.24	894.526
1513.37	897.257
1512.51	931.717
1511.64	879.643
1510.77	879.491
1509.91	867.807
1509.04	902.248
1508.17	850.215
1507.3	878.884
1506.44	858.564
1505.57	841.133
1504.7	912.99
1503.83	846.601
1502.96	883.883
1502.09	952.817
1501.23	869.187
1500.36	880.548
1499.49	909.167
1498.62	929.146
1497.75	862.835
1496.88	897.193
1496.01	905.663
1495.14	942.877
1494.27	934.092
1493.4	899.446
1492.53	907.91
1491.66	904.881
1490.79	988.016
1489.92	970.616
1489.05	907.283
1488.18	993.245
1487.31	932.8
1486.44	984.293
1485.56	946.823
1484.69	983.952
1483.82	914.946
1482.95	949.2
1482.08	923.231
1481.21	923.071
1480.33	920.045
1479.46	899.826
1478.59	939.783
1477.72	936.756
1476.84	962.372
1475.97	884.885
1475.1	933.406
1474.22	1021.99
1473.35	930.221
1472.48	932.922
1471.6	892.703
1470.73	918.295
1469.85	926.717
1468.98	946.574
1468.11	1000.74
1467.23	934.811
1466.36	966.09
1465.48	971.638
1464.61	937.183
1463.73	982.729
1462.86	1016.83
1461.98	896.715
1461.11	990.784
1460.23	1056.27
1459.35	979.023
1458.48	973.146
1457.6	1047.16
1456.73	1038.42
1455.85	1046.8
1454.97	1086.54
1454.1	1072.1
1453.22	1020.6
1452.34	1028.97
1451.46	1037.34
1450.59	1045.71
1449.71	1099.66
1448.83	1096.62
1447.95	1045.17
1447.08	1099.09
1446.2	1107.44
1445.32	1101.55
1444.44	1098.51
1443.56	1049.95
1442.68	1166.41
1441.81	1146.3
1440.93	1106.28
1440.05	1160.12
1439.17	1176.97
1438.29	1213.72
1437.41	1173.72
1436.53	1264.45
1435.65	1193.2
1434.77	1139.03
1433.89	1084.87
1433.01	1059.12
1432.13	1070.3
1431.25	1084.3
1430.37	990.461
1429.48	1004.48
1428.6	978.769
1427.72	1032.49
1426.84	958.577
1425.96	983.93
1425.08	1020.61
1424.19	1043.11
1423.31	983.417
1422.43	974.745
1421.55	949.078
1420.67	1019.73
1419.78	943.084
1418.9	1016.54
1418.02	1067.32
1417.13	968.068
1416.25	1004.69
1415.37	987.539
1414.48	1001.51
1413.6	1035.28
1412.71	1001.16
1411.83	1026.44
1410.95	981.026
1410.06	1082.62
1409.18	1040.03
1408.29	1022.9
1407.41	1107.48
1406.52	1093.16
1405.64	1140.98
1404.75	1106.9
1403.87	1154.7
1402.98	1188.37
1402.1	1216.39
1401.21	1258.5
1400.32	1306.25
1399.44	1348.33
1398.55	1384.76
1397.66	1280.19
1396.78	1344.81
1395.89	1364.3
1395	1254.15
1394.12	1310.29
1393.23	1287.52
1392.34	1205.61
1391.45	1303.97
1390.57	1095.37
1389.68	1126.15
1388.79	1154.1
1387.9	1128.57
1387.01	1094.61
1386.12	1125.36
1385.24	1052.03
1384.35	1122.16
1383.46	998.239
1382.57	1028.99
1381.68	1042.87
1380.79	994.906
1379.9	1039.69
1379.01	1008.61
1378.12	1030.9
1377.23	991.404
1376.34	1002.46
1375.45	1035.98
1374.56	999.306
1373.67	971.066
1372.78	968.091
1371.89	965.116
1370.99	1040.69
1370.1	1085.38
1369.21	992.652
1368.32	1006.5
1367.43	1006.32
1366.54	1000.54
1365.64	1067.62
1364.75	1053.42
1363.86	1030.83
1362.97	994.241
1362.07	1008.07
1361.18	991.094
1360.29	974.125
1359.39	959.962
1358.5	1010.16
1357.61	956.829
1356.71	979.04
1355.82	945.307
1354.93	922.772
1354.03	939.385
1353.14	953.198
1352.24	955.826
1351.35	986.397
1350.45	880.058
1349.56	902.251
1348.66	882.544
1347.77	901.936
1346.87	901.778
1345.98	929.535
1345.08	848.436
1344.18	932
1343.29	965.316
1342.39	889.832
1341.5	992.868
1340.6	925.771
1339.7	933.973
1338.81	922.66
1337.91	922.499
1337.01	925.124
1336.11	933.32
1335.22	908.087
1334.32	952.489
1333.42	935.615
1332.52	927.099
1331.63	971.474
1330.73	949.039
1329.83	943.308
1328.93	943.142
1328.03	945.759
1327.13	962.28
1326.23	942.647
1325.33	917.46
1324.43	975.673
1323.53	969.944
1322.64	928.093
1321.74	897.37
1320.84	933.324
1319.94	913.719
1319.03	921.89
1318.13	957.82
1317.23	929.894
1316.33	1004.66
1315.43	1004.49
1314.53	995.99
1313.63	1045.74
1312.73	995.641
1311.83	1062.02
1310.92	975.885
1310.02	984.029
1309.12	981.085
1308.22	967.059
1307.32	1022.3
1306.41	1027.66
1305.51	969.32
1304.61	996.84
1303.71	1057.57
1302.8	1076.76
1301.9	1051.67
1301	1090.22
1300.09	1026.4
1299.19	1084.31
1298.28	1056.46
1297.38	1180.7
1296.48	1257.91
1295.57	1340.61
1294.67	1387.36
1293.76	1356.72
1292.86	1328.85
1291.95	1171.17
1291.05	1162.68
1290.14	1195.61
1289.24	1148.47
1288.33	1106.87
1287.42	1150.83
1286.52	1112
1285.61	1095.25
1284.71	1103.33
1283.8	1081.07
1282.89	1122.24
1281.99	986.96
1281.08	934.416
1280.17	906.692
1279.26	972.663
1278.36	950.453
1277.45	928.25
1276.54	950.119
1275.63	886.622
1274.72	960.797
1273.82	982.648
1272.91	921.93
1272	1034.58
1271.09	949.117
1270.18	891.188
1269.27	998.285
1268.36	1000.86
1267.45	984.188
1266.54	1006
1265.64	1003.08
1264.73	972.678
1263.82	994.485
1262.91	1016.28
1261.99	1029.84
1261.08	1098.3
1260.17	1067.91
1259.26	1185.74
1258.35	1207.49
1257.44	1210.02
1256.53	1250.96
1255.62	1215.08
1254.71	1253.26
1253.79	1168.04
1252.88	1134.94
1251.97	1121.03
1251.06	1076.99
1250.15	1071.32
1249.23	1098.53
1248.32	1005.21
1247.41	1005.03
1246.49	1089.73
1245.58	1010.15
1244.67	1023.66
1243.75	982.43
1242.84	1042.45
1241.93	984.819
1241.01	968.235
1240.1	968.064
1239.18	981.564
1238.27	910.316
1237.35	918.355
1236.44	994.709
1235.53	896.173
1234.61	879.625
1233.69	895.857
1232.78	868.391
1231.86	868.238
1230.95	862.625
1230.03	821.533
1229.12	813.202
1228.2	793.959
1227.28	829.282
1226.37	848.228
1225.45	798.993
1224.53	847.928
1223.62	785.081
1222.7	771.315
1221.78	787.529
1220.86	801.013
1219.95	732.77
1219.03	773.494
1218.11	759.742
1217.19	740.55
1216.27	754.03
1215.35	772.948
1214.44	794.581
1213.52	791.72
1212.6	682.772
1211.68	723.447
1210.76	701.566
1209.84	715.035
1208.92	758.402
1208	731.09
1207.08	701.07
1206.16	749.849
1205.24	708.971
1204.32	730.573
1203.4	768.46
1202.48	795.473
1201.56	727.471
1200.64	770.766
1199.71	765.203
1198.79	786.772
1197.87	756.795
1196.95	753.949
1196.03	713.142
1195.1	759.104
1194.18	685.784
1193.26	815.749
1192.34	739.734
1191.41	750.44
1190.49	742.181
1189.57	788.089
1188.65	752.749
1187.72	760.738
1186.8	744.363
1185.87	706.343
1184.95	722.453
1184.03	754.789
1183.1	773.589
1182.18	754.522
1181.25	759.796
1180.33	770.475
1179.4	770.339
1178.48	753.988
1177.55	683.602
1176.63	732.108
1175.7	715.773
1174.78	653.533
1173.85	718.219
1172.92	718.092
1172	715.266
1171.07	731.331
1170.15	739.296
1169.22	766.141
1168.29	774.097
1167.36	730.812
1166.44	733.379
1165.51	773.686
1164.58	673.823
1163.65	681.788
1162.73	732.859
1161.8	748.893
1160.87	740.68
1159.94	702.848
1159.01	681.184
1158.08	742.978
1157.16	748.229
1156.23	686.203
1155.3	753.344
1154.37	710.17
1153.44	715.423
1152.51	723.364
1151.58	693.661
1150.65	731.171
1149.72	763.293
1148.79	763.158
1147.86	768.396
1146.93	754.828
1146	800.352
1145.07	733.078
1144.13	767.85
1143.2	783.82
1142.27	743.423
1141.34	735.241
1140.41	719.013
1139.48	753.757
1138.54	788.488
1137.61	723.993
1136.68	756.036
1135.75	774.666
1134.81	750.408
1133.88	750.274
1132.95	744.783
1132.01	814.294
1131.08	854.321
1130.15	888.979
1129.21	899.529
1128.28	936.843
1127.35	963.439
1126.41	925.807
1125.48	930.993
1124.54	941.527
1123.61	869.153
1122.67	810.174
1121.74	780.623
1120.8	756.428
1119.87	740.259
1118.93	708.064
1117.99	729.31
1117.06	705.141
1116.12	731.721
1115.19	760.961
1114.25	680.739
1113.31	691.294
1112.38	712.52
1111.44	667.035
1110.5	752.281
1109.56	714.807
1108.63	720.013
1107.69	701.221
1106.75	693.099
1105.81	660.992
1104.88	722.165
1103.94	711.379
1103	689.941
1102.06	711.126
1101.12	721.651
1100.18	678.923
1099.24	761.323
1098.3	771.834
1097.36	707.831
1096.42	744.953
1095.49	718.22
1094.55	696.815
1093.6	707.327
1092.66	749.739
1091.72	792.137
1090.78	730.868
1089.84	749.339
1088.9	797.027
1087.96	701.258
1087.02	733.003
1086.08	759.426
1085.14	775.219
1084.19	721.993
1083.25	769.635
1082.31	721.736
1081.37	779.972
1080.43	750.656
1079.48	700.134
1078.54	758.343
1077.6	774.114
1076.65	718.313
1075.71	707.584
1074.77	752.502
1073.82	741.771
1072.88	752.234
1071.93	762.692
1070.99	714.896
1070.05	757.125
1069.1	706.701
1068.16	746.27
1067.21	775.241
1066.27	761.876
1065.32	830.508
1064.38	901.76
1063.43	869.871
1062.49	978.099
1061.54	893.347
1060.59	911.686
1059.65	826.976
1058.7	834.753
1057.75	837.245
1056.81	731.468
1055.86	763.02
1054.91	720.648
1053.97	707.323
1053.02	694.002
1052.07	693.878
1051.12	701.668
1050.18	720.004
1049.23	740.97
1048.28	759.293
1047.33	716.982
1046.38	716.853
1045.43	716.725
1044.48	679.713
1043.54	719.103
1042.59	745.31
1041.64	695.147
1040.69	705.554
1039.74	729.117
1038.79	713.196
1037.84	663.075
1036.89	694.526
1035.94	689.141
1034.99	681.128
1034.04	646.824
1033.08	712.431
1032.13	651.849
1031.18	635.965
1030.23	712.048
1029.28	638.364
1028.33	703.914
1027.37	653.892
1026.42	695.785
1025.47	632.657
1024.52	635.168
1023.57	703.283
1022.61	640.188
1021.66	697.785
1020.71	697.66
1019.75	668.689
1018.8	650.217
1017.85	623.886
1016.89	639.5
1015.94	668.21
1014.98	652.37
1014.03	681.068
1013.07	641.66
1012.12	678.205
1011.16	633.576
1010.21	615.139
1009.25	633.349
1008.3	659.402
1007.34	578.181
1006.39	640.855
1005.43	627.664
1004.48	685.077
1003.52	664.039
1002.56	674.376
1001.61	739.589
1000.65	648.005
999.693	642.663
998.736	650.384
997.778	699.886
996.821	665.817
995.863	665.697
994.905	652.527
993.947	660.239
992.989	665.339
992.031	670.437
991.072	599.894
990.114	628.472
989.155	654.432
988.196	630.853
987.237	648.984
986.277	648.867
985.318	622.696
984.358	679.894
983.398	596.428
982.438	635.381
981.478	669.113
980.517	650.771
979.557	697.501
978.596	705.182
977.635	637.412
976.674	710.131
975.713	694.399
974.751	704.675
973.79	704.548
972.828	652.435
971.866	652.318
970.904	688.578
969.942	662.475
968.979	706.513
968.017	683.012
967.054	656.924
966.091	654.21
965.128	651.497
964.164	695.497
963.201	646.073
962.237	661.522
961.273	718.465
960.309	679.436
959.345	658.572
958.381	661.045
957.416	681.661
956.451	728.184
955.486	735.826
954.521	665.75
953.556	699.301
952.591	670.69
951.625	686.103
950.659	691.157
949.693	703.973
948.727	714.197
947.761	662.324
946.794	657.031
945.828	677.603
944.861	672.309
943.894	713.554
942.927	656.558
941.959	692.621
940.992	692.496
940.024	682.038
939.056	697.413
938.088	697.287
937.12	715.236
936.152	684.127
935.183	673.679
934.214	735.494
933.246	660.535
932.276	755.867
931.307	722.2
930.338	649.863
929.368	678.107
928.398	675.407
927.428	706.214
926.458	667.432
925.488	664.735
924.517	713.56
923.547	718.582
922.576	695.277
921.605	628.211
920.634	646.117
919.662	656.295
918.691	741.093
917.719	671.494
916.747	715.102
915.775	750.979
914.803	712.273
913.831	678.722
912.858	717.156
911.885	681.047
910.912	742.592
909.939	696.215
908.966	729.481
907.992	688.259
907.019	680.432
906.045	695.712
905.071	736.654
904.097	695.461
903.122	774.875
902.148	702.905
901.173	738.686
900.198	741.117
899.223	676.884
898.248	620.365
897.273	704.833
896.297	686.767
895.321	753.258
894.345	742.875
893.369	704.323
892.393	665.785
891.416	701.508
890.44	680.903
889.463	670.542
888.486	734.392
887.509	713.792
886.531	713.663
885.554	693.074
884.576	692.949
883.598	685.154
882.62	761.712
881.642	672.127
880.664	738.44
879.685	705.095
878.706	745.835
877.727	699.732
876.748	750.671
875.769	725.007
874.789	775.923
873.81	785.99
872.83	773.091
871.85	744.89
870.87	726.901
869.889	754.82
868.909	718.989
867.928	736.702
866.947	680.498
865.966	685.471
864.985	695.538
864.003	787.114
863.022	789.518
862.04	753.726
861.058	735.768
860.076	707.634
859.094	669.331
858.111	760.813
857.128	699.617
856.146	691.86
855.162	717.165
854.179	783.145
853.196	747.412
852.212	734.567
851.229	757.306
850.245	744.464
849.261	741.789
848.276	820.391
847.292	751.677
846.307	759.158
845.322	700.634
844.337	763.958
843.352	725.755
842.367	715.475
841.381	684.905
840.396	781.157
839.41	707.478
838.424	773.267
837.437	722.43
836.451	702.024
835.464	737.371
834.477	704.302
833.49	747.235
832.503	683.786
831.516	757.092
830.528	767.081
829.541	713.787
828.553	781.986
827.565	754.011
826.577	715.927
825.588	748.678
824.6	730.84
823.611	738.293
822.622	755.854
821.633	743.079
820.643	737.89
819.654	745.335
818.664	767.934
817.674	750.115
816.684	749.979
815.694	754.892
814.704	772.424
813.713	762.188
812.723	734.293
811.732	711.453
810.741	711.324
809.749	749.024
808.758	716.108
807.766	665.557
806.774	738.532
805.782	740.918
804.79	773.539
803.798	715.456
802.805	712.807
801.812	705.122
800.819	745.279
799.826	732.557
798.833	719.839
797.84	724.74
796.846	754.8
795.852	757.178
794.858	736.92
793.864	724.212
792.87	736.651
791.875	781.764
790.88	721.303
789.885	741.274
788.89	723.552
787.895	831.431
786.9	738.357
785.904	760.821
784.908	768.214
783.912	727.913
782.916	777.972
781.92	750.23
780.923	735.041
779.926	739.923
778.929	734.772
777.932	739.653
776.935	757.066
775.938	716.826
774.94	724.213
773.942	689.004
772.944	743.988
771.946	773.907
770.948	758.741
769.949	761.106
768.95	745.948
767.951	695.758
766.952	720.653
765.953	755.547
764.954	705.382
763.954	720.258
762.954	742.631
761.954	754.995
760.954	719.864
759.954	747.222
758.953	759.578
757.952	756.941
756.951	729.328
755.95	696.731
754.949	776.501
753.948	756.388
752.946	743.771
751.944	736.148
750.942	795.893
749.94	768.308
748.937	803.084
747.935	817.899
746.932	792.818
745.929	815.107
744.926	795.02
743.923	769.957
742.919	812.168
741.916	789.602
740.912	809.381
739.908	776.863
738.903	779.211
737.899	789.024
736.894	771.46
735.89	733.997
734.885	796.054
733.88	783.472
732.874	765.921
731.869	790.644
730.863	730.839
729.857	795.325
728.851	745.481
727.845	782.612
726.838	792.404
725.832	802.194
724.825	789.631
723.818	821.761
722.811	769.484
721.804	826.423
720.796	803.94
719.788	821.159
718.78	860.695
717.772	833.258
716.764	800.872
715.756	872.616
714.747	825.364
713.738	795.475
712.729	830.016
711.72	805.092
710.71	819.805
709.701	782.51
708.691	789.794
707.681	799.551
706.671	816.729
705.661	776.987
704.65	826.325
703.64	821.226
702.629	806.237
701.618	823.398
700.606	838.08
699.595	771.189
698.583	805.645
697.572	815.381
696.56	802.879
695.547	770.622
694.535	812.462
693.523	775.278
692.51	770.198
691.497	834.228
690.484	801.995
689.471	782.11
688.457	754.832
687.443	818.817
686.43	808.803
685.416	788.932
684.401	806.041
683.387	867.506
682.372	832.85
681.358	840.087
680.343	842.396
679.327	864.406
678.312	849.473
677.297	839.47
676.281	804.857
675.265	888.379
674.249	863.611
673.233	868.372
672.216	865.753
671.2	882.807
670.183	831.014
669.166	865.276
668.148	838.082
667.131	869.872
666.113	864.798
665.096	844.988
664.078	820.274
663.06	822.578
662.041	797.877
661.023	883.639
660.004	836.848
658.985	895.582
657.966	861.072
656.947	890.347
655.927	870.565
654.908	885.115
653.888	943.786
652.868	901.946
651.848	801.31
650.827	901.614
649.807	894.099
648.786	842.502
647.765	918.256
646.744	932.776
645.723	944.843
644.701	959.353
643.679	934.708
642.657	927.196
641.635	917.241
640.613	926.854
639.591	912.013
638.568	938.736
637.545	985.002
636.522	1031.25
635.499	969.979
634.475	950.258
633.452	967.179
632.428	1010.96
631.404	1010.77
630.38	1042.32
629.356	1017.72
628.331	1051.69
627.306	1017.34
626.281	1068.38
625.256	1080.37
624.231	1146.01
623.205	1131.17
622.18	1087.09
621.154	1152.69
620.128	1189.02
619.102	1213.16
618.075	1169.1
617.049	1210.28
616.022	1163.8
614.995	1180.62
613.968	1226.65
612.94	1170.45
611.913	1182.4
610.885	1170.02
609.857	1169.8
608.829	1181.74
607.8	1208.27
606.772	1229.92
605.743	1183.52
604.714	1163.86
603.685	1153.93
602.656	1114.86
601.626	1112.22
600.597	1133.87
599.567	1092.39
598.537	1133.45
597.507	1125.96
596.476	1130.6
595.446	1081.88
594.415	1098.66
593.384	1098.45
592.353	1095.82
591.321	1044.72
590.29	1032.41
589.258	1095.22
588.226	1095.01
587.194	1070.59
586.162	1000.16
585.129	1082.3
584.096	1004.63
583.063	958.461
582.03	1018.78
580.997	1011.33
579.964	1069.2
578.93	1013.38
577.896	947.901
576.862	998.497
575.828	959.636
574.793	990.877
573.759	997.942
572.724	1002.59
571.689	1002.4
570.654	982.897
569.618	975.472
568.583	919.767
567.547	941.319
566.511	938.732
565.475	1013.35
564.438	916.673
563.402	962.328
562.365	928.39
561.328	949.917
560.291	952.151
559.254	992.945
558.216	983.123
557.178	1007.03
556.141	963.488
555.102	956.085
554.064	977.578
553.026	936.471
551.987	1001.28
550.948	945.75
549.909	928.732
548.87	952.615
547.83	942.818
546.791	904.168
545.751	928.042
544.711	947.101
543.671	978.169
542.63	905.899
541.59	960.988
540.549	960.81
539.508	1001.46
538.467	972.458
537.425	945.87
536.384	1000.9
535.342	969.517
534.3	986.132
533.258	916.381
532.216	906.617
531.173	920.836
530.13	947.038
529.088	918.097
528.044	953.876
527.001	898.586
525.958	924.772
524.914	893.461
523.87	917.244
522.826	936.229
521.782	907.327
520.737	921.519
519.693	873.486
518.648	980.993
517.603	944.928
516.557	975.845
515.512	980.446
514.466	915.71
513.42	1023.11
512.374	965.559
511.328	960.6
510.282	958.032
509.235	924.413
508.188	933.793
507.141	931.232
506.094	916.734
505.047	904.629
503.999	914.007
502.951	906.678
501.903	958.992
500.855	925.422
499.807	889.479
