3200.66	54.7289
3200.06	46.309
3199.47	29.4649
3198.87	21.0432
3198.28	29.456
3197.69	42.0737
3197.09	25.2404
3196.5	25.2366
3195.9	33.6437
3195.31	46.2531
3194.71	37.8377
3194.12	58.8497
3193.52	25.2175
3192.93	25.2137
3192.33	25.2099
3191.74	33.6081
3191.14	46.2041
3190.55	46.1971
3189.95	29.3937
3189.36	37.7862
3188.76	8.39567
3188.17	46.1692
3187.57	41.9656
3186.97	37.7634
3186.38	54.5388
3185.78	41.9466
3185.19	29.3582
3184.59	33.5471
3183.99	37.7348
3183.4	4.19212
3182.8	33.5319
3182.2	25.1451
3181.61	20.9511
3181.01	29.3271
3180.41	25.1337
3179.82	20.9416
3179.22	8.37536
3178.62	29.3093
3178.03	37.6777
3177.43	41.8578
3176.83	29.296
3176.23	12.5535
3175.64	46.0227
3175.04	25.0995
3174.44	33.4609
3173.84	41.8198
3173.25	25.0881
3172.65	25.0843
3172.05	33.4406
3171.45	33.4356
3170.85	66.861
3170.26	45.96
3169.66	33.4204
3169.06	41.7691
3168.46	45.9391
3167.86	41.7565
3167.26	41.7502
3166.66	20.8719
3166.06	45.9113
3165.47	33.3849
3164.87	41.7249
3164.27	54.2341
3163.67	41.7122
3163.07	45.8765
3162.47	29.1897
3161.87	20.8466
3161.27	20.8435
3160.67	41.6806
3160.07	29.172
3159.47	45.8348
3158.87	20.8308
3158.27	37.4898
3157.67	12.4947
3157.07	29.1499
3156.47	49.9637
3155.87	29.1411
3155.27	37.4614
3154.67	29.1322
3154.07	29.1278
3153.46	45.7653
3152.86	37.4387
3152.26	29.1145
3151.66	16.6344
3151.06	41.5796
3150.46	45.7306
3149.86	20.7835
3149.26	29.0925
3148.65	41.5544
3148.05	8.30961
3147.45	24.925
3146.85	41.5354
3146.25	29.0704
3145.64	29.066
3145.04	12.455
3144.44	37.3592
3143.84	49.8047
3143.24	45.6474
3142.63	45.6405
3142.03	45.6335
3141.43	45.6266
3140.82	33.178
3140.22	49.7594
3139.62	20.7299
3139.02	53.8896
3138.41	29.0131
3137.81	33.1528
3137.21	37.2912
3136.6	53.8569
3136	24.8532
3135.4	12.4247
3134.79	45.5504
3134.19	57.9645
3133.58	41.3969
3132.98	66.225
3132.38	41.3843
3131.77	49.6537
3131.17	41.3718
3130.56	33.0924
3129.96	53.7669
3129.35	53.7588
3128.75	16.5386
3128.14	28.9382
3127.54	24.8004
3126.93	45.4605
3126.33	37.1893
3125.72	28.9206
3125.12	24.7854
3124.51	70.2145
3123.91	20.6482
3123.3	45.4191
3122.7	28.8987
3122.09	45.4053
3121.49	41.2713
3120.88	74.277
3120.27	70.1398
3119.67	45.3777
3119.06	41.2462
3118.46	41.2399
3117.85	53.6037
3117.24	57.7183
3116.64	37.099
3116.03	37.0933
3115.42	45.3294
3114.82	61.8034
3114.21	37.0764
3113.6	70.0225
3113	32.9468
3112.39	28.824
3111.78	57.6393
3111.17	32.9317
3110.57	45.2742
3109.96	45.2673
3109.35	12.3438
3108.74	32.9117
3108.14	65.8133
3107.53	28.7889
3106.92	20.5604
3106.31	41.1145
3105.7	32.8866
3105.1	53.4326
3104.49	65.7532
3103.88	28.7627
3103.27	45.1916
3102.66	57.5078
3102.05	45.1778
3101.44	49.2774
3100.84	32.8466
3100.23	36.9468
3099.62	0
3099.01	41.0395
3098.4	49.2399
3097.79	61.5405
3097.18	36.9186
3096.57	57.4203
3095.96	41.0082
3095.35	41.002
3094.74	53.2944
3094.13	40.9895
3093.52	45.0816
3092.91	69.6609
3092.3	28.6795
3091.69	53.2538
3091.08	32.7666
3090.47	45.0472
3089.86	61.4186
3089.25	65.5032
3088.64	49.1199
3088.03	40.927
3087.42	40.9208
3086.81	40.9146
3086.19	24.545
3085.58	44.9923
3084.97	57.2542
3084.36	28.6227
3083.75	65.4134
3083.14	32.7017
3082.53	40.8709
3081.91	44.9511
3081.3	40.8584
3080.69	49.0226
3080.08	49.0152
3079.47	20.4199
3078.85	49.0002
3078.24	24.4964
3077.63	53.0674
3077.02	89.7926
3076.4	57.132
3075.79	57.1233
3075.18	40.7961
3074.57	48.9479
3073.95	57.0972
3073.34	65.2439
3072.73	53.0026
3072.11	52.9945
3071.5	61.1382
3070.89	32.602
3070.27	57.0449
3069.66	44.8141
3069.05	69.2476
3068.43	61.0915
3067.82	61.0822
3067.2	73.2874
3066.59	40.709
3065.98	56.9839
3065.36	32.5573
3064.75	56.9665
3064.13	61.0262
3063.52	61.0169
3062.9	40.6717
3062.29	44.7321
3061.67	28.4615
3061.06	44.7184
3060.44	81.2937
3059.83	69.0891
3059.21	60.9517
3058.6	77.1937
3057.98	28.4354
3057.37	40.6158
3056.75	73.0973
3056.14	48.7241
3055.52	32.4778
3054.9	73.0638
3054.29	32.4678
3053.67	40.5786
3053.06	24.3434
3052.44	48.6794
3051.82	56.784
3051.21	64.886
3050.59	52.7118
3049.97	72.9745
3049.36	48.6422
3048.74	60.7935
3048.12	32.4182
3047.51	60.7749
3046.89	68.8676
3046.27	56.7059
3045.65	44.5478
3045.04	68.836
3044.42	48.5827
3043.8	60.7191
3043.18	52.6152
3042.57	72.8406
3041.95	36.4147
3041.33	72.8183
3040.71	60.6727
3040.09	60.6634
3039.48	76.8285
3038.86	64.6878
3038.24	76.805
3037.62	48.501
3037	72.7404
3036.38	36.3646
3035.76	76.758
3035.14	48.4713
3034.53	88.8504
3033.91	84.7988
3033.29	72.6736
3032.67	64.5888
3032.05	72.6513
3031.43	72.6402
3030.81	36.3145
3030.19	48.4119
3029.57	56.472
3028.95	64.5295
3028.33	60.4871
3027.71	48.3823
3027.09	48.3749
3026.47	36.2756
3025.85	44.3301
3025.23	32.2351
3024.61	76.5466
3023.99	72.5067
3023.37	56.3855
3022.75	68.4576
3022.13	64.4208
3021.5	56.3596
3020.88	64.4011
3020.26	64.3912
3019.64	84.5005
3019.02	64.3715
3018.4	68.3842
3017.78	68.3737
3017.15	84.4487
3016.53	84.4357
3015.91	48.2416
3015.29	76.3708
3014.67	36.1701
3014.04	56.256
3013.42	68.3003
3012.8	48.2046
3012.18	92.378
3011.56	72.2847
3010.93	64.2432
3010.31	56.2042
3009.69	60.2096
3009.06	68.227
3008.44	80.2548
3007.82	72.2182
3007.19	92.2647
3006.57	72.1961
3005.95	72.185
3005.32	88.2126
3004.7	96.2171
3004.08	80.1686
3003.45	60.1172
3002.83	72.1296
3002.21	80.1317
3001.58	72.1075
3000.96	72.0964
3000.33	40.0474
2999.71	48.0495
2999.08	76.0667
2998.46	60.0434
2997.84	52.0297
2997.21	56.0233
2996.59	84.0221
2995.96	64.007
2995.34	83.9963
2994.71	59.9881
2994.09	67.9761
2993.46	95.9515
2992.83	71.9526
2992.21	67.9448
2991.58	87.915
2990.96	95.8926
2990.33	71.9084
2989.71	75.8916
2989.08	67.8926
2988.45	75.8683
2987.83	71.8642
2987.2	87.8205
2986.58	95.7895
2985.95	67.8405
2985.32	87.78
2984.7	67.8196
2984.07	91.7418
2983.44	87.7396
2982.82	63.8008
2982.19	75.7518
2981.56	83.7128
2980.93	99.6427
2980.31	87.6721
2979.68	75.7052
2979.05	87.6452
2978.42	63.7321
2977.8	75.6703
2977.17	67.6946
2976.54	99.5355
2975.91	99.5202
2975.28	95.5247
2974.66	127.347
2974.03	71.6215
2973.4	79.5672
2972.77	111.377
2972.14	99.4284
2971.51	87.4835
2970.88	75.5423
2970.26	91.4319
2969.63	107.317
2969	67.5593
2968.37	83.4427
2967.74	75.4842
2967.11	115.195
2966.48	103.262
2965.85	95.3044
2965.22	95.2898
2964.59	71.4563
2963.96	123.045
2963.33	95.2458
2962.7	87.2952
2962.07	91.2491
2961.44	91.235
2960.81	126.916
2960.18	103.103
2959.55	107.052
2958.92	150.643
2958.29	122.874
2957.66	114.929
2957.03	91.1367
2956.4	103.008
2955.76	130.721
2955.13	126.74
2954.5	158.401
2953.87	118.782
2953.24	126.682
2952.61	102.913
2951.98	154.346
2951.34	106.838
2950.71	142.429
2950.08	130.54
2949.45	134.475
2948.82	118.636
2948.18	158.157
2947.55	134.413
2946.92	98.8176
2946.29	142.275
2945.65	146.205
2945.02	146.182
2944.39	130.359
2943.76	150.087
2943.12	165.86
2942.49	165.834
2941.86	153.965
2941.22	146.047
2940.59	134.185
2939.96	153.894
2939.32	157.816
2938.69	201.184
2938.05	157.767
2937.42	205.066
2936.79	169.547
2936.15	173.464
2935.52	153.728
2934.88	193.116
2934.25	181.264
2933.61	212.756
2932.98	204.844
2932.34	224.506
2931.71	224.471
2931.08	240.187
2930.44	232.276
2929.81	224.368
2929.17	220.397
2928.53	236.103
2927.9	224.264
2927.26	243.898
2926.63	208.461
2925.99	228.092
2925.36	231.989
2924.72	259.473
2924.08	267.295
2923.45	255.463
2922.81	259.353
2922.18	290.745
2921.54	259.273
2920.9	251.377
2920.27	247.411
2919.63	223.814
2918.99	219.853
2918.36	290.475
2917.72	219.785
2917.08	255.068
2916.44	243.258
2915.81	215.76
2915.17	270.639
2914.53	247.067
2913.9	290.161
2913.26	282.275
2912.62	290.072
2911.98	282.188
2911.34	274.307
2910.71	250.756
2910.07	285.975
2909.43	278.097
2908.79	317.216
2908.15	289.758
2907.51	328.863
2906.88	313.155
2906.24	297.451
2905.6	301.318
2904.96	316.922
2904.32	305.137
2903.68	363.761
2903.04	328.507
2902.4	332.367
2901.76	312.767
2901.12	347.9
2900.48	394.747
2899.84	371.239
2899.2	367.274
2898.56	378.937
2897.92	339.819
2897.28	374.914
2896.64	386.571
2896	409.936
2895.36	405.969
2894.72	421.518
2894.08	378.527
2893.44	433.092
2892.8	405.717
2892.16	386.152
2891.52	386.092
2890.88	444.522
2890.24	440.554
2889.59	420.996
2888.95	467.701
2888.31	479.319
2887.67	475.348
2887.03	486.962
2886.39	471.306
2885.74	471.233
2885.1	517.886
2884.46	556.739
2883.82	556.653
2883.18	544.89
2882.53	626.527
2881.89	692.574
2881.25	781.943
2880.6	742.925
2879.96	812.813
2879.32	906.01
2878.68	968.075
2878.03	940.714
2877.39	917.249
2876.75	924.879
2876.1	796.516
2875.46	742.004
2874.82	629.246
2874.17	574.778
2873.53	582.455
2872.88	613.424
2872.24	531.81
2871.6	473.51
2870.95	457.914
2870.31	477.243
2869.66	442.254
2869.02	418.912
2868.37	414.969
2867.73	399.394
2867.08	422.594
2866.44	395.394
2865.79	453.47
2865.15	387.521
2864.5	445.58
2863.86	426.141
2863.21	426.075
2862.57	379.535
2861.92	391.092
2861.28	460.721
2860.63	421.939
2859.98	414.133
2859.34	410.199
2858.69	487.519
2858.05	479.706
2857.4	440.952
2856.75	483.424
2856.11	514.284
2855.46	502.605
2854.81	521.855
2854.17	506.314
2853.52	556.473
2852.87	533.203
2852.23	521.531
2851.58	563.939
2850.93	602.471
2850.28	563.763
2849.64	617.727
2848.99	609.911
2848.34	663.85
2847.69	690.76
2847.05	667.502
2846.4	705.976
2845.75	748.296
2845.1	690.331
2844.45	690.223
2843.8	693.971
2843.16	763.25
2842.51	713.027
2841.86	682.087
2841.21	593.362
2840.56	620.236
2839.91	570.067
2839.26	550.722
2838.61	535.234
2837.96	454.301
2837.31	496.573
2836.66	538.833
2836.01	384.821
2835.36	373.218
2834.72	357.772
2834.07	326.945
2833.42	284.59
2832.76	253.784
2832.11	280.657
2831.46	288.301
2830.81	242.136
2830.16	261.312
2829.51	268.956
2828.86	238.181
2828.21	207.416
2827.56	230.426
2826.91	218.871
2826.26	199.64
2825.61	188.093
2824.96	195.74
2824.3	199.547
2823.65	191.842
2823	180.304
2822.35	161.097
2821.7	153.402
2821.04	168.716
2820.39	161.022
2819.74	164.83
2819.09	149.474
2818.44	168.611
2817.78	157.09
2817.13	149.404
2816.48	157.041
2815.83	187.654
2815.17	168.48
2814.52	172.282
2813.87	145.46
2813.21	156.919
2812.56	141.588
2811.91	176.001
2811.25	130.067
2810.6	179.771
2809.95	175.918
2809.29	122.359
2808.64	149.102
2807.98	191.126
2807.33	160.521
2806.68	129.925
2806.02	206.32
2805.37	152.806
2804.71	206.256
2804.06	179.491
2803.4	168.008
2802.75	148.893
2802.09	152.687
2801.44	137.396
2800.78	171.719
2800.13	144.984
2799.47	183.11
2798.82	141.125
2798.16	163.985
2797.51	167.772
2796.85	160.121
2796.19	148.661
2795.54	171.505
2794.88	175.288
2794.23	156.211
2793.57	167.615
2792.91	148.545
2792.26	213.261
2791.6	106.614
2790.94	156.089
2790.29	175.097
2789.63	156.04
2788.97	163.627
2788.32	163.601
2787.66	186.4
2787	148.336
2786.34	171.13
2785.69	148.29
2785.03	174.878
2784.37	171.05
2783.71	190.026
2783.06	144.397
2782.4	170.97
2781.74	193.736
2781.08	163.32
2780.42	174.687
2779.76	167.066
2779.11	189.818
2778.45	178.401
2777.79	193.554
2777.13	155.578
2776.47	128.996
2775.81	174.496
2775.15	147.919
2774.49	216.156
2773.83	163.04
2773.17	166.805
2772.51	155.408
2771.86	189.492
2771.2	147.781
2770.54	151.546
2769.88	181.827
2769.22	178.011
2768.56	151.475
2767.9	189.314
2767.23	177.928
2766.57	193.04
2765.91	174.088
2765.25	185.412
2764.59	185.383
2763.93	219.399
2763.27	170.196
2762.61	207.985
2761.95	173.924
2761.29	154.995
2760.63	196.548
2759.96	177.622
2759.3	173.815
2758.64	166.232
2757.98	196.425
2757.32	185.064
2756.65	177.483
2755.99	162.352
2755.33	196.302
2754.67	184.948
2754.01	181.146
2753.34	181.117
2752.68	165.998
2752.02	162.2
2751.35	154.632
2750.69	177.233
2750.03	214.908
2749.37	192.256
2748.7	192.226
2748.04	173.353
2747.38	252.453
2746.71	188.368
2746.05	177.039
2745.38	173.245
2744.72	225.936
2744.06	176.955
2743.39	191.985
2742.73	229.594
2742.06	180.636
2741.4	203.183
2740.73	210.675
2740.07	210.642
2739.41	180.522
2738.74	218.097
2738.08	176.706
2737.41	240.583
2736.75	191.685
2736.08	202.928
2735.41	210.411
2734.75	214.135
2734.08	229.126
2733.42	214.068
2732.75	217.789
2732.09	236.527
2731.42	202.706
2730.75	172.648
2730.09	221.405
2729.42	273.899
2728.76	225.087
2728.09	247.557
2727.42	281.271
2726.76	221.232
2726.09	269.935
2725.42	243.653
2724.75	262.355
2724.09	243.577
2723.42	269.766
2722.75	273.47
2722.09	262.19
2721.42	254.659
2720.75	262.108
2720.08	232.116
2719.41	220.85
2718.75	269.47
2718.08	280.654
2717.41	273.127
2716.74	276.825
2716.07	261.82
2715.41	272.998
2714.74	250.52
2714.07	261.697
2713.4	242.966
2712.73	261.614
2712.06	261.573
2711.39	246.588
2710.72	261.491
2710.05	235.305
2709.38	246.471
2708.71	257.634
2708.04	235.194
2707.37	235.157
2706.7	242.584
2706.03	246.278
2705.36	268.624
2704.69	216.358
2704.02	216.324
2703.35	208.832
2702.68	223.713
2702.01	208.766
2701.34	264.644
2700.67	223.607
2700	201.215
2699.33	245.891
2698.66	245.852
2697.99	253.262
2697.32	245.775
2696.64	204.78
2695.97	201.025
2695.3	189.827
2694.63	256.785
2693.96	226.977
2693.29	230.662
2692.61	223.186
2691.94	256.623
2691.27	219.397
2690.6	171.028
2689.92	215.611
2689.25	252.745
2688.58	237.84
2687.91	278.675
2687.23	267.486
2686.56	211.726
2685.89	252.546
2685.21	215.373
2684.54	241.328
2683.87	226.442
2683.19	211.56
2682.52	222.659
2681.85	256.018
2681.17	230.009
2680.5	252.228
2679.82	203.976
2679.15	222.484
2678.48	211.327
2677.8	240.949
2677.13	203.848
2676.45	244.578
2675.78	244.54
2675.1	229.683
2674.43	262.983
2673.75	259.238
2673.08	207.358
2672.4	218.432
2671.73	244.309
2671.05	255.374
2670.37	251.633
2669.7	236.794
2669.02	203.462
2668.35	229.321
2667.67	232.983
2667	266.225
2666.32	236.607
2665.64	221.784
2664.97	218.053
2664.29	232.8
2663.61	217.985
2662.94	273.361
2662.26	210.529
2661.58	280.661
2660.91	265.847
2660.23	276.881
2659.55	254.69
2658.87	236.197
2658.2	236.16
2657.52	273.016
2656.84	239.774
2656.16	254.489
2655.49	291.326
2654.81	247.035
2654.13	224.877
2653.45	213.783
2652.77	250.603
2652.09	254.248
2651.42	272.629
2650.74	217.332
2650.06	257.811
2649.38	261.453
2648.7	261.411
2648.02	272.414
2647.34	276.052
2646.66	264.968
2645.98	235.49
2645.3	242.81
2644.62	279.556
2643.94	250.089
2643.26	316.239
2642.58	238.98
2641.9	268.351
2641.22	231.554
2640.54	220.493
2639.86	279.247
2639.18	209.402
2638.5	246.1
2637.82	249.734
2637.14	264.382
2636.46	245.983
2635.78	249.615
2635.1	234.895
2634.42	249.537
2633.73	253.166
2633.05	223.778
2632.37	297.101
2631.69	227.375
2631.01	234.672
2630.33	234.635
2629.64	241.929
2628.96	238.226
2628.28	263.839
2627.6	267.462
2626.91	223.46
2626.23	271.04
2625.55	245.362
2624.87	241.662
2624.18	245.284
2623.5	256.227
2622.82	204.949
2622.13	252.486
2621.45	245.129
2620.77	267.039
2620.08	245.052
2619.4	270.611
2618.72	288.85
2618.03	230.312
2617.35	274.138
2616.67	277.749
2615.98	266.743
2615.3	259.394
2614.61	244.742
2613.93	295.835
2613.24	259.271
2612.56	255.579
2611.87	266.49
2611.19	255.498
2610.5	291.951
2609.82	270.012
2609.13	207.949
2608.45	233.45
2607.76	280.825
2607.08	288.074
2606.39	277.09
2605.71	266.11
2605.02	269.713
2604.33	240.517
2603.65	276.915
2602.96	273.228
2602.27	244.045
2601.59	298.634
2600.9	258.533
2600.21	287.617
2599.53	251.17
2598.84	280.247
2598.15	298.398
2597.47	261.966
2596.78	232.822
2596.09	272.795
2595.41	265.478
2594.72	276.345
2594.03	261.759
2593.34	272.622
2592.65	265.31
2591.97	268.902
2591.28	294.292
2590.59	279.714
2589.9	272.406
2589.21	315.941
2588.52	279.581
2587.84	265.016
2587.15	275.863
2586.46	297.594
2585.77	268.518
2585.08	275.732
2584.39	279.315
2583.7	257.51
2583.01	271.974
2582.32	239.299
2581.63	253.762
2580.94	304.466
2580.25	260.929
2579.56	286.252
2578.87	293.452
2578.18	286.161
2577.49	282.494
2576.8	260.722
2576.11	289.645
2575.42	264.259
2574.73	260.598
2574.04	303.983
2573.35	282.225
2572.66	274.945
2571.97	260.433
2571.28	264.008
2570.58	289.278
2569.89	274.77
2569.2	292.8
2568.51	299.982
2567.82	318.003
2567.13	296.274
2566.43	335.965
2565.74	274.508
2565.05	317.801
2564.36	288.864
2563.66	256.326
2562.97	310.43
2562.28	267.072
2561.59	299.506
2560.89	285.027
2560.2	335.484
2559.51	288.543
2558.81	284.891
2558.12	302.874
2557.43	281.195
2556.73	295.568
2556.04	306.333
2555.35	291.871
2554.65	295.427
2553.96	277.369
2553.26	270.122
2552.57	306.09
2551.88	324.043
2551.18	298.792
2550.49	287.947
2549.79	277.105
2549.1	309.444
2548.4	291.407
2547.71	291.361
2547.01	334.472
2546.32	287.672
2545.62	273.245
2544.93	248.038
2544.23	273.158
2543.53	287.489
2542.84	294.629
2542.14	312.545
2541.45	366.373
2540.75	301.671
2540.05	323.167
2539.36	315.936
2538.66	279.989
2537.97	254.821
2537.27	319.373
2536.57	287.031
2535.88	276.224
2535.18	294.113
2534.48	308.411
2533.78	279.677
2533.09	315.483
2532.39	290.342
2531.69	293.879
2530.99	326.082
2530.3	308.116
2529.6	279.41
2528.9	304.437
2528.2	304.388
2527.5	279.276
2526.81	293.551
2526.11	286.346
2525.41	304.194
2524.71	307.724
2524.01	282.631
2523.31	307.626
2522.61	357.647
2521.91	325.407
2521.21	311.054
2520.52	278.831
2519.82	314.529
2519.12	328.773
2518.42	300.136
2517.72	335.813
2517.02	314.328
2516.32	346.42
2515.62	367.789
2514.92	314.178
2514.22	324.836
2513.52	321.216
2512.82	353.281
2512.11	310.409
2511.41	324.629
2510.71	285.343
2510.01	285.297
2509.31	328.039
2508.61	324.422
2507.91	331.499
2507.21	285.115
2506.5	359.9
2505.8	374.094
2505.1	320.601
2504.4	338.358
2503.7	359.67
2503	331.129
2502.29	331.076
2501.59	341.701
2500.89	327.411
2500.19	327.359
2499.48	298.845
2498.78	348.597
2498.08	309.419
2497.37	341.374
2496.67	351.985
2495.97	355.484
2495.26	316.33
2494.56	330.495
2493.86	333.995
2493.15	355.257
2492.45	355.2
2491.75	348.04
2491.04	323.129
2490.34	330.178
2489.63	362.072
2488.93	337.17
2488.22	333.568
2487.52	372.543
2486.81	315.724
2486.11	340.502
2485.41	322.716
2484.7	315.572
2483.99	358.064
2483.29	326.105
2482.58	329.597
2481.88	329.545
2481.17	318.863
2480.47	379.032
2479.76	318.761
2479.06	347.04
2478.35	350.525
2477.64	375.249
2476.94	343.334
2476.23	293.733
2475.52	367.993
2474.82	329.018
2474.11	343.114
2473.4	367.816
2472.7	388.974
2471.99	371.234
2471.28	332.289
2470.57	332.236
2469.87	342.784
2469.16	392.196
2468.45	332.076
2467.74	353.216
2467.04	324.907
2466.33	377.82
2465.62	345.986
2464.91	349.46
2464.2	331.757
2463.5	363.463
2462.79	377.518
2462.08	331.598
2461.37	349.18
2460.66	342.071
2459.95	405.483
2459.24	370.165
2458.53	341.907
2457.82	362.998
2457.11	369.987
2456.4	412.205
2455.69	366.346
2454.99	338.111
2454.28	373.271
2453.57	327.44
2452.85	369.631
2452.14	362.532
2451.43	334.321
2450.72	358.897
2450.01	362.358
2449.3	376.37
2448.59	379.826
2447.88	319.987
2447.17	383.22
2446.46	400.735
2445.75	365.524
2445.04	376.007
2444.32	347.839
2443.61	358.322
2442.9	379.339
2442.19	351.183
2441.48	382.728
2440.76	386.178
2440.05	393.136
2439.34	350.958
2438.63	378.974
2437.92	389.438
2437.2	382.36
2436.49	378.791
2435.78	389.251
2435.06	385.682
2434.35	368.092
2433.64	364.528
2432.92	385.496
2432.21	392.442
2431.5	353.842
2430.78	357.288
2430.07	399.258
2429.36	409.699
2428.64	388.626
2427.93	357.058
2427.21	402.501
2426.5	412.935
2425.78	353.387
2425.07	388.314
2424.35	388.251
2423.64	384.692
2422.92	388.127
2422.21	377.576
2421.49	408.975
2420.78	391.434
2420.06	359.922
2419.35	380.827
2418.63	461.111
2417.92	363.241
2417.2	377.151
2416.48	356.141
2415.77	390.994
2415.05	383.95
2414.34	394.358
2413.62	362.891
2412.9	401.209
2412.19	408.121
2411.47	373.179
2410.75	411.477
2410.04	393.978
2409.32	393.914
2408.6	358.997
2407.88	414.697
2407.17	390.24
2406.45	425.014
2405.73	379.665
2405.01	365.673
2404.29	424.809
2403.58	431.704
2402.86	410.749
2402.14	393.281
2401.42	421.056
2400.7	407.071
2399.98	379.176
2399.27	420.852
2398.55	406.874
2397.83	406.809
2397.11	385.885
2396.39	403.202
2395.67	406.612
2394.95	413.496
2394.23	427.327
2393.51	368.206
2392.79	406.35
2392.07	399.34
2391.35	440.939
2390.63	416.568
2389.91	416.501
2389.19	447.666
2388.47	399.018
2387.75	437.115
2387.03	450.919
2386.31	378.017
2385.59	436.903
2384.87	443.767
2384.14	409.032
2383.42	395.102
2382.7	405.434
2381.98	412.298
2381.26	415.696
2380.54	429.483
2379.82	429.414
2379.09	418.957
2378.37	429.276
2377.65	418.822
2376.93	449.902
2376.2	453.289
2375.48	435.918
2374.76	473.898
2374.04	421.943
2373.31	397.669
2372.59	439.094
2371.87	452.851
2371.14	397.477
2370.42	483.806
2369.7	435.355
2368.97	428.376
2368.25	466.302
2367.52	459.319
2366.8	379.827
2366.08	445.361
2365.35	424.578
2364.63	445.218
2363.9	414.089
2363.18	493.376
2362.45	489.847
2361.73	451.828
2361	424.167
2360.28	479.266
2359.55	468.846
2358.83	454.983
2358.1	427.339
2357.38	475.511
2356.65	444.427
2355.93	451.245
2355.2	440.839
2354.47	478.647
2353.75	499.227
2353.02	471.607
2352.3	437.113
2351.57	437.042
2350.84	443.853
2350.12	454.102
2349.39	509.062
2348.66	423.003
2347.94	502.02
2347.21	477.874
2346.48	457.172
2345.75	419.293
2345.03	415.789
2344.3	474.129
2343.57	429.395
2342.84	508.321
2342.11	418.954
2341.39	480.689
2340.66	435.983
2339.93	477.101
2339.2	480.456
2338.47	435.772
2337.74	466.577
2337.02	473.362
2336.29	476.715
2335.56	442.348
2334.83	459.419
2334.1	466.2
2333.37	500.398
2332.64	493.464
2331.91	435.137
2331.18	455.621
2330.45	506.925
2329.72	458.898
2328.99	469.096
2328.26	438.208
2327.53	455.252
2326.8	441.489
2326.07	451.683
2325.34	499.508
2324.61	475.482
2323.88	465.144
2323.14	492.426
2322.41	492.346
2321.68	492.266
2320.95	444.335
2320.22	416.924
2319.49	502.278
2318.76	457.784
2318.02	519.194
2317.29	430.314
2316.56	491.708
2315.83	495.043
2315.1	522.271
2314.36	498.295
2313.63	501.627
2312.9	477.662
2312.16	460.528
2311.43	484.329
2310.7	484.25
2309.97	508.039
2309.23	507.957
2308.5	497.649
2307.76	511.2
2307.03	500.895
2306.3	473.559
2305.56	476.888
2304.83	524.492
2304.1	473.328
2303.36	503.893
2302.63	531.045
2301.89	524.151
2301.16	442.394
2300.42	449.127
2299.69	520.494
2298.95	476.192
2298.22	469.313
2297.48	537.242
2296.75	499.758
2296.01	496.278
2295.28	533.582
2294.54	496.117
2293.8	536.806
2293.07	499.353
2292.33	455.118
2291.6	526.357
2290.86	522.876
2290.12	488.844
2289.39	512.524
2288.65	488.685
2287.91	549.681
2287.18	522.452
2286.44	505.407
2285.7	471.41
2284.97	515.415
2284.23	478.038
2283.49	535.587
2282.75	569.392
2282.01	494.748
2281.28	559.042
2280.54	555.564
2279.8	535.152
2279.06	501.2
2278.32	518.048
2277.59	511.193
2276.85	595.731
2276.11	541.485
2275.37	571.851
2274.63	500.711
2273.89	554.752
2273.15	561.425
2272.41	574.86
2271.67	540.957
2270.93	557.771
2270.19	517.122
2269.45	503.52
2268.71	564.256
2267.97	550.652
2267.23	567.451
2266.49	550.473
2265.75	590.902
2265.01	523.285
2264.27	536.702
2263.53	573.739
2262.79	563.522
2262.05	553.309
2261.31	576.832
2260.57	495.792
2259.83	546.294
2259.09	576.55
2258.34	579.827
2257.6	515.693
2256.86	518.979
2256.12	539.111
2255.38	555.868
2254.63	522.094
2253.89	559.054
2253.15	575.799
2252.41	589.172
2251.66	504.923
2250.92	585.615
2250.18	548.504
2249.43	551.779
2248.69	521.413
2247.95	578.506
2247.21	507.792
2246.46	541.332
2245.72	507.626
2244.97	541.156
2244.23	578.035
2243.49	584.661
2242.74	591.285
2242	567.675
2241.25	587.734
2240.51	560.774
2239.76	577.47
2239.02	580.732
2238.27	594.063
2237.53	580.543
2236.78	573.738
2236.04	550.162
2235.29	550.072
2234.55	576.811
2233.8	543.187
2233.06	583.327
2232.31	586.584
2231.57	613.299
2230.82	562.937
2230.07	586.297
2229.33	539.305
2228.58	606.201
2227.83	596.056
2227.09	602.655
2226.34	652.769
2225.59	555.6
2224.85	558.856
2224.1	575.494
2223.35	622.235
2222.6	622.133
2221.86	601.966
2221.11	618.587
2220.36	605.113
2219.61	581.616
2218.87	568.152
2218.12	544.669
2217.37	588.013
2216.62	587.917
2215.87	554.422
2215.12	597.742
2214.37	570.934
2213.63	560.826
2212.88	590.774
2212.13	553.969
2211.38	627.284
2210.63	593.821
2209.88	620.408
2209.13	570.282
2208.38	570.188
2207.63	600.1
2206.88	610.002
2206.13	616.568
2205.38	616.467
2204.63	616.366
2203.88	602.941
2203.13	636.148
2202.38	636.044
2201.63	629.281
2200.88	569.257
2200.12	622.418
2199.37	628.972
2198.62	588.941
2197.87	628.767
2197.12	562.138
2196.37	552.069
2195.62	648.409
2194.86	605.083
2194.11	658.169
2193.36	591.591
2192.61	574.879
2191.85	647.879
2191.1	700.923
2190.35	631.06
2189.6	627.636
2188.84	650.775
2188.09	620.791
2187.34	607.412
2186.58	637.18
2185.83	610.531
2185.08	663.512
2184.32	656.77
2183.57	650.029
2182.82	653.238
2182.06	659.762
2181.31	669.599
2180.55	633.032
2179.8	659.438
2179.04	699.089
2178.29	645.971
2177.53	695.547
2176.78	702.056
2176.02	668.831
2175.27	642.237
2174.51	678.542
2173.76	635.408
2173	635.304
2172.25	628.583
2171.49	611.941
2170.74	720.98
2169.98	664.648
2169.22	661.232
2168.47	641.29
2167.71	618.049
2166.95	667.516
2166.2	627.759
2165.44	654.083
2164.68	667.188
2163.93	640.659
2163.17	657.063
2162.41	699.872
2161.65	650.246
2160.9	630.338
2160.14	653.333
2159.38	692.815
2158.62	663.014
2157.87	656.309
2157.11	689.176
2156.35	682.469
2155.59	672.468
2154.83	682.245
2154.07	705.2
2153.31	708.379
2152.56	662.144
2151.8	668.622
2151.04	675.099
2150.28	648.647
2149.52	632.08
2148.76	710.973
2148	704.274
2147.24	707.449
2146.48	684.303
2145.72	707.217
2144.96	756.433
2144.2	664.236
2143.44	683.854
2142.68	660.731
2141.92	608.035
2141.16	693.375
2140.4	732.688
2139.64	663.582
2138.87	702.887
2138.11	702.771
2137.35	673.105
2136.59	686.126
2135.83	649.907
2135.07	692.464
2134.31	708.756
2133.54	652.867
2132.78	705.243
2132.02	714.966
2131.26	691.894
2130.49	685.224
2129.73	645.774
2128.97	737.438
2128.21	727.486
2127.44	691.326
2126.68	723.971
2125.92	651.794
2125.15	720.458
2124.39	769.453
2123.63	749.684
2122.86	700.463
2122.1	716.711
2121.33	723.137
2120.57	729.561
2119.81	742.525
2119.04	706.427
2118.28	765.17
2117.51	722.542
2116.75	706.079
2115.98	784.403
2115.22	764.667
2114.45	774.342
2113.69	702.347
2112.92	725.094
2112.16	764.163
2111.39	715.06
2110.62	701.884
2109.86	783.369
2109.09	704.916
2108.33	704.8
2107.56	678.585
2106.79	704.568
2106.03	701.19
2105.26	710.857
2104.49	727.042
2103.73	691.065
2102.96	782.208
2102.19	684.319
2101.42	742.853
2100.66	739.473
2099.89	749.122
2099.12	788.077
2098.35	787.947
2097.59	758.518
2096.82	771.412
2096.05	777.794
2095.28	741.873
2094.51	735.244
2093.74	774.156
2092.98	748.011
2092.21	734.881
2091.44	721.755
2090.67	760.643
2089.9	718.266
2089.13	773.39
2088.36	763.515
2087.59	750.396
2086.82	760.016
2086.05	743.653
2085.28	727.296
2084.51	671.989
2083.74	733.548
2082.97	782.105
2082.2	791.71
2081.43	733.184
2080.66	713.601
2079.89	745.914
2079.12	807.4
2078.35	797.541
2077.57	735.82
2076.8	751.904
2076.03	771.222
2075.26	780.814
2074.49	754.77
2073.72	799.989
2072.94	725.376
2072.17	783.536
2071.4	796.356
2070.63	754.147
2069.86	747.55
2069.08	740.955
2068.31	782.889
2067.54	766.587
2066.76	717.95
2065.99	750.166
2065.22	795.303
2064.44	808.101
2063.67	762.721
2062.9	794.909
2062.12	759.238
2061.35	739.731
2060.58	771.906
2059.8	855.738
2059.03	752.279
2058.25	816.717
2057.48	768.168
2056.7	839.036
2055.93	835.671
2055.15	771.013
2054.38	787.012
2053.6	809.457
2052.83	848.015
2052.05	780.174
2051.28	812.278
2050.5	767.025
2049.72	821.676
2048.95	795.766
2048.17	827.846
2047.4	763.296
2046.62	798.591
2045.84	804.898
2045.07	801.546
2044.29	775.665
2043.51	833.46
2042.74	752.886
2041.96	823.533
2041.18	775.151
2040.4	803.965
2039.63	784.54
2038.85	826.202
2038.07	781.066
2037.29	822.715
2036.52	767.954
2035.74	877.058
2034.96	790.185
2034.18	796.477
2033.4	783.501
2032.62	812.266
2031.84	818.551
2031.07	837.672
2030.29	821.488
2029.51	837.394
2028.73	872.542
2027.95	801.836
2027.17	833.771
2026.39	824.014
2025.61	817.466
2024.83	826.946
2024.05	855.651
2023.27	813.855
2022.49	880.996
2021.71	890.459
2020.93	893.514
2020.15	854.941
2019.37	902.822
2018.59	806.643
2017.8	896.121
2017.02	870.373
2016.24	806.241
2015.46	854.09
2014.68	831.56
2013.9	885.785
2013.11	818.495
2012.33	808.769
2011.55	869.362
2010.77	853.24
2009.99	901.025
2009.2	868.929
2008.42	865.591
2007.64	878.221
2006.85	878.076
2006.07	849.197
2005.29	839.481
2004.5	880.829
2003.72	893.447
2002.94	947.534
2002.15	861.252
2001.37	806.891
2000.59	841.833
1999.8	927.775
1999.02	972.249
1998.23	901.969
1997.45	882.7
1996.66	866.622
1995.88	869.664
1995.09	875.889
1994.31	894.851
1993.52	926.542
1992.74	910.471
1991.95	926.234
1991.17	871.979
1990.38	881.38
1989.6	849.42
1988.81	890.629
1988.02	922.284
1987.24	918.95
1986.45	902.901
1985.67	918.645
1984.88	915.314
1984.09	857.964
1983.3	892.769
1982.52	898.974
1981.73	911.528
1980.94	866.919
1980.16	908.05
1979.37	914.248
1978.58	920.444
1977.79	923.464
1977.01	916.964
1976.22	973.914
1975.43	951.549
1974.64	926.02
1973.85	932.207
1973.06	954.244
1972.27	944.576
1971.49	941.249
1970.7	918.912
1969.91	931.431
1969.12	905.935
1968.33	965.959
1967.54	943.632
1966.75	930.811
1965.96	902.166
1965.17	927.336
1964.38	958.826
1963.59	942.846
1962.8	904.728
1962.01	980.486
1961.22	917.076
1960.43	954.865
1959.64	951.544
1958.85	907.135
1958.06	976.509
1957.26	941.589
1956.47	963.547
1955.68	969.703
1954.89	915.854
1954.1	903.07
1953.31	928.176
1952.51	975.37
1951.72	975.207
1950.93	1028.69
1950.14	1006.43
1949.34	908.476
1948.55	961.941
1947.76	971.24
1946.97	1012.07
1946.17	1008.74
1945.38	907.718
1944.59	992.651
1943.79	945.224
1943	1001.77
1942.21	1039.4
1941.41	947.9
1940.62	988.674
1939.82	982.213
1939.03	997.787
1938.24	944.12
1937.44	1006.89
1936.65	1035.04
1935.85	971.956
1935.06	1047.27
1934.26	999.931
1933.47	949.462
1932.67	974.45
1931.88	1078
1931.08	942.701
1930.28	1055.65
1929.49	961.234
1928.69	954.792
1927.9	1014.3
1927.1	979.59
1926.3	976.287
1925.51	1026.34
1924.71	1048.14
1923.91	1010.31
1923.12	978.772
1922.32	981.745
1921.52	1016.08
1920.73	1006.5
1919.93	1012.6
1919.13	1062.58
1918.33	1053
1917.53	980.76
1916.74	1052.65
1915.94	1002.36
1915.14	1030.38
1914.34	992.629
1913.54	1026.9
1912.74	1004.82
1911.95	963.963
1911.15	991.965
1910.35	1035.6
1909.55	991.633
1908.75	1050.89
1907.95	1003.81
1907.15	1034.91
1906.35	1072.25
1905.55	1103.32
1904.75	990.637
1903.95	1065.46
1903.15	1052.79
1902.35	1061.98
1901.55	1061.8
1900.75	1036.64
1899.95	1061.45
1899.15	967.627
1898.35	1004.92
1897.54	1064.03
1896.74	1054.5
1895.94	1007.53
1895.14	1116.52
1894.34	1063.32
1893.54	1094.32
1892.73	1109.72
1891.93	1062.79
1891.13	1109.35
1890.33	1037.5
1889.53	1049.79
1888.72	1074.53
1887.92	1061.9
1887.12	1064.83
1886.31	1045.97
1885.51	1048.91
1884.71	1064.3
1883.9	1064.12
1883.1	1107.49
1882.3	1110.42
1881.49	1076.02
1880.69	1044.75
1879.88	1119.18
1879.08	1081.7
1878.28	1093.95
1877.47	1118.62
1876.67	1140.18
1875.86	1037.48
1875.06	1080.79
1874.25	1111.66
1873.45	1099.05
1872.64	1145.43
1871.84	1108
1871.03	1101.6
1870.22	1126.24
1869.42	1110.54
1868.61	1122.76
1867.81	1138.08
1867	1016.97
1866.19	1078.79
1865.39	1159.2
1864.58	1124.92
1863.77	1118.53
1862.97	1109.05
1862.16	1139.84
1861.35	1093.19
1860.54	1052.76
1859.74	1095.92
1858.93	1046.21
1858.12	1101.74
1857.31	1113.93
1856.51	1104.47
1855.7	1095
1854.89	1153.58
1854.08	1091.54
1853.27	1181.01
1852.46	1149.9
1851.65	1140.44
1850.84	1124.8
1850.04	1161.68
1849.23	1065.73
1848.42	1148.94
1847.61	1124.04
1846.8	1133.11
1845.99	1216.27
1845.18	1179.03
1844.37	1169.57
1843.56	1138.52
1842.75	1132.16
1841.94	1141.22
1841.13	1082.44
1840.31	1131.59
1839.5	1156.06
1838.69	1205.18
1837.88	1078.63
1837.07	1180.13
1836.26	1183.01
1835.45	1136.61
1834.64	1176.45
1833.82	1179.33
1833.01	1157.58
1832.2	1126.61
1831.39	1132.57
1830.57	1178.54
1829.76	1184.49
1828.95	1184.3
1828.14	1141.04
1827.32	1168.52
1826.51	1269.78
1825.7	1223.46
1824.88	1180.22
1824.07	1186.17
1823.26	1259.71
1822.44	1124.33
1821.63	1154.86
1820.81	1197.66
1820	1215.88
1819.19	1212.6
1818.37	1212.4
1817.56	1218.33
1816.74	1144.49
1815.93	1230.19
1815.11	1162.5
1814.3	1257.38
1813.48	1220.37
1812.67	1210.97
1811.85	1183.18
1811.03	1222.82
1810.22	1173.58
1809.4	1228.53
1808.59	1237.51
1807.77	1225.06
1806.95	1197.29
1806.14	1224.64
1805.32	1224.44
1804.5	1227.29
1803.69	1248.5
1802.87	1171.8
1802.05	1232.79
1801.24	1217.29
1800.42	1137.57
1799.6	1189.36
1798.78	1225.84
1797.96	1247.03
1797.15	1252.93
1796.33	1228.27
1795.51	1276.95
1794.69	1249.24
1793.87	1200.17
1793.05	1221.34
1792.23	1266.92
1791.42	1248.4
1790.6	1263.44
1789.78	1266.28
1788.96	1208.1
1788.14	1217.05
1787.32	1186.35
1786.5	1274.57
1785.68	1204.24
1784.86	1268.05
1784.04	1365.36
1783.22	1246.29
1782.4	1258.26
1781.58	1230.64
1780.76	1218.25
1779.93	1275.9
1779.11	1205.66
1778.29	1263.29
1777.47	1183.94
1776.65	1271.99
1775.83	1271.78
1775.01	1314.15
1774.18	1274.39
1773.36	1319.79
1772.54	1252.67
1771.72	1215.98
1770.89	1325.2
1770.07	1364.48
1769.25	1230.56
1768.43	1233.39
1767.6	1315.19
1766.78	1257.26
1765.96	1260.09
1765.13	1290.23
1764.31	1232.34
1763.49	1274.62
1762.66	1292.61
1761.84	1255.99
1761.01	1313.41
1760.19	1301.05
1759.36	1246.25
1758.54	1252.1
1757.72	1248.86
1756.89	1269.87
1756.07	1315.1
1755.24	1363.35
1754.41	1308.6
1753.59	1311.41
1752.76	1338.44
1751.94	1295.82
1751.11	1274.41
1750.29	1298.41
1749.46	1328.45
1748.63	1361.51
1747.81	1324.98
1746.98	1321.73
1746.15	1333.6
1745.33	1303.14
1744.5	1348.26
1743.67	1296.65
1742.85	1287.37
1742.02	1335.49
1741.19	1274.84
1740.36	1298.79
1739.54	1340.85
1738.71	1292.31
1737.88	1292.09
1737.05	1319.04
1736.22	1324.85
1735.39	1357.82
1734.57	1426.98
1733.74	1351.33
1732.91	1348.08
1732.08	1275.48
1731.25	1275.27
1730.42	1305.19
1729.59	1265.79
1728.76	1307.76
1727.93	1292.48
1727.1	1289.25
1726.27	1328.18
1725.44	1261.71
1724.61	1381.92
1723.78	1360.62
1722.95	1342.33
1722.12	1290.94
1721.29	1302.76
1720.46	1314.57
1719.62	1428.64
1718.79	1326.15
1717.96	1359
1717.13	1364.78
1716.3	1379.58
1715.47	1340.28
1714.63	1421.17
1713.8	1363.85
1712.97	1390.65
1712.14	1345.37
1711.31	1363.16
1710.47	1398.95
1709.64	1293.66
1708.81	1404.48
1707.97	1314.22
1707.14	1371
1706.31	1307.78
1705.47	1325.55
1704.64	1343.31
1703.81	1454.01
1702.97	1390.82
1702.14	1393.58
1701.3	1402.33
1700.47	1381.12
1699.63	1335.95
1698.8	1389.63
1697.96	1386.4
1697.13	1380.18
1696.29	1385.93
1695.46	1337.81
1694.62	1400.42
1693.79	1400.18
1692.95	1379
1692.12	1390.73
1691.28	1417.41
1690.44	1369.33
1689.61	1416.93
1688.77	1404.73
1687.93	1419.43
1687.1	1446.08
1686.26	1418.95
1685.42	1335.08
1684.59	1427.42
1683.75	1391.35
1682.91	1486.64
1682.07	1480.42
1681.24	1423.47
1680.4	1405.32
1679.56	1491.6
1678.72	1440.64
1677.88	1428.46
1677.05	1419.27
1676.21	1460.77
1675.37	1362.16
1674.53	1487.09
1673.69	1424.27
1672.85	1418.06
1672.01	1471.44
1671.17	1349.08
1670.33	1411.38
1669.49	1399.23
1668.65	1440.67
1667.81	1455.3
1666.97	1380.67
1666.13	1478.61
1665.29	1409.94
1664.45	1385.91
1663.61	1498.67
1662.77	1507.33
1661.93	1462.48
1661.09	1468.18
1660.25	1497.64
1659.4	1533.04
1658.56	1422.87
1657.72	1523.61
1656.88	1460.99
1656.04	1460.74
1655.19	1410.02
1654.35	1409.78
1653.51	1427.35
1652.67	1507.21
1651.82	1441.69
1650.98	1503.73
1650.14	1476.79
1649.3	1396.48
1648.45	1488.14
1647.61	1511.6
1646.77	1440.22
1645.92	1484.41
1645.08	1424.91
1644.23	1466.13
1643.39	1459.96
1642.54	1468.59
1641.7	1447.62
1640.86	1497.69
1640.01	1497.43
1639.17	1432.08
1638.32	1479.17
1637.48	1467.09
1636.63	1475.71
1635.78	1419.28
1634.94	1463.38
1634.09	1433.57
1633.25	1433.33
1632.4	1518.77
1631.56	1447.61
1630.71	1497.57
1629.86	1473.69
1629.02	1497.06
1628.17	1538.14
1627.32	1526.07
1626.47	1522.86
1625.63	1549.15
1624.78	1516.43
1623.93	1542.72
1623.09	1512.97
1622.24	1486.17
1621.39	1424
1620.54	1550.51
1619.69	1464.77
1618.84	1499.88
1618	1529.09
1617.15	1596.58
1616.3	1484.39
1615.45	1537.14
1614.6	1448.55
1613.75	1524.84
1612.9	1456.88
1612.05	1568.46
1611.2	1521.11
1610.35	1632.64
1609.5	1473.53
1608.65	1590.91
1607.8	1546.53
1606.95	1508.05
1606.1	1616.54
1605.25	1581
1604.4	1530.78
1603.55	1595.15
1602.7	1621.31
1601.85	1644.52
1600.99	1611.94
1600.14	1591.12
1599.29	1599.65
1598.44	1578.83
1597.59	1672.45
1596.74	1695.64
1595.88	1701.21
1595.03	1762.51
1594.18	1732.88
1593.32	1920.21
1592.47	1817.29
1591.62	1904.9
1590.77	1828.39
1589.91	1693.31
1589.06	1725.24
1588.21	1736.66
1587.35	1651.45
1586.5	1703.86
1585.64	1595.26
1584.79	1671.08
1583.93	1685.43
1583.08	1705.62
1582.23	1687.77
1581.37	1740.12
1580.52	1774.91
1579.66	1730.76
1578.81	1736.31
1577.95	1674.63
1577.09	1700.64
1576.24	1665.29
1575.38	1738.03
1574.53	1717.29
1573.67	1763.72
1572.81	1751.74
1571.96	1707.65
1571.1	1716.11
1570.24	1803.36
1569.39	1698.02
1568.53	1642.3
1567.67	1685.77
1566.82	1653.4
1565.96	1670.61
1565.1	1603.28
1564.24	1667.12
1563.39	1637.69
1562.53	1596.62
1561.67	1546.83
1560.81	1549.47
1559.95	1601.62
1559.09	1528.56
1558.23	1630.18
1557.38	1504.75
1556.52	1629.62
1555.66	1643.89
1554.8	1693.06
1553.94	1669.5
1553.08	1707.02
1552.22	1700.91
1551.36	1680.27
1550.5	1738.11
1549.64	1726.18
1548.78	1772.38
1547.92	1713.97
1547.06	1707.87
1546.2	1678.53
1545.34	1660.82
1544.47	1669.24
1543.61	1628.32
1542.75	1665.77
1541.89	1711.91
1541.03	1685.5
1540.17	1604
1539.3	1635.62
1538.44	1597.64
1537.58	1585.77
1536.72	1556.51
1535.85	1622.9
1534.99	1651.6
1534.13	1628.14
1533.27	1627.86
1532.4	1642.05
1531.54	1633.09
1530.68	1609.64
1529.81	1574.63
1528.95	1617.77
1528.08	1556.73
1527.22	1611.43
1526.36	1530.16
1525.49	1538.57
1524.63	1685.77
1523.76	1653.68
1522.9	1679.41
1522.03	1603.98
1521.17	1644.16
1520.3	1635.21
1519.44	1577.15
1518.57	1620.2
1517.7	1643.02
1516.84	1660.06
1515.97	1625.14
1515.11	1645.06
1514.24	1667.86
1513.37	1586.79
1512.51	1649.98
1511.64	1600.66
1510.77	1632.1
1509.91	1577.04
1509.04	1576.77
1508.17	1645.67
1507.3	1682.85
1506.44	1659.51
1505.57	1667.86
1504.7	1653.17
1503.83	1575.14
1502.96	1655.48
1502.09	1574.6
1501.23	1617.49
1500.36	1631.6
1499.49	1660.09
1498.62	1576.38
1497.75	1737.17
1496.88	1734
1496.01	1690.57
1495.14	1742.02
1494.27	1687.11
1493.4	1735.67
1492.53	1654.93
1491.66	1723.58
1490.79	1700.31
1489.92	1720.11
1489.05	1748.53
1488.18	1745.36
1487.31	1696.26
1486.44	1635.71
1485.56	1715.76
1484.69	1686.78
1483.82	1726.64
1482.95	1697.66
1482.08	1700.24
1481.21	1751.54
1480.33	1751.24
1479.46	1699.35
1478.59	1787.88
1477.72	1710.22
1476.84	1804.45
1475.97	1769.77
1475.1	1803.82
1474.22	1812.1
1473.35	1834.68
1472.48	1857.26
1471.6	1894.13
1470.73	1899.53
1469.85	1964.98
1468.98	1978.94
1468.11	1981.46
1467.23	1981.11
1466.36	2115.11
1465.48	2037.58
1464.61	2017.23
1463.73	2076.87
1462.86	2079.37
1461.98	2124.7
1461.11	2241.4
1460.23	2149.66
1459.35	2277.73
1458.48	2194.57
1457.6	2168.51
1456.73	2188.11
1455.85	2133.53
1454.97	2098.94
1454.1	2155.6
1453.22	2146.68
1452.34	2149.16
1451.46	2194.38
1450.59	2185.45
1449.71	2187.92
1448.83	2244.51
1447.95	2158.68
1447.08	2141.23
1446.2	2231.95
1445.32	2260.03
1444.44	2319.4
1443.56	2290.55
1442.68	2381.19
1441.81	2338.11
1440.93	2502.65
1440.05	2621.64
1439.17	2646.77
1438.29	2629.25
1437.41	2617.43
1436.53	2619.82
1435.65	2454.59
1434.77	2363.27
1433.89	2317.42
1433.01	2282.94
1432.13	2220.08
1431.25	2120.35
1430.37	2091.6
1429.48	1980.58
1428.6	1997.26
1427.72	1894.79
1426.84	1985.22
1425.96	1874.29
1425.08	1905.15
1424.19	1811.28
1423.31	1955.5
1422.43	1850.32
1421.55	1866.99
1420.67	1795.85
1419.78	1829.53
1418.9	1933.98
1418.02	2106.34
1417.13	2021.05
1416.25	2125.42
1415.37	2119.39
1414.48	2107.7
1413.6	1954.59
1412.71	1917.48
1411.83	1781.42
1410.95	1798.08
1410.06	1772.32
1409.18	1769.19
1408.29	1760.4
1407.41	1796.82
1406.52	1694.82
1405.64	1736.89
1404.75	1739.41
1403.87	1756.05
1402.98	1704.93
1402.1	1752.62
1401.21	1718.45
1400.32	1783.04
1399.44	1734.78
1398.55	1717.55
1397.66	1801.85
1396.78	1725.41
1395.89	1713.84
1395	1702.26
1394.12	1792.14
1393.23	1681.95
1392.34	1757.71
1391.45	1695.45
1390.57	1762.73
1389.68	1759.61
1388.79	1703
1387.9	1694.26
1387.01	1637.69
1386.12	1727.43
1385.24	1763.7
1384.35	1738.08
1383.46	1749.03
1382.57	1692.49
1381.68	1650.03
1380.79	1784.65
1379.9	1745
1379.01	1739.07
1378.12	1775.29
1377.23	1786.21
1376.34	1724.12
1375.45	1768.74
1374.56	1774.05
1373.67	1742.87
1372.78	1832.36
1371.89	1801.18
1370.99	1784.03
1370.1	1792.13
1369.21	1724.52
1368.32	1783.1
1367.43	1796.8
1366.54	1754.45
1365.64	1790.57
1364.75	1767.85
1363.86	1731.12
1362.97	1733.62
1362.07	1755.72
1361.18	1702.22
1360.29	1909.06
1359.39	1752
1358.5	1804.86
1357.61	1765.38
1356.71	1703.53
1355.82	1720.01
1354.93	1730.9
1354.03	1772.53
1353.14	1780.61
1352.24	1780.3
1351.35	1861.02
1350.45	1707.03
1349.56	1821.26
1348.66	1818.15
1347.77	1809.46
1346.87	1750.51
1345.98	1962.35
1345.08	1928.52
1344.18	1827.72
1343.29	1816.25
1342.39	1891.24
1341.5	1876.97
1340.6	1832.02
1339.7	1859.58
1338.81	1814.66
1337.91	1800.4
1337.01	1744.36
1336.11	1802.56
1335.22	1721.46
1334.32	1762.94
1333.42	1751.49
1332.52	1676.02
1331.63	1753.66
1330.73	1783.97
1329.83	1747.48
1328.93	1716.57
1328.03	1699.58
1327.13	1668.69
1326.23	1729.58
1325.33	1762.64
1324.43	1790.12
1323.53	1803.71
1322.64	1814.51
1321.74	1833.64
1320.84	1819.43
1319.94	1905.2
1319.03	1838.23
1318.13	1821.25
1317.23	1854.24
1316.33	1887.22
1315.43	1811.96
1314.53	1911.52
1313.63	1913.96
1312.73	1844.29
1311.83	1913.29
1310.92	1846.42
1310.02	1926.48
1309.12	1901.2
1308.22	1931.35
1307.32	2000.27
1306.41	2008.23
1305.51	2063.27
1304.61	1880.15
1303.71	2004.4
1302.8	2009.59
1301.9	2014.77
1301	2072.53
1300.09	2058.33
1299.19	2171.38
1298.28	2234.6
1297.38	2355.88
1296.48	2526.87
1295.57	2935.52
1294.67	3131.23
1293.76	3243.97
1292.86	3003.04
1291.95	2729.06
1291.05	2317.08
1290.14	2073.69
1289.24	2020.87
1288.33	1968.07
1287.42	1893.21
1286.52	1854.25
1285.61	1765.64
1284.71	1784.64
1283.8	1814.66
1282.89	1797.8
1281.99	1847.1
1281.08	1717.23
1280.17	1813.38
1279.26	1813.07
1278.36	1765.91
1277.45	1795.9
1276.54	1726.74
1275.63	1811.79
1274.72	1682.08
1273.82	1739.59
1272.91	1830.1
1272	1785.75
1271.09	1777.19
1270.18	1719.11
1269.27	1784.81
1268.36	1677.26
1267.45	1745.7
1266.54	1745.39
1265.64	1769.82
1264.73	1689.82
1263.82	1730.73
1262.91	1837.55
1261.99	1727.38
1261.08	1694.12
1260.17	1762.46
1259.26	1704.51
1258.35	1728.91
1257.44	1714.88
1256.53	1684.4
1255.62	1738.96
1254.71	1774.31
1253.79	1749.32
1252.88	1770.94
1251.97	1735
1251.06	1710.03
1250.15	1671.37
1249.23	1731.34
1248.32	1796.77
1247.41	1714.3
1246.49	1612.69
1245.58	1656.21
1244.67	1669.6
1243.75	1644.68
1242.84	1619.77
1241.93	1742.58
1241.01	1679.37
1240.1	1692.75
1239.18	1662.37
1238.27	1651.14
1237.35	1738.31
1236.44	1707.95
1235.53	1628.41
1234.61	1748.32
1233.69	1764.4
1232.78	1671.24
1231.86	1714.63
1230.95	1752.55
1230.03	1752.24
1229.12	1648.23
1228.2	1683.41
1227.28	1732.22
1226.37	1641.91
1225.45	1625.26
1224.53	1649.51
1223.62	1750.08
1222.7	1692.53
1221.78	1659.53
1220.86	1667.41
1219.95	1675.29
1219.03	1666.83
1218.11	1712.82
1217.19	1674.41
1216.27	1665.94
1215.35	1703.75
1214.44	1678.96
1213.52	1610.65
1212.6	1727.33
1211.68	1664.47
1210.76	1724
1209.84	1655.73
1208.92	1707.08
1208	1723.09
1207.08	1657.57
1206.16	1589.35
1205.24	1684.15
1204.32	1697.43
1203.4	1669.97
1202.48	1680.54
1201.56	1775.25
1200.64	1696.23
1199.71	1657.94
1198.79	1679.35
1197.87	1733.3
1196.95	1695.03
1196.03	1732.69
1195.1	1670.03
1194.18	1618.23
1193.26	1691.12
1192.34	1726.05
1191.41	1725.74
1190.49	1625.21
1189.57	1695.34
1188.65	1673.38
1187.72	1735.35
1186.8	1702.56
1185.87	1686.02
1184.95	1677.61
1184.03	1701.66
1183.1	1660.78
1182.18	1676.72
1181.25	1649.38
1180.33	1700.45
1179.4	1700.15
1178.48	1707.96
1177.55	1726.57
1176.63	1666.83
1175.7	1720.56
1174.78	1758.06
1173.85	1744.25
1172.92	1784.43
1172	1740.93
1171.07	1735.22
1170.15	1818.56
1169.22	1804.75
1168.29	1855.68
1167.36	1852.65
1166.44	1776.83
1165.51	1676.77
1164.58	1700.73
1163.65	1695.04
1162.73	1748.62
1161.8	1718.68
1160.87	1761.47
1159.94	1718.07
1159.01	1766.23
1158.08	1701.31
1157.16	1827.51
1156.23	1716.85
1155.3	1799.96
1154.37	1737.76
1153.44	1705.18
1152.51	1742.53
1151.58	1650.8
1150.65	1766.1
1149.72	1789.98
1148.79	1768.16
1147.86	1829.64
1146.93	1719.18
1146	1721.56
1145.07	1772.28
1144.13	1755.85
1143.2	1739.44
1142.27	1733.76
1141.34	1765.65
1140.41	1800.22
1139.48	1722.11
1138.54	1767.39
1137.61	1831.43
1136.68	1798.94
1135.75	1854.91
1134.81	1878.7
1133.88	1921.24
1132.95	2009.31
1132.01	2059.84
1131.08	2214.81
1130.15	2321.52
1129.21	2388.04
1128.28	2443.82
1127.35	2550.44
1126.41	2378.74
1125.48	2356.91
1124.54	2115.76
1123.61	2067.25
1122.67	1975.97
1121.74	1959.58
1120.8	1854.99
1119.87	1969.57
1118.93	1827.61
1117.99	1829.95
1117.06	1754.84
1116.12	1778.56
1115.19	1826.31
1114.25	1785.94
1113.31	1788.29
1112.38	1737.27
1111.44	1782.32
1110.5	1741.98
1109.56	1773.68
1108.63	1760.03
1107.69	1781.05
1106.75	1791.39
1105.81	1737.77
1104.88	1769.44
1103.94	1747.81
1103	1851.39
1102.06	1752.51
1101.12	1741.55
1100.18	1767.86
1099.24	1724.96
1098.3	1721.99
1097.36	1745.63
1096.42	1771.92
1095.49	1822.15
1094.55	1771.29
1093.6	1858.73
1092.66	1810.54
1091.72	1858.07
1090.78	1881.65
1089.84	1854.75
1088.9	1880.98
1087.96	1854.08
1087.02	1922.81
1086.08	1898.56
1085.14	1861.06
1084.19	1871.34
1083.25	1863.05
1082.31	1849.45
1081.37	1846.47
1080.43	1840.83
1079.48	1821.94
1078.54	1803.05
1077.6	1813.34
1076.65	1805.06
1075.71	1780.89
1074.77	1889.2
1073.82	1822.64
1072.88	1896.48
1071.93	1814.04
1070.99	1911.69
1070.05	1845.16
1069.1	1879.24
1068.16	1931.83
1067.21	1994.99
1066.27	2111.03
1065.32	2200.58
1064.38	2255.72
1063.43	2347.86
1062.49	2342.15
1061.54	2476.53
1060.59	2505.15
1059.65	2396.38
1058.7	2295.57
1057.75	2120.84
1056.81	2049.17
1055.86	1993.36
1054.91	1956.04
1053.97	2024.32
1053.02	2013.4
1052.07	2018.31
1051.12	1957.28
1050.18	1893.64
1049.23	1866.93
1048.28	1914.05
1047.33	1752.91
1046.38	1831.67
1045.43	1807.62
1044.48	1791.49
1043.54	1825.42
1042.59	1769.78
1041.64	1843.19
1040.69	1758.62
1039.74	1724.09
1038.79	1768.52
1037.84	1768.2
1036.89	1723.16
1035.94	1720.22
1034.99	1733.06
1034.04	1877.37
1033.08	1779.76
1032.13	1776.82
1031.18	1771.24
1030.23	1781.43
1029.28	1723.32
1028.33	1736.14
1027.37	1793.61
1026.42	1706.64
1025.47	1748.34
1024.52	1742.78
1023.57	1763.46
1022.61	1771.01
1021.66	1705.11
1020.71	1683.83
1019.75	1743.84
1018.8	1735.66
1017.85	1758.94
1016.89	1790.08
1015.94	1774.03
1014.98	1731.79
1014.03	1783.87
1013.07	1804.51
1012.12	1749.19
1011.16	1751.5
1010.21	1677.89
1009.25	1784.89
1008.3	1789.81
1007.34	1739.78
1006.39	1794.4
1005.43	1679
1004.48	1689.16
1003.52	1762.06
1002.56	1785.27
1001.61	1818.92
1000.65	1818.59
999.693	1758.18
998.736	1750.03
997.778	1768
996.821	1762.46
995.863	1728.2
994.905	1834.91
993.947	1829.36
992.989	1782.06
992.031	1698.27
991.072	1781.42
990.114	1741.99
989.155	1783.39
988.196	1829.99
987.237	1694.13
986.277	1652.14
985.318	1789.93
984.358	1727.09
983.398	1789.28
982.438	1755.11
981.478	1736.57
980.517	1770.1
979.557	1738.55
978.596	1746.04
977.635	1792.56
976.674	1789.63
975.713	1708.69
974.751	1729.18
973.79	1856.26
972.828	1736.36
971.866	1746.44
970.904	1769.52
969.942	1787.38
968.979	1735.11
968.017	1755.58
967.054	1724.1
966.091	1765.33
965.128	1739.05
964.164	1749.12
963.201	1751.4
962.237	1688.83
961.273	1766.33
960.309	1823.07
959.345	1760.51
958.381	1757.6
957.416	1715.82
956.451	1707.73
955.486	1777.38
954.521	1753.75
953.556	1774.15
952.591	1740.17
951.625	1757.98
950.659	1718.83
949.693	1728.87
948.727	1780.32
947.761	1715.32
946.794	1746.05
945.828	1792.29
944.861	1854.02
943.894	1734.76
942.927	1711.19
941.959	1759.98
940.992	1762.25
940.024	1826.52
939.056	1766.78
938.088	1709.64
937.12	1776.47
936.152	1820.04
935.183	1840.36
934.214	1814.22
933.246	1860.34
932.276	1761.97
931.307	1792.6
930.338	1776.81
929.368	1941.5
928.398	1791.63
927.428	1809.35
926.458	1860.56
925.488	1870.53
924.517	1769.73
923.547	1844.1
922.576	1818.02
921.605	1846.01
920.634	1801.92
919.662	1822.18
918.691	1736.94
917.719	1888.42
916.747	1818.62
915.775	1828.58
914.803	1776.82
913.831	1779.07
912.858	1799.32
911.885	1745.02
910.912	1806.38
909.939	1803.48
908.966	1864.8
907.992	1772.01
907.019	1846.15
906.045	1874.06
905.071	1876.29
904.097	1747.63
903.122	1783.24
902.148	1872.7
901.173	1851.85
900.198	1805.35
899.223	1820.41
898.248	1809.83
897.273	1791.56
896.297	1891.17
895.321	1834.46
894.345	1811.08
893.369	1792.82
892.393	1884.68
891.416	1930.43
890.44	1817.45
889.463	1863.19
888.486	1870.53
887.509	1788.32
886.531	1818.69
885.554	1859.28
884.576	1784.79
883.598	1850.94
882.62	1845.49
881.642	1778.71
880.664	1852.49
879.685	1841.93
878.706	1841.6
877.727	1907.66
876.748	1835.83
875.769	1858.47
874.789	1863.24
873.81	1888.42
872.83	1893.18
871.85	1926
870.87	1828.73
869.889	1876.85
868.909	1830.62
867.928	1830.28
866.947	1868.18
865.966	1903.52
864.985	1829.29
864.003	1933.4
863.022	1905.03
862.04	1866.49
861.058	1858.51
860.076	1888.72
859.094	1885.83
858.111	1811.7
857.128	1897.87
856.146	1874.63
855.162	1892.1
854.179	1790.05
853.196	1921.92
852.212	1840.23
851.229	1916.14
850.245	1908.17
849.261	1849.39
848.276	1823.66
847.292	1866.5
846.307	1876.31
845.322	1853.13
844.337	1822.33
843.352	1837.23
842.367	1930.77
841.381	1823.88
840.396	1871.73
839.41	1868.86
838.424	1843.16
837.437	1860.57
836.451	1804.48
835.464	1799.08
834.477	1859.56
833.49	1864.29
832.503	1881.68
831.516	1894
830.528	1805.04
829.541	1774.34
828.553	1951.17
827.565	1847.07
826.577	1917.57
825.588	1816.05
824.6	1820.78
823.611	1886.19
822.622	1865.62
821.633	1867.81
820.643	1794.18
819.654	1877.23
818.664	1917.31
817.674	1904.33
816.684	1941.86
815.694	1863.24
814.704	1822.52
813.713	1865.09
812.723	1819.33
811.732	1912.35
810.741	1833.8
809.749	1916.69
808.758	1886.09
807.766	1779.86
806.774	1882.88
805.782	1905.22
804.79	1904.87
803.798	1874.29
802.805	1901.66
801.812	1906.35
800.819	1938.73
799.826	1840.2
798.833	1907.82
797.84	1819.4
796.846	1864.36
795.852	1901.75
794.858	1858.65
793.864	1818.07
792.87	1903.22
791.875	1799.82
790.88	1842.21
789.885	1844.39
788.89	1894.3
787.895	1881.4
786.9	1968.95
785.904	1966.08
784.908	1915.51
783.912	1852.41
782.916	1867.13
781.92	1967.16
780.923	1931.68
779.926	1936.34
778.929	1853.23
777.932	1842.86
776.935	1907.71
775.938	1944.95
774.94	1912.02
773.942	1909.17
772.944	1906.31
771.946	1986.11
770.948	1875.57
769.949	1912.78
768.95	1837.34
767.951	1917.09
766.952	1956.77
765.953	1831.33
764.954	1896.03
763.954	1963.2
762.954	1845.32
761.954	1959.99
760.954	1902.14
759.954	1904.29
758.953	1921.43
757.952	1806.17
756.951	1893.26
755.95	1895.41
754.949	1957.48
753.948	1927.17
752.946	2009.18
751.944	1901.51
750.942	1985.99
749.94	1870.88
748.937	1915.43
747.935	1910.09
746.932	1932.18
745.929	1991.65
744.926	1948.92
743.923	1886.27
742.919	1873.47
741.916	1893.05
740.912	1902.67
739.908	1934.69
738.903	1822.31
737.899	1851.84
736.894	1831.59
735.89	1945.71
734.885	1920.48
733.88	1925.1
732.874	1937.18
731.869	1946.77
730.863	1894.22
729.857	1893.87
728.851	1973.04
727.845	1967.71
726.838	1979.77
725.832	2006.73
724.825	1976.56
723.818	1941.44
722.811	1896.41
721.804	2084.67
720.796	1895.71
719.788	1957.38
718.78	1986.79
717.772	1941.79
716.764	1909.2
715.756	1963.39
714.747	1938.24
713.738	1925.5
712.729	1972.22
711.72	1900.02
710.71	1978.92
709.701	1914.18
708.691	1908.88
707.681	1846.64
706.671	1932.92
705.661	1949.89
704.65	1944.59
703.64	1894.76
702.629	1958.71
701.618	1928.68
700.606	1948.1
699.595	1885.95
698.583	1873.25
697.572	1902.56
696.56	2035.61
695.547	1943.85
694.535	1933.61
693.523	1935.72
692.51	1994.62
691.497	1994.25
690.484	1942.06
689.471	1966.38
688.457	1874.75
687.443	1958.26
686.43	2068.86
685.416	2036.43
684.401	2075.49
683.387	2011.04
682.372	2008.2
681.358	1931.46
680.343	1977.91
679.327	1920.9
678.312	2053.51
677.297	1902.96
676.281	1966.61
675.265	1939.18
674.249	1892.07
673.233	1936
672.216	1930.73
671.2	1927.91
670.183	2035.74
669.166	1944.41
668.148	1931.77
667.131	1978.1
666.113	1896.66
665.096	1852.1
664.078	1913.15
663.06	1907.89
662.041	1964
661.023	1929.28
660.004	1980.46
658.985	1869.68
657.966	1977.28
656.947	1925.41
655.927	1961.84
654.908	2015.41
653.888	1946.4
652.868	1946.05
651.848	1926.08
650.827	1918.38
649.807	1871.48
648.786	1976.45
647.765	1966.29
646.744	1970.83
645.723	1938.64
644.701	2004.36
643.679	1947.72
642.657	2013.41
641.635	1951.89
640.613	2000.44
639.591	1990.29
638.568	2053.48
637.545	1972.45
636.522	1947.65
635.499	1993.71
634.475	1937.16
633.452	1961.22
632.428	1924.23
631.404	2006.89
630.38	1972.34
629.356	1925.61
628.331	2042.38
627.306	1944.42
626.281	1968.45
625.256	2007.11
624.231	1943.34
623.205	1979.55
622.18	2032.81
621.154	2056.8
620.128	2068.6
619.102	1951.29
618.075	1916.83
617.049	2011.45
616.022	2003.77
614.995	1962.02
613.968	1971.39
612.94	2000.23
611.913	1973.1
610.885	1938.68
609.857	1901.84
608.829	2020.64
607.8	1901.14
606.772	1937.25
605.743	1907.73
604.714	2016.71
603.685	1982.33
602.656	2062.12
601.626	1933.03
600.597	1956.95
599.567	2022.13
598.537	1978.07
597.507	2023.81
596.476	1904.56
595.446	2018.21
594.415	1962.06
593.384	1930.17
592.353	2041.34
591.321	1987.63
590.29	1975.15
589.258	2025.67
588.226	1923.54
587.194	2010.38
586.162	2005.17
585.129	1968.48
584.096	2002
583.063	2006.47
582.03	2015.78
580.997	2012.99
579.964	1995.68
578.93	1990.48
577.896	1915.15
576.862	2096.12
575.828	2066.72
574.793	1976.92
573.759	2017.63
572.724	1966.52
571.689	1961.33
570.654	1956.14
569.618	1967.85
568.583	1972.31
567.547	2008.15
566.511	2015.02
565.475	1925.37
564.438	1932.25
563.402	1912.6
562.365	2001.46
561.328	1972.16
560.291	2015.19
559.254	2012.4
558.216	2021.67
557.178	2009.25
556.141	2020.92
555.102	1960.34
554.064	2034.61
553.026	1966.83
551.987	1939.99
550.948	1905.94
549.909	2021.07
548.87	2003.86
547.83	2034.76
546.791	1940.59
545.751	1981.11
544.711	1927.85
543.671	1965.95
542.63	1943.96
541.59	1950.81
540.549	1931.23
539.508	1976.5
538.467	2033.76
537.425	2018.98
536.384	1994.6
535.342	1967.83
534.3	2025.05
533.258	1957.5
532.216	1937.95
531.173	1949.58
530.13	1930.04
529.088	2003.99
528.044	1938.91
527.001	1914.59
525.958	1890.27
524.914	1885.13
523.87	1990.16
522.826	1925.14
521.782	1946.32
520.737	1931.6
519.693	1842.7
518.648	1990.7
517.603	2021.43
516.557	2049.75
515.512	1958.5
514.466	1965.31
513.42	1967.33
512.374	1935.9
511.328	1906.86
510.282	1892.17
509.235	1968.26
508.188	1898.63
507.141	1960.36
506.094	1888.38
505.047	1861.77
503.999	1859.04
502.951	1961.29
501.903	1836.87
500.855	1886.62
499.807	1893.42
