3200.66	29.4694
3200.06	25.2595
3199.47	8.41855
3198.87	29.4605
3198.28	63.12
3197.69	54.6958
3197.09	46.274
3196.5	58.8853
3195.9	46.2601
3195.31	21.0241
3194.71	21.0209
3194.12	33.6284
3193.52	46.2321
3192.93	25.2137
3192.33	8.40329
3191.74	25.2061
3191.14	54.6049
3190.55	71.3956
3189.95	33.5928
3189.36	-4.19847
3188.76	75.561
3188.17	12.5916
3187.57	25.1794
3186.97	54.5471
3186.38	46.1482
3185.78	37.7519
3185.19	41.9403
3184.59	29.3537
3183.99	41.9276
3183.4	41.9212
3182.8	4.19149
3182.2	29.336
3181.61	58.6631
3181.01	41.8958
3180.41	33.5116
3179.82	37.6948
3179.22	67.0029
3178.62	41.8705
3178.03	16.7457
3177.43	46.0436
3176.83	29.296
3176.23	46.0296
3175.64	16.7355
3175.04	8.36649
3174.44	46.0087
3173.84	20.9099
3173.25	37.6321
3172.65	29.265
3172.05	20.9004
3171.45	45.9739
3170.85	33.4305
3170.26	37.6036
3169.66	41.7755
3169.06	41.7691
3168.46	8.35256
3167.86	66.8104
3167.26	16.7001
3166.66	58.4414
3166.06	12.5213
3165.47	16.6925
3164.87	12.5175
3164.27	50.0622
3163.67	50.0547
3163.07	29.1941
3162.47	37.5296
3161.87	16.6773
3161.27	37.5182
3160.67	45.8487
3160.07	54.1766
3159.47	25.0008
3158.87	20.8308
3158.27	41.6553
3157.67	12.4947
3157.07	41.6427
3156.47	33.3091
3155.87	20.815
3155.27	16.6495
3154.67	24.9705
3154.07	20.8056
3153.46	8.32097
3152.86	45.7584
3152.26	66.5475
3151.66	16.6344
3151.06	41.5796
3150.46	41.5733
3149.86	24.9402
3149.26	37.4046
3148.65	41.5544
3148.05	29.0836
3147.45	20.7709
3146.85	33.2284
3146.25	29.0704
3145.64	58.132
3145.04	20.7583
3144.44	29.0572
3143.84	20.752
3143.24	29.0483
3142.63	58.0879
3142.03	53.9305
3141.43	29.0351
3140.82	12.4417
3140.22	58.0526
3139.62	24.8759
3139.02	49.7443
3138.41	53.8814
3137.81	37.2969
3137.21	53.8651
3136.6	12.4285
3136	24.8532
3135.4	24.8495
3134.79	53.8323
3134.19	4.14032
3133.58	62.0954
3132.98	62.0859
3132.38	33.1075
3131.77	8.27561
3131.17	57.9205
3130.56	45.502
3129.96	45.4951
3129.35	24.8117
3128.75	53.7506
3128.14	49.6084
3127.54	45.4675
3126.93	20.6639
3126.33	24.7929
3125.72	66.1043
3125.12	41.3089
3124.51	66.0842
3123.91	49.5556
3123.3	49.5481
3122.7	66.0541
3122.09	8.25551
3121.49	41.2713
3120.88	41.265
3120.27	53.6363
3119.67	57.7534
3119.06	24.7477
3118.46	16.496
3117.85	28.8635
3117.24	28.8591
3116.64	57.7095
3116.03	57.7007
3115.42	57.6919
3114.82	-8.24045
3114.21	12.3588
3113.6	49.4277
3113	24.7101
3112.39	20.5886
3111.78	61.7564
3111.17	53.514
3110.57	32.9267
3109.96	20.5761
3109.35	49.375
3108.74	45.2536
3108.14	69.9267
3107.53	53.4652
3106.92	28.7846
3106.31	45.226
3105.7	49.3299
3105.1	53.4326
3104.49	36.9862
3103.88	16.4358
3103.27	41.0833
3102.66	8.2154
3102.05	61.6061
3101.44	12.3193
3100.84	36.9524
3100.23	41.052
3099.62	12.3137
3099.01	24.6237
3098.4	49.2399
3097.79	41.027
3097.18	53.3269
3096.57	41.0145
3095.96	36.9074
3095.35	32.8016
3094.74	16.3983
3094.13	16.3958
3093.52	24.5899
3092.91	53.2701
3092.3	57.359
3091.69	57.3503
3091.08	90.1082
3090.47	49.1424
3089.86	40.9458
3089.25	61.4093
3088.64	16.3733
3088.03	40.927
3087.42	16.3683
3086.81	57.2804
3086.19	24.545
3085.58	28.6315
3084.97	44.9854
3084.36	36.8006
3083.75	-4.08834
3083.14	32.7017
3082.53	49.0451
3081.91	49.0376
3081.3	49.0301
3080.69	16.3409
3080.08	32.6768
3079.47	49.0077
3078.85	53.0836
3078.24	65.3236
3077.63	65.3137
3077.02	69.3852
3076.4	53.0512
3075.79	48.9628
3075.18	36.7165
3074.57	36.7109
3073.95	65.2539
3073.34	36.6997
3072.73	57.0797
3072.11	65.224
3071.5	40.7588
3070.89	65.2041
3070.27	57.0449
3069.66	61.1102
3069.05	44.8073
3068.43	28.5094
3067.82	69.2265
3067.2	52.9298
3066.59	44.7799
3065.98	44.7731
3065.36	44.7662
3064.75	40.6904
3064.13	65.0946
3063.52	77.2881
3062.9	48.8061
3062.29	40.6655
3061.67	56.923
3061.06	40.6531
3060.44	65.035
3059.83	40.6407
3059.21	36.571
3058.6	40.6282
3057.98	40.622
3057.37	-12.1847
3056.75	28.4267
3056.14	64.9655
3055.52	48.7166
3054.9	36.5319
3054.29	32.4678
3053.67	36.5207
3053.06	28.4007
3052.44	68.9625
3051.82	48.672
3051.21	36.4984
3050.59	36.4928
3049.97	4.05414
3049.36	36.4817
3048.74	36.4761
3048.12	28.3659
3047.51	12.155
3046.89	48.6125
3046.27	56.7059
3045.65	20.249
3045.04	72.8852
3044.42	68.8255
3043.8	52.6232
3043.18	76.8991
3042.57	52.6071
3041.95	44.5069
3041.33	64.7274
3040.71	60.6727
3040.09	84.9287
3039.48	56.6105
3038.86	64.6878
3038.24	36.3813
3037.62	92.9602
3037	36.3702
3036.38	44.4456
3035.76	80.7979
3035.14	36.3535
3034.53	48.4639
3033.91	44.4184
3033.29	60.5613
3032.67	72.6624
3032.05	88.796
3031.43	24.2134
3030.81	76.664
3030.19	76.6523
3029.57	68.5731
3028.95	56.4633
3028.33	56.4547
3027.71	52.4142
3027.09	36.2812
3026.47	64.49
3025.85	68.5101
3025.23	56.4114
3024.61	52.374
3023.99	44.3097
3023.37	72.4956
3022.75	68.4576
3022.13	76.4997
3021.5	52.3339
3020.88	64.4011
3020.26	56.3423
3019.64	80.4767
3019.02	56.325
3018.4	64.3616
3017.78	44.2418
3017.15	56.2991
3016.53	72.3735
3015.91	52.2617
3015.29	52.2537
3014.67	84.3969
3014.04	60.2743
3013.42	44.1943
3012.8	28.1194
3012.18	72.2958
3011.56	60.2373
3010.93	36.1368
3010.31	84.3063
3009.69	68.2375
3009.06	56.187
3008.44	48.1529
3007.82	108.327
3007.19	48.1381
3006.57	56.1525
3005.95	60.1542
3005.32	72.1739
3004.7	52.1176
3004.08	48.1012
3003.45	64.1251
3002.83	96.1728
3002.21	76.1251
3001.58	64.0955
3000.96	32.0428
3000.33	60.0711
2999.71	64.066
2999.08	68.0597
2998.46	76.055
2997.84	68.0388
2997.21	80.0333
2996.59	8.0021
2995.96	80.0088
2995.34	55.9975
2994.71	51.9897
2994.09	83.9705
2993.46	31.9838
2992.83	87.9421
2992.21	71.9415
2991.58	83.9189
2990.96	55.9373
2990.33	67.9135
2989.71	91.8688
2989.08	83.8673
2988.45	63.8891
2987.83	47.9095
2987.2	59.8776
2986.58	91.7983
2985.95	35.9155
2985.32	59.85
2984.7	67.8196
2984.07	87.753
2983.44	71.7869
2982.82	83.7385
2982.19	95.6865
2981.56	83.7128
2980.93	71.7428
2980.31	95.6423
2979.68	83.6742
2979.05	111.548
2978.42	55.7656
2977.8	55.757
2977.17	67.6946
2976.54	87.5913
2975.91	95.5394
2975.28	71.6435
2974.66	71.6325
2974.03	127.327
2973.4	111.394
2972.77	79.5549
2972.14	87.497
2971.51	99.4131
2970.88	83.4941
2970.26	63.6048
2969.63	79.4937
2969	111.274
2968.37	103.31
2967.74	43.7014
2967.11	119.167
2966.48	83.4042
2965.85	75.4493
2965.22	95.2898
2964.59	91.3053
2963.96	103.199
2963.33	119.057
2962.7	111.103
2962.07	99.1838
2961.44	115.035
2960.81	126.916
2960.18	87.2414
2959.55	103.088
2958.92	111
2958.29	79.2737
2957.66	95.1138
2957.03	99.0616
2956.4	110.932
2955.76	118.837
2955.13	99.0158
2954.5	91.0805
2953.87	114.823
2953.24	126.682
2952.61	126.662
2951.98	130.6
2951.34	83.0964
2950.71	126.604
2950.08	130.54
2949.45	106.789
2948.82	130.5
2948.18	126.526
2947.55	169.993
2946.92	98.8176
2946.29	162.036
2945.65	169.914
2945.02	161.986
2944.39	154.06
2943.76	201.433
2943.12	154.013
2942.49	181.628
2941.86	153.965
2941.22	228.939
2940.59	224.957
2939.96	217.03
2939.32	236.724
2938.69	216.963
2938.05	264.26
2937.42	260.276
2936.79	276.007
2936.15	275.965
2935.52	224.679
2934.88	260.115
2934.25	319.183
2933.61	303.374
2932.98	295.448
2932.34	295.403
2931.71	307.171
2931.08	370.124
2930.44	311.014
2929.81	346.392
2929.17	342.403
2928.53	322.675
2927.9	361.969
2927.26	361.913
2926.63	298.926
2925.99	357.869
2925.36	385.338
2924.72	393.141
2924.08	373.426
2923.45	365.508
2922.81	322.226
2922.18	345.751
2921.54	404.623
2920.9	451.694
2920.27	373.08
2919.63	345.537
2918.99	439.706
2918.36	384.684
2917.72	412.097
2917.08	376.716
2916.44	396.276
2915.81	423.675
2915.17	360.853
2914.53	376.484
2913.9	439.163
2913.26	403.811
2912.62	399.828
2911.98	431.121
2911.34	411.461
2910.71	474.086
2910.07	462.26
2909.43	430.854
2908.79	466.034
2908.15	434.637
2907.51	465.89
2906.88	477.561
2906.24	493.142
2905.6	481.326
2904.96	500.815
2904.32	410.761
2903.68	492.837
2903.04	512.315
2902.4	512.236
2901.76	531.704
2901.12	512.077
2900.48	547.173
2899.84	508.011
2899.2	566.54
2898.56	531.293
2897.92	578.082
2897.28	562.372
2896.64	589.618
2896	570.006
2895.36	593.339
2894.72	624.47
2894.08	616.569
2893.44	616.474
2892.8	635.884
2892.16	608.482
2891.52	627.887
2890.88	577.099
2890.24	639.389
2889.59	631.494
2888.95	576.831
2888.31	627.401
2887.67	677.956
2887.03	705.121
2886.39	712.801
2885.74	704.902
2885.1	782.67
2884.46	731.937
2883.82	755.179
2883.18	825.12
2882.53	801.643
2881.89	894.899
2881.25	1027.03
2880.6	1011.31
2879.96	1135.6
2879.32	1170.43
2878.68	1216.9
2878.03	1247.81
2877.39	1189.31
2876.75	1103.64
2876.1	1091.81
2875.46	978.98
2874.82	928.333
2874.17	850.516
2873.53	799.905
2872.88	795.898
2872.24	799.657
2871.6	772.364
2870.95	748.96
2870.31	717.804
2869.66	721.572
2869.02	643.884
2868.37	651.54
2867.73	686.338
2867.08	612.568
2866.44	620.226
2865.79	666.639
2865.15	678.162
2864.5	678.056
2863.86	705.069
2863.21	654.605
2862.57	747.451
2861.92	747.335
2861.28	743.348
2860.63	681.296
2859.98	754.728
2859.34	754.611
2858.69	766.101
2858.05	808.537
2857.4	827.751
2856.75	785.081
2856.11	777.226
2855.46	796.436
2854.81	896.818
2854.17	827.109
2853.52	904.268
2852.87	992.995
2852.23	954.209
2851.58	1015.86
2850.93	1069.77
2850.28	1034.85
2849.64	1146.66
2848.99	1150.34
2848.34	1127
2847.69	1184.71
2847.05	1396.74
2846.4	1257.64
2845.75	1249.73
2845.1	1261.11
2844.45	1303.33
2843.8	1276.14
2843.16	1264.37
2842.51	1187.09
2841.86	1260.13
2841.21	1225.25
2840.56	1082.52
2839.91	1101.62
2839.26	958.949
2838.61	870.236
2837.96	754.601
2837.31	804.526
2836.66	708.18
2836.01	688.829
2835.36	604.075
2834.72	511.652
2834.07	484.648
2833.42	473.035
2832.76	426.819
2832.11	411.374
2831.46	330.586
2830.81	326.691
2830.16	334.326
2829.51	272.798
2828.86	253.547
2828.21	253.508
2827.56	226.585
2826.91	264.949
2826.26	249.55
2825.61	218.802
2824.96	203.416
2824.3	214.897
2823.65	180.332
2823	180.304
2822.35	203.29
2821.7	145.732
2821.04	214.73
2820.39	176.358
2819.74	153.331
2819.09	130.311
2818.44	145.619
2817.78	187.742
2817.13	126.419
2816.48	126.399
2815.83	141.698
2815.17	149.334
2814.52	118.683
2813.87	149.288
2813.21	118.646
2812.56	191.335
2811.91	103.305
2811.25	95.6376
2810.6	122.397
2809.95	122.378
2809.29	141.478
2808.64	129.986
2807.98	152.901
2807.33	156.699
2806.68	122.283
2806.02	110.801
2805.37	114.604
2804.71	133.684
2804.06	152.758
2803.4	103.096
2802.75	114.533
2802.09	145.052
2801.44	95.4142
2800.78	103.031
2800.13	137.354
2799.47	114.444
2798.82	80.098
2798.16	118.221
2797.51	144.894
2796.85	129.622
2796.19	141.037
2795.54	167.693
2794.88	110.508
2794.23	137.161
2793.57	118.092
2792.91	118.074
2792.26	118.055
2791.6	95.1912
2790.94	121.826
2790.29	144.645
2789.63	117.982
2788.97	136.99
2788.32	144.578
2787.66	125.535
2787	114.105
2786.34	133.101
2785.69	121.674
2785.03	117.853
2784.37	159.647
2783.71	121.617
2783.06	151.997
2782.4	129.177
2781.74	125.358
2781.08	121.541
2780.42	136.712
2779.76	144.284
2779.11	102.502
2778.45	110.077
2777.79	113.855
2777.13	121.427
2776.47	147.966
2775.81	136.562
2775.15	117.577
2774.49	140.312
2773.83	163.04
2773.17	147.85
2772.51	117.503
2771.86	125.065
2771.2	155.359
2770.54	106.082
2769.88	128.794
2769.22	143.924
2768.56	98.4589
2767.9	121.161
2767.23	140.071
2766.57	147.619
2765.91	121.104
2765.25	140.005
2764.59	124.85
2763.93	117.265
2763.27	113.464
2762.61	136.136
2761.95	132.334
2761.29	151.215
2760.63	98.2742
2759.96	113.376
2759.3	128.472
2758.64	113.34
2757.98	124.655
2757.32	139.742
2756.65	151.049
2755.99	132.147
2755.33	117.026
2754.67	158.527
2754.01	120.764
2753.34	158.478
2752.68	147.135
2752.02	135.795
2751.35	120.688
2750.69	143.295
2750.03	162.124
2749.37	158.329
2748.7	131.92
2748.04	120.594
2747.38	158.254
2746.71	139.393
2746.05	177.039
2745.38	94.1547
2744.72	143.093
2744.06	105.42
2743.39	154.341
2742.73	139.262
2742.06	135.477
2741.4	154.269
2740.73	146.72
2740.07	157.982
2739.41	176.761
2738.74	150.412
2738.08	139.109
2737.41	154.124
2736.75	191.685
2736.08	180.381
2735.41	176.595
2734.75	165.297
2734.08	180.296
2733.42	187.779
2732.75	187.749
2732.09	187.72
2731.42	217.721
2730.75	176.401
2730.09	165.116
2729.42	202.61
2728.76	206.33
2728.09	198.796
2727.42	232.517
2726.76	239.98
2726.09	206.201
2725.42	202.42
2724.75	247.363
2724.09	194.862
2723.42	217.312
2722.75	187.308
2722.09	209.752
2721.42	217.209
2720.75	262.108
2720.08	232.116
2719.41	228.337
2718.75	232.043
2718.08	228.265
2717.41	243.195
2716.74	209.489
2716.07	261.82
2715.41	239.341
2714.74	254.259
2714.07	228.05
2713.4	220.538
2712.73	227.978
2712.06	175.628
2711.39	231.643
2710.72	239.078
2710.05	209.16
2709.38	224.065
2708.71	197.893
2708.04	190.395
2707.37	197.831
2706.7	205.264
2706.03	190.306
2705.36	179.083
2704.69	179.055
2704.02	171.567
2703.35	186.457
2702.68	190.156
2702.01	212.494
2701.34	205.006
2700.67	149.072
2700	167.679
2699.33	145.299
2698.66	204.877
2697.99	122.907
2697.32	148.954
2696.64	141.484
2695.97	197.303
2695.3	160.051
2694.63	197.241
2693.96	160
2693.29	174.856
2692.61	182.268
2691.94	148.767
2691.27	171.055
2690.6	163.592
2689.92	156.132
2689.25	156.107
2688.58	167.231
2687.91	167.205
2687.23	163.464
2686.56	152.294
2685.89	167.126
2685.21	174.526
2684.54	181.924
2683.87	141.062
2683.19	103.924
2682.52	152.151
2681.85	144.706
2681.17	140.973
2680.5	166.916
2679.82	148.346
2679.15	126.074
2678.48	152.007
2677.8	166.811
2677.13	203.848
2676.45	148.229
2675.78	144.501
2675.1	166.706
2674.43	166.679
2673.75	181.467
2673.08	129.599
2672.4	162.898
2671.73	166.574
2671.05	125.836
2670.37	203.527
2669.7	166.495
2669.02	155.371
2668.35	177.539
2667.67	155.322
2667	140.508
2666.32	158.97
2665.64	140.463
2664.97	181.095
2664.29	162.59
2663.61	173.649
2662.94	169.927
2662.26	203.142
2661.58	136.638
2660.91	166.155
2660.23	177.204
2659.55	136.573
2658.87	166.076
2658.2	188.19
2657.52	177.092
2656.84	180.753
2656.16	143.842
2655.49	154.882
2654.81	162.232
2654.13	195.385
2653.45	191.668
2652.77	140.043
2652.09	173.184
2651.42	169.472
2650.74	169.445
2650.06	176.785
2649.38	180.439
2648.7	180.411
2648.02	180.382
2647.34	172.992
2646.66	154.564
2645.98	176.617
2645.3	161.874
2644.62	150.813
2643.94	191.245
2643.26	147.088
2642.58	205.891
2641.9	139.689
2641.22	183.773
2640.54	158.02
2639.86	150.646
2639.18	132.254
2638.5	139.579
2637.82	146.902
2637.14	165.239
2636.46	135.842
2635.78	154.174
2635.1	179.842
2634.42	150.456
2633.73	150.432
2633.05	161.414
2632.37	165.056
2631.69	154.028
2631.01	165.004
2630.33	153.979
2629.64	175.949
2628.96	146.601
2628.28	128.255
2627.6	150.218
2626.91	139.205
2626.23	139.183
2625.55	150.147
2624.87	153.785
2624.18	201.353
2623.5	150.076
2622.82	109.794
2622.13	135.391
2621.45	179.274
2620.77	204.852
2620.08	149.957
2619.4	157.247
2618.72	142.597
2618.03	171.82
2617.35	124.276
2616.67	135.22
2615.98	175.393
2615.3	135.177
2614.61	153.42
2613.93	171.657
2613.24	160.675
2612.56	149.696
2611.87	175.226
2611.19	178.848
2610.5	160.573
2609.82	167.845
2609.13	167.819
2608.45	175.087
2607.76	196.942
2607.08	171.386
2606.39	185.942
2605.71	185.913
2605.02	171.304
2604.33	171.277
2603.65	211.33
2602.96	174.866
2602.27	163.911
2601.59	149.317
2600.9	167.5
2600.21	149.27
2599.53	149.246
2598.84	174.7
2598.15	160.116
2597.47	181.921
2596.78	174.616
2596.09	192.775
2595.41	145.468
2594.72	174.533
2594.03	156.328
2593.34	127.224
2592.65	170.816
2591.97	141.718
2591.28	163.495
2590.59	163.469
2589.9	148.915
2589.21	170.681
2588.52	196.07
2587.84	177.887
2587.15	145.191
2586.46	163.314
2585.77	206.831
2585.08	174.146
2584.39	152.354
2583.7	152.33
2583.01	152.305
2582.32	177.661
2581.63	192.134
2580.94	195.728
2580.25	152.209
2579.56	166.678
2578.87	163.029
2578.18	188.359
2577.49	177.464
2576.8	206.405
2576.11	137.582
2575.42	188.24
2574.73	166.493
2574.04	177.323
2573.35	180.913
2572.66	162.796
2571.97	141.068
2571.28	137.429
2570.58	177.182
2569.89	155.462
2569.2	206.045
2568.51	173.484
2567.82	169.843
2567.13	177.042
2566.43	133.663
2565.74	151.702
2565.05	234.739
2564.36	158.875
2563.66	144.409
2562.97	151.605
2562.28	166.018
2561.59	162.383
2560.89	180.397
2560.2	180.368
2559.51	144.271
2558.81	169.492
2558.12	165.859
2557.43	129.782
2556.73	173.016
2556.04	205.423
2555.35	147.737
2554.65	165.728
2553.96	183.712
2553.26	158.472
2552.57	176.452
2551.88	169.223
2551.18	161.996
2550.49	158.371
2549.79	176.339
2549.1	169.115
2548.4	147.502
2547.71	179.852
2547.01	161.841
2546.32	190.583
2545.62	147.408
2544.93	158.169
2544.23	165.332
2543.53	150.932
2542.84	132.942
2542.14	161.661
2541.45	197.554
2540.75	219.071
2540.05	157.993
2539.36	168.738
2538.66	157.943
2537.97	154.328
2537.27	147.127
2536.57	190.158
2535.88	172.191
2535.18	186.511
2534.48	161.378
2533.78	175.695
2533.09	175.667
2532.39	157.716
2531.69	175.611
2530.99	164.833
2530.3	154.058
2529.6	214.931
2528.9	204.152
2528.2	179.052
2527.5	168.282
2526.81	186.155
2526.11	207.601
2525.41	164.623
2524.71	161.018
2524.01	160.993
2523.31	182.429
2522.61	189.553
2521.91	200.25
2521.21	207.369
2520.52	196.612
2519.82	160.839
2519.12	200.123
2518.42	167.933
2517.72	175.052
2517.02	157.164
2516.32	182.138
2515.62	214.246
2514.92	178.51
2514.22	171.342
2513.52	153.47
2512.82	192.699
2512.11	192.668
2511.41	171.233
2510.71	196.173
2510.01	128.384
2509.31	153.323
2508.61	192.514
2507.91	185.354
2507.21	185.325
2506.5	188.859
2505.8	185.266
2505.1	220.858
2504.4	199.453
2503.7	153.127
2503	206.51
2502.29	160.198
2501.59	224.241
2500.89	170.823
2500.19	181.471
2499.48	181.442
2498.78	149.399
2498.08	167.158
2497.37	202.691
2496.67	223.991
2495.97	159.968
2495.26	206.148
2494.56	167.024
2493.86	195.423
2493.15	156.313
2492.45	188.256
2491.75	163.366
2491.04	173.992
2490.34	170.414
2489.63	177.486
2488.93	173.909
2488.22	156.138
2487.52	141.921
2486.81	209.3
2486.11	163.157
2485.41	170.224
2484.7	187.925
2483.99	152.443
2483.29	177.231
2482.58	194.923
2481.88	216.153
2481.17	184.232
2480.47	191.287
2479.76	177.089
2479.06	205.391
2478.35	223.061
2477.64	191.165
2476.94	162.818
2476.23	187.565
2475.52	176.919
2474.82	198.118
2474.11	191.012
2473.4	212.201
2472.7	173.27
2471.99	159.1
2471.28	194.425
2470.57	187.325
2469.87	197.896
2469.16	215.531
2468.45	190.767
2467.74	187.205
2467.04	208.364
2466.33	180.083
2465.62	172.993
2464.91	172.965
2464.2	194.113
2463.5	158.795
2462.79	155.241
2462.08	204.603
2461.37	201.043
2460.66	183.378
2459.95	200.979
2459.24	200.947
2458.53	179.765
2457.82	183.261
2457.11	239.61
2456.4	197.295
2455.69	207.831
2454.99	172.577
2454.28	221.85
2453.57	190.126
2452.85	190.096
2452.14	197.105
2451.43	186.516
2450.72	200.56
2450.01	189.974
2449.3	175.874
2448.59	200.464
2447.88	144.17
2447.17	189.852
2446.46	200.367
2445.75	200.335
2445.04	203.817
2444.32	165.136
2443.61	203.752
2442.9	182.645
2442.19	172.08
2441.48	224.721
2440.76	203.621
2440.05	171.997
2439.34	210.575
2438.63	235.104
2437.92	175.423
2437.2	192.934
2436.49	182.381
2435.78	171.831
2435.06	175.31
2434.35	196.316
2433.64	171.749
2432.92	217.28
2432.21	196.221
2431.5	168.162
2430.78	206.667
2430.07	213.638
2429.36	210.102
2428.64	192.562
2427.93	192.531
2427.21	199.501
2426.5	202.968
2425.78	216.931
2425.07	202.903
2424.35	209.866
2423.64	227.318
2422.92	255.254
2422.21	202.772
2421.49	223.713
2420.78	209.697
2420.06	241.113
2419.35	209.63
2418.63	195.623
2417.92	167.65
2417.2	199.052
2416.48	202.512
2415.77	195.497
2415.05	247.822
2414.34	164.025
2413.62	226.807
2412.9	205.838
2412.19	191.852
2411.47	226.697
2410.75	209.225
2410.04	195.246
2409.32	212.644
2408.6	209.124
2407.88	198.636
2407.17	174.214
2406.45	205.54
2405.73	198.54
2405.01	212.439
2404.29	226.333
2403.58	215.852
2402.86	226.26
2402.14	236.665
2401.42	236.626
2400.7	194.837
2399.98	163.498
2399.27	184.34
2398.55	222.564
2397.83	236.436
2397.11	229.445
2396.39	212.029
2395.67	215.47
2394.95	184.162
2394.23	222.349
2393.51	187.577
2392.79	197.966
2392.07	229.186
2391.35	218.734
2390.63	208.284
2389.91	208.251
2389.19	232.509
2388.47	194.305
2387.75	194.273
2387.03	228.928
2386.31	194.211
2385.59	232.322
2384.87	218.416
2384.14	194.117
2383.42	159.427
2382.7	239.102
2381.98	221.74
2381.26	200.92
2380.54	214.742
2379.82	204.318
2379.09	231.985
2378.37	200.79
2377.65	186.912
2376.93	193.804
2376.2	252.596
2375.48	214.499
2374.76	207.546
2374.04	200.596
2373.31	207.48
2372.59	190.159
2371.87	238.524
2371.14	214.292
2370.42	210.801
2369.7	179.671
2368.97	207.279
2368.25	169.25
2367.52	238.294
2366.8	176.102
2366.08	189.883
2365.35	189.852
2364.63	176.016
2363.9	224.298
2363.18	203.561
2362.45	241.474
2361.73	196.597
2361	231.05
2360.28	248.253
2359.55	224.081
2358.83	189.576
2358.1	224.009
2357.38	196.407
2356.65	223.936
2355.93	220.455
2355.2	192.867
2354.47	220.384
2353.75	234.12
2353.02	199.659
2352.3	209.952
2351.57	209.918
2350.84	216.765
2350.12	230.491
2349.39	209.816
2348.66	233.855
2347.94	226.941
2347.21	209.714
2346.48	233.742
2345.75	274.946
2345.03	175.25
2344.3	219.886
2343.57	182.063
2342.84	236.988
2342.11	250.686
2341.39	202.576
2340.66	209.409
2339.93	216.24
2339.2	168.16
2338.47	212.739
2337.74	212.704
2337.02	260.692
2336.29	257.22
2335.56	202.314
2334.83	229.709
2334.1	243.384
2333.37	229.635
2332.64	226.171
2331.91	212.429
2331.18	198.692
2330.45	250.037
2329.72	226.024
2328.99	232.836
2328.26	239.645
2327.53	273.836
2326.8	215.611
2326.07	256.638
2325.34	222.384
2324.61	212.085
2323.88	208.631
2323.14	222.276
2322.41	235.916
2321.68	239.296
2320.95	225.586
2320.22	211.879
2319.49	259.681
2318.76	259.639
2318.02	239.102
2317.29	249.309
2316.56	262.927
2315.83	245.814
2315.1	249.188
2314.36	228.67
2313.63	228.633
2312.9	262.714
2312.16	221.736
2311.43	231.932
2310.7	211.433
2309.97	286.411
2309.23	262.501
2308.5	231.782
2307.76	272.64
2307.03	255.559
2306.3	252.11
2305.56	204.381
2304.83	252.029
2304.1	251.988
2303.36	194.067
2302.63	224.673
2301.89	231.443
2301.16	180.36
2300.42	190.539
2299.69	197.312
2298.95	227.892
2298.22	261.863
2297.48	258.42
2296.75	248.179
2296.01	220.946
2295.28	241.301
2294.54	268.447
2293.8	254.813
2293.07	241.184
2292.33	241.145
2291.6	244.501
2290.86	230.88
2290.12	190.106
2289.39	237.594
2288.65	244.343
2287.91	271.448
2287.18	217.123
2286.44	244.224
2285.7	220.444
2284.97	274.662
2284.23	203.42
2283.49	216.946
2282.75	254.193
2282.01	254.152
2281.28	260.886
2280.54	247.294
2279.8	250.641
2279.06	220.121
2278.32	267.489
2277.59	253.904
2276.85	226.784
2276.11	236.9
2275.37	260.547
2274.63	274.038
2273.89	216.488
2273.15	206.307
2272.41	263.759
2271.67	196.097
2270.93	253.532
2270.19	196.033
2269.45	250.071
2268.71	250.03
2267.97	270.259
2267.23	226.305
2266.49	266.793
2265.75	202.595
2265.01	290.339
2264.27	259.912
2263.53	259.87
2262.79	290.197
2262.05	269.907
2261.31	239.503
2260.57	209.11
2259.83	259.658
2259.09	276.474
2258.34	266.316
2257.6	266.273
2256.86	256.119
2256.12	259.447
2255.38	242.56
2254.63	276.204
2253.89	252.585
2253.15	269.38
2252.41	286.169
2251.66	286.123
2250.92	265.883
2250.18	282.665
2249.43	269.16
2248.69	208.565
2247.95	282.526
2247.21	285.843
2246.46	262.26
2245.72	268.941
2244.97	268.897
2244.23	241.968
2243.49	262.089
2242.74	268.766
2242	265.363
2241.25	275.395
2240.51	261.919
2239.76	188.013
2239.02	298.758
2238.27	288.641
2237.53	231.546
2236.78	258.35
2236.04	285.145
2235.29	295.161
2234.55	295.112
2233.8	311.829
2233.06	244.729
2232.31	244.689
2231.57	254.704
2230.82	261.364
2230.07	217.767
2229.33	247.879
2228.58	231.093
2227.83	271.239
2227.09	301.327
2226.34	230.98
2225.59	220.901
2224.85	244.29
2224.1	291.093
2223.35	250.901
2222.6	260.895
2221.86	264.196
2221.11	280.872
2220.36	297.542
2219.61	280.78
2218.87	284.076
2218.12	260.639
2217.37	247.233
2216.62	277.256
2215.87	263.851
2215.12	240.433
2214.37	300.492
2213.63	240.354
2212.88	300.394
2212.13	276.984
2211.38	293.622
2210.63	256.877
2209.88	300.197
2209.13	260.128
2208.38	310.102
2207.63	276.713
2206.88	263.334
2206.13	299.952
2205.38	299.903
2204.63	289.859
2203.88	269.824
2203.13	293.095
2202.38	276.396
2201.63	263.033
2200.88	279.635
2200.12	276.261
2199.37	262.904
2198.62	266.188
2197.87	279.452
2197.12	276.08
2196.37	259.406
2195.62	289.29
2194.86	322.489
2194.11	292.52
2193.36	292.472
2192.61	289.101
2191.85	259.151
2191.1	229.212
2190.35	312.208
2189.6	282.27
2188.84	252.341
2188.09	298.776
2187.34	298.727
2186.58	292.041
2185.83	278.721
2185.08	315.168
2184.32	325.068
2183.57	281.9
2182.82	291.802
2182.06	298.385
2181.31	291.706
2180.55	288.344
2179.8	265.101
2179.04	318.069
2178.29	291.515
2177.53	274.907
2176.78	284.796
2176.02	274.817
2175.27	321.119
2174.51	321.066
2173.76	294.538
2173	287.872
2172.25	291.133
2171.49	264.623
2170.74	281.116
2169.98	297.603
2169.22	294.248
2168.47	271.061
2167.71	284.237
2166.95	320.54
2166.2	323.791
2165.44	303.918
2164.68	323.685
2163.93	254.282
2163.17	274.052
2162.41	336.731
2161.65	306.969
2160.9	283.817
2160.14	257.373
2159.38	280.425
2158.62	270.483
2157.87	283.631
2157.11	300.072
2156.35	306.617
2155.59	332.937
2154.83	303.22
2154.07	349.305
2153.31	273.467
2152.56	326.13
2151.8	309.608
2151.04	276.626
2150.28	335.848
2149.52	289.703
2148.76	289.656
2148	269.862
2147.24	269.818
2146.48	328.992
2145.72	309.202
2144.96	322.306
2144.2	299.235
2143.44	279.459
2142.68	348.445
2141.92	308.948
2141.16	272.749
2140.4	308.846
2139.64	292.37
2138.87	305.46
2138.11	311.978
2137.35	302.076
2136.59	282.329
2135.83	275.718
2135.07	278.955
2134.31	344.534
2133.54	305.109
2132.78	295.218
2132.02	318.127
2131.26	252.492
2130.49	344.251
2129.73	288.468
2128.97	308.085
2128.21	301.481
2127.44	337.472
2126.68	291.554
2125.92	307.883
2125.15	311.107
2124.39	281.587
2123.63	343.742
2122.86	310.953
2122.1	281.448
2121.33	337.028
2120.57	314.071
2119.81	336.917
2119.04	336.861
2118.28	304.106
2117.51	317.134
2116.75	330.157
2115.98	300.688
2115.22	316.977
2114.45	307.123
2113.69	343.007
2112.92	323.353
2112.16	274.315
2111.39	319.981
2110.62	310.135
2109.86	293.764
2109.09	293.715
2108.33	349.137
2107.56	277.306
2106.79	329.451
2106.03	306.567
2105.26	339.125
2104.49	273.863
2103.73	312.935
2102.96	306.365
2102.19	355.194
2101.42	312.78
2100.66	309.471
2099.89	341.99
2099.12	319.138
2098.35	312.574
2097.59	319.033
2096.82	338.51
2096.05	299.402
2095.28	286.337
2094.51	328.583
2093.74	322.023
2092.98	328.474
2092.21	370.692
2091.44	328.366
2090.67	305.557
2089.9	347.758
2089.13	328.203
2088.36	295.659
2087.59	354.083
2086.82	302.057
2086.05	360.461
2085.28	292.217
2084.51	298.662
2083.74	321.333
2082.97	324.525
2082.2	282.29
2081.43	298.464
2080.66	272.466
2079.89	262.692
2079.12	350.198
2078.35	311.235
2077.57	301.459
2076.8	330.578
2076.03	311.081
2075.26	288.351
2074.49	340.133
2073.72	297.972
2072.94	304.399
2072.17	365.866
2071.4	317.247
2070.63	359.272
2069.86	375.393
2069.08	359.153
2068.31	329.978
2067.54	320.22
2066.76	329.869
2065.99	307.18
2065.22	300.663
2064.44	310.311
2063.67	336.114
2062.9	336.059
2062.12	336.003
2061.35	394.093
2060.58	374.649
2059.8	335.837
2059.03	329.324
2058.25	387.376
2057.48	325.987
2056.7	371.112
2055.93	342.012
2055.15	316.147
2054.38	348.35
2053.6	374.092
2052.83	303.093
2052.05	344.953
2051.28	335.226
2050.5	341.616
2049.72	364.115
2048.95	370.498
2048.17	328.562
2047.4	334.948
2046.62	350.994
2045.84	328.398
2045.07	370.192
2044.29	341.164
2043.51	370.069
2042.74	312.094
2041.96	360.296
2041.18	347.371
2040.4	331.234
2039.63	344.04
2038.85	350.413
2038.07	366.426
2037.29	337.442
2036.52	343.812
2035.74	363.031
2034.96	346.91
2034.18	356.488
2033.4	353.217
2032.62	401.317
2031.84	353.1
2031.07	375.508
2030.29	385.073
2029.51	385.009
2028.73	352.866
2027.95	323.942
2027.17	400.851
2026.39	378.341
2025.61	339.809
2024.83	387.831
2024.05	314.059
2023.27	378.09
2022.49	371.62
2021.71	390.777
2020.93	397.117
2020.15	416.264
2019.37	339.359
2018.59	371.312
2017.8	358.449
2017.02	380.788
2016.24	377.526
2015.46	415.849
2014.68	367.806
2013.9	348.558
2013.11	351.697
2012.33	380.409
2011.55	396.327
2010.77	361.109
2009.99	415.366
2009.2	389.74
2008.42	360.929
2007.64	405.579
2006.85	427.862
2006.07	405.444
2005.29	363.881
2004.5	367.012
2003.72	386.097
2002.94	414.746
2002.15	385.968
2001.37	382.715
2000.59	382.651
1999.8	404.905
1999.02	411.213
1998.23	392.022
1997.45	401.517
1996.66	404.636
1995.88	359.971
1995.09	375.836
1994.31	388.512
1993.52	413.919
1992.74	359.731
1991.95	375.586
1991.17	365.977
1990.38	356.37
1989.6	391.306
1988.81	410.325
1988.02	381.635
1987.24	362.493
1986.45	384.687
1985.67	445.018
1984.88	403.628
1984.09	403.561
1983.3	409.848
1982.52	406.603
1981.73	362.071
1980.94	431.872
1980.16	438.15
1979.37	419.03
1978.58	415.787
1977.79	444.278
1977.01	383.919
1976.22	402.889
1975.43	402.822
1974.64	386.899
1973.85	428.054
1973.06	408.962
1972.27	408.894
1971.49	446.856
1970.7	453.119
1969.91	421.362
1969.12	386.448
1968.33	402.219
1967.54	452.817
1966.75	411.583
1965.96	440.004
1965.17	439.931
1964.38	436.693
1963.59	442.948
1962.8	414.404
1962.01	433.312
1961.22	464.863
1960.43	423.682
1959.64	379.353
1958.85	407.737
1958.06	385.547
1957.26	477.114
1956.47	464.398
1955.68	464.32
1954.89	404.239
1954.1	438.905
1953.31	400.947
1952.51	438.758
1951.72	476.557
1950.93	444.923
1950.14	429.074
1949.34	463.701
1948.55	435.239
1947.76	466.7
1946.97	431.941
1946.17	469.696
1945.38	438.1
1944.59	434.876
1943.79	460.009
1943	463.082
1942.21	456.706
1941.41	481.823
1940.62	456.553
1939.82	453.329
1939.03	453.253
1938.24	446.883
1937.44	462.541
1936.65	418.42
1935.85	490.696
1935.06	456.02
1934.26	455.944
1933.47	503.026
1932.67	484.082
1931.88	468.287
1931.08	480.778
1930.28	446.137
1929.49	461.769
1928.69	489.959
1927.9	461.615
1927.1	502.354
1926.3	499.131
1925.51	492.77
1924.71	486.411
1923.91	527.119
1923.12	511.346
1922.32	479.894
1921.52	486.086
1920.73	511.089
1919.93	489.059
1919.13	488.977
1918.33	507.699
1917.53	523.281
1916.74	457.403
1915.94	516.841
1915.14	438.459
1914.34	454.042
1913.54	557.282
1912.74	469.541
1911.95	503.89
1911.15	500.676
1910.35	535.008
1909.55	481.74
1908.75	509.808
1907.95	462.816
1907.15	500.257
1906.35	500.174
1905.55	509.467
1904.75	478.131
1903.95	509.296
1903.15	506.087
1902.35	524.743
1901.55	496.548
1900.75	483.976
1899.95	533.845
1899.15	499.42
1898.35	524.304
1897.54	508.614
1896.74	552.206
1895.94	517.802
1895.14	511.477
1894.34	551.929
1893.54	495.717
1892.73	536.158
1891.93	539.185
1891.13	567.14
1890.33	504.732
1889.53	532.683
1888.72	488.99
1887.92	535.619
1887.12	510.621
1886.31	522.987
1885.51	535.349
1884.71	516.588
1883.9	541.393
1883.1	494.638
1882.3	531.88
1881.49	516.241
1880.69	491.28
1879.88	540.939
1879.08	537.74
1878.28	491.032
1877.47	537.559
1876.67	497.081
1875.86	524.954
1875.06	534.183
1874.25	571.356
1873.45	534.004
1872.64	549.435
1871.84	552.446
1871.03	536.838
1870.22	570.876
1869.42	589.393
1868.61	524.161
1867.81	542.68
1867	514.684
1866.19	523.897
1865.39	564.102
1864.58	591.898
1863.77	570.11
1862.97	576.21
1862.16	573.016
1861.35	551.241
1860.54	566.63
1859.74	554.152
1858.93	566.44
1858.12	523.018
1857.31	587.909
1856.51	522.842
1855.7	547.5
1854.89	535.037
1854.08	528.763
1853.27	584.324
1852.46	596.59
1851.65	577.946
1850.84	627.291
1850.04	522.139
1849.23	552.942
1848.42	596.089
1847.61	552.756
1846.8	561.926
1845.99	617.397
1845.18	564.823
1844.37	589.416
1843.56	644.854
1842.75	505.925
1841.94	558.274
1841.13	589.019
1840.31	558.087
1839.5	554.91
1838.69	588.722
1837.88	554.723
1837.07	570.036
1836.26	526.809
1835.45	594.486
1834.64	578.987
1833.82	551.177
1833.01	588.028
1832.2	624.867
1831.39	603.219
1830.57	544.652
1829.76	569.173
1828.95	578.305
1828.14	615.115
1827.32	596.561
1826.51	627.206
1825.7	648.618
1824.88	611.627
1824.07	636.108
1823.26	629.855
1822.44	605.174
1821.63	617.357
1820.81	614.183
1820	583.375
1819.19	601.696
1818.37	592.387
1817.56	583.08
1816.74	610.597
1815.93	613.562
1815.11	607.324
1814.3	634.822
1813.48	640.848
1812.67	662.2
1811.85	625.305
1811.03	579.229
1810.22	618.966
1809.4	652.562
1808.59	585.063
1807.77	624.778
1806.95	618.548
1806.14	587.828
1805.32	655.073
1804.5	609.054
1803.69	621.191
1802.87	614.967
1802.05	645.454
1801.24	596.409
1800.42	571.844
1799.6	635.954
1798.78	626.676
1797.96	647.965
1797.15	623.409
1796.33	608.026
1795.51	604.869
1794.69	616.984
1793.87	626.042
1793.05	644.256
1792.23	680.781
1791.42	644.038
1790.6	637.826
1789.78	656.026
1788.96	616.255
1788.14	594.799
1787.32	600.798
1786.5	615.943
1785.68	685.959
1784.86	640.12
1784.04	673.536
1783.22	627.715
1782.4	636.749
1781.58	609.226
1780.76	624.351
1779.93	636.426
1779.11	663.72
1778.29	620.99
1777.47	681.756
1776.65	642.082
1775.83	654.143
1775.01	599.276
1774.18	660.005
1773.36	687.262
1772.54	690.186
1771.72	662.71
1770.89	638.282
1770.07	668.564
1769.25	674.527
1768.43	689.603
1767.6	662.149
1766.78	634.706
1765.96	680.143
1765.13	631.455
1764.31	649.56
1763.49	646.415
1762.66	676.649
1761.84	731.142
1761.01	688.553
1760.19	621.715
1759.36	673.158
1758.54	630.6
1757.72	651.712
1756.89	639.479
1756.07	681.793
1755.24	687.737
1754.41	684.591
1753.59	708.704
1752.76	717.669
1751.94	690.298
1751.11	653.856
1750.29	711.251
1749.46	656.661
1748.63	644.447
1747.81	692.739
1746.98	698.67
1746.15	731.816
1745.33	686.339
1744.5	701.338
1743.67	695.174
1742.85	689.012
1742.02	737.239
1741.19	761.282
1740.36	703.764
1739.54	697.605
1738.71	700.506
1737.88	667.179
1737.05	706.305
1736.22	660.917
1735.39	663.822
1734.57	696.895
1733.74	732.973
1732.91	675.548
1732.08	720.663
1731.25	678.333
1730.42	762.619
1729.59	714.269
1728.76	720.174
1727.93	735.116
1727.1	731.979
1726.27	755.948
1725.44	779.91
1724.61	707.52
1723.78	659.236
1722.95	701.26
1722.12	695.123
1721.29	722.083
1720.46	721.96
1719.62	739.883
1718.79	754.794
1717.96	727.606
1717.13	709.445
1716.3	664.24
1715.47	775.316
1714.63	751.148
1713.8	720.979
1712.97	729.868
1712.14	723.737
1711.31	741.63
1710.47	747.508
1709.64	687.35
1708.81	735.25
1707.97	714.121
1707.14	762
1706.31	713.878
1705.47	755.742
1704.64	746.618
1703.81	695.526
1702.97	701.403
1702.14	782.201
1701.3	686.182
1700.47	739.992
1699.63	778.806
1698.8	787.659
1697.96	769.558
1697.13	733.501
1696.29	730.382
1695.46	760.187
1694.62	778.011
1693.79	768.904
1692.95	729.885
1692.12	744.715
1691.28	762.53
1690.44	729.513
1689.61	780.206
1688.77	765.13
1687.93	764.999
1687.1	815.661
1686.26	776.688
1685.42	791.489
1684.59	809.272
1683.75	767.334
1682.91	770.188
1682.07	850.645
1681.24	814.689
1680.4	826.485
1679.56	760.714
1678.72	775.498
1677.88	861.849
1677.05	828.904
1676.21	787.026
1675.37	858.428
1674.53	843.38
1673.69	887.931
1672.85	831.176
1672.01	950.179
1671.17	893.433
1670.33	848.617
1669.49	881.22
1668.65	913.812
1667.81	824.374
1666.97	913.501
1666.13	809.218
1665.29	874.52
1664.45	868.423
1663.61	862.327
1662.77	871.099
1661.93	882.841
1661.09	858.914
1660.25	888.483
1659.4	861.592
1658.56	831.74
1657.72	837.538
1656.88	908.663
1656.04	884.756
1655.19	896.478
1654.35	854.774
1653.51	824.953
1652.67	922.722
1651.82	797.974
1650.98	895.713
1650.14	862.941
1649.3	847.969
1648.45	838.931
1647.61	758.762
1646.77	856.424
1645.92	856.278
1645.08	873.906
1644.23	867.833
1643.39	885.453
1642.54	829.045
1641.7	891.071
1640.86	846.521
1640.01	825.661
1639.17	902.45
1638.32	837.212
1637.48	866.647
1636.63	881.286
1635.78	866.351
1634.94	863.246
1634.09	780.336
1633.25	883.638
1632.4	856.894
1631.56	889.245
1630.71	871.37
1629.86	838.735
1629.02	879.93
1628.17	935.873
1627.32	915.05
1626.47	876.527
1625.63	882.279
1624.78	929.332
1623.93	890.826
1623.09	931.963
1622.24	914.111
1621.39	934.592
1620.54	896.112
1619.69	957.85
1618.84	934.113
1618	969.307
1617.15	966.196
1616.3	1004.32
1615.45	936.418
1614.6	983.365
1613.75	971.421
1612.9	997.744
1612.05	982.859
1611.2	1062.13
1610.35	976.639
1609.5	1079.41
1608.65	1143.92
1607.8	1090.8
1606.95	1214.08
1606.1	1208
1605.25	1257.75
1604.4	1345.68
1603.55	1468.83
1602.7	1518.51
1601.85	1735.56
1600.99	1923.17
1600.14	2093.11
1599.29	2351.04
1598.44	2465.09
1597.59	2872.51
1596.74	2907.22
1595.88	2947.79
1595.03	2783.06
1594.18	2609.59
1593.32	2565.16
1592.47	2271.61
1591.62	2092.46
1590.77	1857.69
1589.91	1760.69
1589.06	1482.13
1588.21	1437.94
1587.35	1376.21
1586.5	1349.62
1585.64	1249.87
1584.79	1176.49
1583.93	1100.21
1583.08	1126.35
1582.23	1164.18
1581.37	1041.15
1580.52	988.338
1579.66	1002.79
1578.81	993.845
1577.95	987.829
1577.09	940.906
1576.24	1022.55
1575.38	937.662
1574.53	972.548
1573.67	986.981
1572.81	1004.33
1571.96	922.422
1571.1	922.264
1570.24	910.433
1569.39	930.7
1568.53	956.793
1567.67	968.295
1566.82	921.472
1565.96	979.624
1565.1	929.9
1564.24	929.74
1563.39	958.721
1562.53	935.248
1561.67	978.782
1560.81	920.363
1559.95	905.645
1559.09	914.224
1558.23	937.355
1557.38	943.015
1556.52	969.043
1555.66	939.781
1554.8	895.983
1553.94	948.183
1553.08	959.652
1552.22	915.874
1551.36	1011.65
1550.5	953.343
1549.64	1031.64
1548.78	923.96
1547.92	944.136
1547.06	946.878
1546.2	911.867
1545.34	914.613
1544.47	920.262
1543.61	896.883
1542.75	989.594
1541.89	972.014
1541.03	951.539
1540.17	902.066
1539.3	971.512
1538.44	959.746
1537.58	939.288
1536.72	971.01
1535.85	907.086
1534.99	938.802
1534.13	921.258
1533.27	938.479
1532.4	987.55
1531.54	970.006
1530.68	955.364
1529.81	1010.2
1528.95	1001.34
1528.08	1050.36
1527.22	1035.71
1526.36	997.929
1525.49	1098.98
1524.63	1104.57
1523.76	1063.91
1522.9	1037.71
1522.03	1014.41
1521.17	1060.47
1520.3	1054.51
1519.44	1065.88
1518.57	1094.57
1517.7	1071.29
1516.84	1097.08
1515.97	1079.58
1515.11	1067.84
1514.24	1009.95
1513.37	1021.32
1512.51	1018.25
1511.64	1000.77
1510.77	989.067
1509.91	1003.31
1509.04	971.43
1508.17	945.324
1507.3	1011.44
1506.44	970.927
1505.57	970.759
1504.7	970.592
1503.83	956.026
1502.96	941.465
1502.09	955.696
1501.23	1024.61
1500.36	1001.41
1499.49	1004.11
1498.62	1018.32
1497.75	1003.76
1496.88	980.586
1496.01	983.292
1495.14	1029.12
1494.27	1040.43
1493.4	965.54
1492.53	1002.72
1491.66	1045.64
1490.79	1028.23
1489.92	1053.89
1489.05	1073.81
1488.18	1019.08
1487.31	1027.52
1486.44	1044.56
1485.56	1058.72
1484.69	1018.38
1483.82	1055.49
1482.95	1038.1
1482.08	971.973
1481.21	991.872
1480.33	1020.36
1479.46	1037.38
1478.59	1077.31
1477.72	1039.88
1476.84	1091.26
1475.97	1079.62
1475.1	1096.61
1474.22	1082.11
1473.35	1150.61
1472.48	1184.75
1471.6	1238.91
1470.73	1212.95
1469.85	1161.26
1468.98	1281.16
1468.11	1309.53
1467.23	1272.14
1466.36	1334.81
1465.48	1451.74
1464.61	1380.06
1463.73	1465.52
1462.86	1445.28
1461.98	1539.27
1461.11	1516.16
1460.23	1561.57
1459.35	1529.9
1458.48	1521.08
1457.6	1523.67
1456.73	1549.08
1455.85	1554.51
1454.97	1528.58
1454.1	1457.03
1453.22	1553.7
1452.34	1524.93
1451.46	1584.51
1450.59	1535.8
1449.71	1538.38
1448.83	1498.24
1447.95	1526.46
1447.08	1660.02
1446.2	1639.8
1445.32	1525.66
1444.44	1622.16
1443.56	1710.08
1442.68	1724.01
1441.81	1783.45
1440.93	1987.9
1440.05	1976.18
1439.17	2120.83
1438.29	2083.51
1437.41	2114.41
1436.53	2071.42
1435.65	1894.92
1434.77	1851.98
1433.89	1769.3
1433.01	1680.97
1432.13	1586.99
1431.25	1535.62
1430.37	1484.27
1429.48	1424.43
1428.6	1353.25
1427.72	1310.47
1426.84	1253.52
1425.96	1253.31
1425.08	1261.59
1424.19	1167.83
1423.31	1153.46
1422.43	1187.26
1421.55	1221.05
1420.67	1127.37
1419.78	1237.62
1418.9	1299.7
1418.02	1370.25
1417.13	1372.84
1416.25	1423.55
1415.37	1448.77
1414.48	1341.01
1413.6	1329.46
1412.71	1201.96
1411.83	1145.2
1410.95	1125.21
1410.06	1099.58
1409.18	1133.3
1408.29	1127.45
1407.41	1144.2
1406.52	1118.58
1405.64	1126.86
1404.75	1106.9
1403.87	1180.11
1402.98	1208.13
1402.1	1284.12
1401.21	1348.8
1400.32	1410.63
1399.44	1478.09
1398.55	1376.3
1397.66	1392.98
1396.78	1429.39
1395.89	1367.12
1395	1417.61
1394.12	1287.75
1393.23	1321.33
1392.34	1219.69
1391.45	1267.36
1390.57	1202.37
1389.68	1230.32
1388.79	1154.1
1387.9	1131.39
1387.01	1125.56
1386.12	1094.42
1385.24	1088.6
1384.35	1113.72
1383.46	1079.79
1382.57	1065.54
1381.68	1042.87
1380.79	1051.12
1379.9	1048.12
1379.01	1019.84
1378.12	988.768
1377.23	1022.3
1376.34	965.959
1375.45	988.251
1374.56	974.043
1373.67	959.84
1372.78	990.539
1371.89	995.978
1370.99	1026.66
1370.1	1046.11
1369.21	989.848
1368.32	1054.16
1367.43	992.306
1366.54	978.119
1365.64	972.344
1364.75	1047.82
1363.86	969.204
1362.97	1008.24
1362.07	971.666
1361.18	904.303
1360.29	906.944
1359.39	889.994
1358.5	929.013
1357.61	937.244
1356.71	967.851
1355.82	861.404
1354.93	919.976
1354.03	930.998
1353.14	972.765
1352.24	905.519
1351.35	896.978
1350.45	877.265
1349.56	849.178
1348.66	896.508
1347.77	985.707
1346.87	907.362
1345.98	935.117
1345.08	895.881
1344.18	945.952
1343.29	968.106
1342.39	948.411
1341.5	939.878
1340.6	895.098
1339.7	911.669
1338.81	897.573
1337.91	953.156
1337.01	900.045
1336.11	919.39
1335.22	857.947
1334.32	902.358
1333.42	885.492
1332.52	885.337
1331.63	946.421
1330.73	923.991
1329.83	948.873
1328.93	948.707
1328.03	926.287
1327.13	1009.56
1326.23	984.357
1325.33	928.581
1324.43	986.792
1323.53	1003.29
1322.64	980.889
1321.74	977.939
1320.84	1024.99
1319.94	1030.36
1319.03	985.756
1318.13	1057.77
1317.23	1010.39
1316.33	1079.6
1315.43	1159.88
1314.53	1057.03
1313.63	1112.32
1312.73	1142.63
1311.83	1184.02
1310.92	1136.68
1310.02	1153.12
1309.12	1191.71
1308.22	1180.42
1307.32	1149.74
1306.41	1166.16
1305.51	1235.19
1304.61	1207.28
1303.71	1209.84
1302.8	1242.84
1301.9	1286.91
1301	1270.08
1300.09	1372.22
1299.19	1413.47
1298.28	1501.72
1297.38	1659.07
1296.48	1957.36
1295.57	2451.8
1294.67	2694.57
1293.76	2846.07
1292.86	2525.1
1291.95	2223.57
1291.05	1866.92
1290.14	1598.75
1289.24	1413.5
1288.33	1338.73
1287.42	1327.45
1286.52	1343.78
1285.61	1249.74
1284.71	1183.32
1283.8	1257.58
1282.89	1177.39
1281.99	1086.21
1281.08	1116.34
1280.17	1025.2
1279.26	1047.06
1278.36	978.002
1277.45	1002.62
1276.54	961.135
1275.63	960.966
1274.72	996.586
1273.82	952.37
1272.91	1021
1272	996.06
1271.09	976.628
1270.18	987.458
1269.27	1014.79
1268.36	1011.86
1267.45	1006.18
1266.54	1030.74
1265.64	1044.3
1264.73	1030.38
1263.82	1074.15
1262.91	1071.22
1261.99	1084.76
1261.08	1147.72
1260.17	1221.64
1259.26	1333.96
1258.35	1292.56
1257.44	1393.86
1256.53	1379.89
1255.62	1333.02
1254.71	1346.5
1253.79	1253.04
1252.88	1255.56
1251.97	1129.26
1251.06	1098.91
1250.15	1079.54
1249.23	1062.91
1248.32	1139.42
1247.41	1057.06
1246.49	1043.19
1245.58	1010.15
1244.67	1072.93
1243.75	1001.59
1242.84	1020.56
1241.93	984.819
1241.01	935.413
1240.1	981.738
1239.18	935.084
1238.27	915.783
1237.35	888.29
1236.44	909.995
1235.53	833.332
1234.61	893.283
1233.69	876.738
1232.78	819.237
1231.86	840.935
1230.95	851.706
1230.03	832.45
1229.12	769.54
1228.2	815.786
1227.28	755.629
1226.37	829.136
1225.45	793.539
1224.53	798.852
1223.62	744.192
1222.7	760.413
1221.78	782.079
1220.86	738.349
1219.95	765.459
1219.03	819.795
1218.11	767.912
1217.19	743.273
1216.27	721.364
1215.35	808.33
1214.44	783.696
1213.52	778.117
1212.6	769.819
1211.68	756.084
1210.76	736.916
1209.84	758.536
1208.92	796.458
1208	766.421
1207.08	817.915
1206.16	709.097
1205.24	727.986
1204.32	817.481
1203.4	741.306
1202.48	711.31
1201.56	722.042
1200.64	762.624
1199.71	754.349
1198.79	735.225
1197.87	724.244
1196.95	729.54
1196.03	732.123
1195.1	764.527
1194.18	783.366
1193.26	753.416
1192.34	737.025
1191.41	755.858
1190.49	766.559
1189.57	785.381
1188.65	741.919
1187.72	793.225
1186.8	806.619
1185.87	714.462
1184.95	781.981
1184.03	803.485
1183.1	773.589
1182.18	781.566
1181.25	867.952
1180.33	811.027
1179.4	840.615
1178.48	789.12
1177.55	764.662
1176.63	772.631
1175.7	831.917
1174.78	877.679
1173.85	793.821
1172.92	793.681
1172	909.602
1171.07	871.66
1170.15	855.316
1169.22	936.095
1168.29	927.838
1167.36	876.436
1166.44	838.533
1165.51	808.731
1164.58	805.892
1163.65	797.665
1162.73	765.191
1161.8	832.402
1160.87	737.986
1159.94	770.17
1159.01	796.958
1158.08	810.276
1157.16	810.133
1156.23	750.787
1155.3	820.607
1154.37	801.631
1153.44	841.833
1152.51	814.792
1151.58	841.534
1150.65	795.686
1149.72	814.359
1148.79	902.891
1147.86	875.864
1146.93	859.591
1146	918.525
1145.07	880.768
1144.13	789.329
1143.2	942.195
1142.27	891.034
1141.34	947.227
1140.41	901.449
1139.48	890.56
1138.54	922.585
1137.61	949.235
1136.68	903.49
1135.75	989.106
1134.81	1106.85
1133.88	1007.51
1132.95	1119.85
1132.01	1248.23
1131.08	1336.38
1130.15	1470.03
1129.21	1678.59
1128.28	1780
1127.35	1760.95
1126.41	1704.45
1125.48	1688.09
1124.54	1481.83
1123.61	1281
1122.67	1139.06
1121.74	1074.69
1120.8	1069.16
1119.87	964.742
1118.93	937.851
1117.99	921.655
1117.06	900.123
1116.12	921.327
1115.19	793.001
1114.25	822.226
1113.31	838.094
1112.38	824.602
1111.44	843.132
1110.5	821.64
1109.56	794.822
1108.63	890.683
1107.69	805.204
1106.75	815.724
1105.81	807.583
1104.88	831.422
1103.94	825.946
1103	817.807
1102.06	775.047
1101.12	806.864
1100.18	788.083
1099.24	822.548
1098.3	819.74
1097.36	843.544
1096.42	888.623
1095.49	856.543
1094.55	856.391
1093.6	872.193
1092.66	933.186
1091.72	917.071
1090.78	927.538
1089.84	876.886
1088.9	924.551
1087.96	895.167
1087.02	887.04
1086.08	873.605
1085.14	894.688
1084.19	942.308
1083.25	987.256
1082.31	941.971
1081.37	928.539
1080.43	907.153
1079.48	899.035
1078.54	951.906
1077.6	917.272
1076.65	962.168
1075.71	916.945
1074.77	975.073
1073.82	879.529
1072.88	972.077
1071.93	903.049
1070.99	982.321
1070.05	1016.56
1069.1	974.029
1068.16	1032.08
1067.21	1111.27
1066.27	1214.24
1065.32	1248.41
1064.38	1425.36
1063.43	1639.27
1062.49	1718.28
1061.54	1636.04
1060.59	1715.03
1059.65	1516.56
1058.7	1466.1
1057.75	1288.88
1056.81	1204.15
1055.86	1079.84
1054.91	1079.65
1053.97	923.742
1053.02	852.33
1052.07	889.114
1051.12	809.819
1050.18	888.796
1049.23	851.72
1048.28	901.66
1047.33	861.96
1046.38	864.441
1045.43	808.951
1044.48	829.883
1043.54	798.125
1042.59	829.586
1041.64	789.94
1040.69	800.33
1039.74	823.876
1038.79	821.097
1037.84	768.325
1036.89	757.664
1035.94	849.59
1034.99	749.504
1034.04	786.181
1033.08	814.958
1032.13	825.326
1031.18	788.386
1030.23	754.088
1029.28	764.461
1028.33	787.963
1027.37	795.7
1026.42	769.301
1025.47	761.288
1024.52	771.651
1023.57	766.264
1022.61	787.116
1021.66	729.264
1020.71	731.756
1019.75	776.204
1018.8	797.04
1017.85	778.547
1016.89	770.545
1015.94	809.713
1014.98	741.449
1014.03	788.467
1013.07	762.136
1012.12	720.102
1011.16	759.244
1010.21	706.756
1009.25	766.823
1008.3	774.536
1007.34	724.689
1006.39	776.874
1005.43	737.505
1004.48	781.825
1003.52	760.77
1002.56	765.861
1001.61	802.311
1000.65	781.264
999.693	812.473
998.736	778.371
997.778	767.785
996.821	751.981
995.863	796.226
994.905	811.744
993.947	793.33
992.989	720.131
992.031	766.959
991.072	753.78
990.114	743.213
989.155	706.578
988.196	685.596
987.237	758.451
986.277	706.197
985.318	765.995
984.358	747.622
983.398	778.742
982.438	794.226
981.478	744.616
980.517	783.528
979.557	713.117
978.596	739.01
977.635	764.894
976.674	769.959
975.713	772.421
974.751	738.479
973.79	759.144
972.828	717.418
971.866	738.08
970.904	717.16
969.942	792.372
968.979	724.695
968.017	747.938
967.054	714.048
966.091	742.476
965.128	807.233
964.164	757.78
963.201	747.265
962.237	757.507
961.273	765.152
960.309	752.048
959.345	725.985
958.381	725.854
957.416	787.928
956.451	782.603
955.486	795.417
954.521	826.359
953.556	784.771
952.591	740.607
951.625	732.707
950.659	797.29
949.693	791.97
948.727	794.415
947.761	778.748
946.794	814.822
945.828	737.087
944.861	739.54
943.894	775.602
942.927	749.613
941.959	803.751
940.992	754.511
940.024	806.044
939.056	823.98
938.088	787.676
937.12	834.011
936.152	820.953
935.183	813.061
934.214	805.173
933.246	789.546
932.276	737.809
931.307	776.365
930.338	799.434
929.368	763.193
928.398	799.146
927.428	791.269
926.458	804.011
925.488	796.137
924.517	801.145
923.547	775.245
922.576	847.208
921.605	780.114
920.634	756.806
919.662	772.111
918.691	833.73
917.719	779.551
916.747	807.706
915.775	833.278
914.803	848.556
913.831	817.552
912.858	789.129
911.885	819.826
910.912	858.221
909.939	837.513
908.966	832.225
907.992	832.075
907.019	803.68
906.045	893.387
905.071	877.825
904.097	813.509
903.122	833.889
902.148	818.346
901.173	861.801
900.198	856.516
899.223	843.541
898.248	817.754
897.273	822.732
896.297	822.583
895.321	891.611
894.345	819.724
893.369	819.576
892.393	834.792
891.416	850.002
890.44	908.724
889.463	847.135
888.486	849.541
887.509	826.362
886.531	823.654
885.554	877.212
884.576	846.369
883.598	851.329
882.62	848.619
881.642	822.909
880.664	876.418
879.685	848.158
878.706	863.329
877.727	873.388
876.748	865.57
875.769	865.413
874.789	885.676
873.81	956.969
872.83	977.207
871.85	905.602
870.87	925.842
869.889	836.422
868.909	925.507
867.928	884.553
866.947	881.844
865.966	932.648
864.985	912.097
864.003	914.479
863.022	853.189
862.04	901.415
861.058	891.068
860.076	916.361
859.094	847.48
858.111	847.327
857.128	854.805
856.146	839.388
855.162	854.495
854.179	849.255
853.196	821.136
852.212	828.612
851.229	869.123
850.245	838.475
849.261	881.509
848.276	876.269
847.292	815.163
846.307	878.49
845.322	939.255
844.337	926.394
843.352	888.162
842.367	898.149
841.381	799.056
840.396	844.563
839.41	808.908
838.424	854.397
837.437	811.149
836.451	856.621
835.464	853.931
834.477	810.707
833.49	846.022
832.503	818.01
831.516	807.733
830.528	825.308
829.541	870.719
828.553	900.929
827.565	908.356
826.577	882.893
825.588	890.32
824.6	862.341
823.611	887.468
822.622	846.86
821.633	877.035
820.643	833.916
819.654	841.344
818.664	838.665
817.674	868.82
816.684	982.295
815.694	939.196
814.704	883.492
813.713	918.664
812.723	865.507
811.732	842.643
810.741	845.012
809.749	824.683
808.758	857.312
807.766	862.198
806.774	864.562
805.782	854.324
804.79	861.727
803.798	879.205
802.805	841.263
801.812	853.702
800.819	830.886
799.826	815.63
798.833	802.897
797.84	913.475
796.846	888.148
795.852	830.129
794.858	817.402
793.864	789.592
792.87	849.789
791.875	832.038
790.88	829.373
789.885	854.349
788.89	879.317
787.895	871.621
786.9	871.462
785.904	921.522
784.908	911.312
783.912	888.556
782.916	870.827
781.92	875.686
780.923	878.035
779.926	840.251
778.929	820.036
777.932	832.423
776.935	877.394
775.938	909.817
774.94	764.307
773.942	831.815
772.944	804.109
771.946	879.098
770.948	886.45
769.949	876.274
768.95	843.572
767.951	838.413
766.952	863.282
765.953	878.136
764.954	777.921
763.954	822.795
762.954	817.644
761.954	819.995
760.954	814.846
759.954	902.164
758.953	834.537
757.952	819.395
756.951	849.218
755.95	814.101
754.949	881.366
753.948	826.285
752.946	883.54
751.944	825.983
750.942	965.55
749.94	895.528
748.937	907.834
747.935	930.11
746.932	967.337
745.929	997.073
744.926	914.647
743.923	867.136
742.919	876.942
741.916	921.617
740.912	896.545
739.908	873.971
738.903	836.469
737.899	901.031
736.894	813.765
735.89	885.772
734.885	917.95
733.88	927.73
732.874	852.958
731.869	937.336
730.863	939.65
729.857	914.624
728.851	909.487
727.845	949.072
726.838	943.93
725.832	928.856
724.825	911.304
723.818	918.585
722.811	896.077
721.804	943.066
720.796	952.818
719.788	955.124
718.78	935.106
717.772	974.614
716.764	917.407
715.756	961.861
714.747	887.328
713.738	887.165
712.729	941.511
711.72	943.816
710.71	911.445
709.701	841.941
708.691	916.062
707.681	896.091
706.671	893.452
705.661	945.252
704.65	935.182
703.64	873.171
702.629	902.689
701.618	969.285
700.606	885.052
699.595	884.889
698.583	902.026
697.572	909.273
696.56	879.461
695.547	903.999
694.535	906.303
693.523	923.42
692.51	984.965
691.497	900.868
690.484	935.25
689.471	915.34
688.457	929.972
687.443	905.138
686.43	890.177
685.416	961.51
684.401	921.894
683.387	990.731
682.372	1010.26
681.358	987.903
680.343	921.217
679.327	972.764
678.312	915.954
677.297	925.633
676.281	945.153
675.265	937.597
674.249	998.935
673.233	1008.59
672.216	993.649
671.2	983.63
670.183	909.69
669.166	939.021
668.148	958.51
667.131	1002.56
666.113	1017.12
665.096	943.243
664.078	955.348
663.06	999.371
662.041	977.092
661.023	969.548
660.004	947.283
658.985	998.635
657.966	1064.69
656.947	1076.76
655.927	1000.54
654.908	983.189
653.888	1039.39
652.868	1026.94
651.848	994.898
650.827	984.915
649.807	984.733
648.786	996.798
647.765	954.986
646.744	1047.84
645.723	1032.96
644.701	1111.09
643.679	1044.82
642.657	1078.87
641.635	1120.26
640.613	1127.39
639.591	1073.39
638.568	1070.75
637.545	1114.54
636.522	1133.89
635.499	1094.59
634.475	1087.06
633.452	1138.15
632.428	1152.59
631.404	1186.55
630.38	1166.81
629.356	1215.4
628.331	1173.7
627.306	1275.95
626.281	1185.46
625.256	1299.86
624.231	1302.06
623.205	1348.14
622.18	1355.2
621.154	1328.15
620.128	1366.89
619.102	1451.9
618.075	1373.69
617.049	1422.14
616.022	1387.79
614.995	1443.52
613.968	1438.39
612.94	1462.46
611.913	1430.56
610.885	1401.1
609.857	1466.51
608.829	1478.4
607.8	1463.54
606.772	1482.71
605.743	1475.15
604.714	1443.29
603.685	1435.73
602.656	1406.32
601.626	1408.49
600.597	1379.09
599.567	1373.98
598.537	1417.42
597.507	1361.34
596.476	1390.2
595.446	1280.79
594.415	1222.34
593.384	1241.52
592.353	1277.65
591.321	1318.62
590.29	1269.91
589.258	1257.56
588.226	1269.44
587.194	1225.61
586.162	1218.11
585.129	1142.83
584.096	1227.35
583.063	1229.54
582.03	1159.14
580.997	1238.76
579.964	1163.54
578.93	1173
577.896	1129.26
576.862	1211.25
575.828	1169.93
574.793	1155.22
573.759	1167.08
572.724	1149.96
571.689	1123.17
570.654	1110.89
569.618	1098.61
568.583	1134.62
567.547	1071.66
566.511	1083.52
565.475	1078.5
564.438	1063.82
563.402	1109.45
562.365	1077.9
561.328	1133.15
560.291	1140.17
559.254	1118.27
558.216	1134.93
557.178	1144.35
556.141	1185.09
555.102	1134.3
554.064	1102.78
553.026	1088.14
551.987	1114.41
550.948	1056.45
549.909	1073.09
548.87	1060.87
547.83	1060.67
546.791	1077.31
545.751	1084.32
544.711	1009.6
543.671	1086.32
542.63	1062.09
541.59	1025.85
540.549	1133.76
539.508	1087.91
538.467	1140.54
537.425	1051.5
536.384	1159.32
535.342	1094.31
534.3	1130.09
533.258	1096.3
532.216	1038.53
531.173	1071.91
530.13	1040.54
529.088	1040.35
528.044	1128.83
527.001	1073.51
525.958	1046.96
524.914	1101.86
523.87	1070.52
522.826	1043.98
521.782	1101.24
520.737	1074.71
519.693	1100.83
518.648	1129.34
517.603	1114.78
516.557	1116.96
515.512	1111.97
514.466	1106.98
513.42	1063.75
512.374	1068.33
511.328	1046.62
510.282	1041.65
509.235	1113.12
508.188	1053.2
507.141	971.824
506.094	1067.14
505.047	1002.49
503.999	1061.97
502.951	1061.77
501.903	994.775
500.855	1106.69
499.807	1063.56
