3200.66	25.2595
3200.06	21.0496
3199.47	25.2557
3198.87	16.8346
3198.28	25.248
3197.69	21.0368
3197.09	25.2404
3196.5	29.4427
3195.9	8.41092
3195.31	0
3194.71	12.6126
3194.12	21.0178
3193.52	29.4204
3192.93	25.2137
3192.33	16.8066
3191.74	29.4071
3191.14	29.4026
3190.55	29.3982
3189.95	12.5973
3189.36	-4.19847
3188.76	8.39567
3188.17	50.3664
3187.57	12.5897
3186.97	8.39186
3186.38	16.7812
3185.78	25.168
3185.19	25.1642
3184.59	4.19339
3183.99	25.1565
3183.4	25.1527
3182.8	0
3182.2	29.336
3181.61	41.9022
3181.01	16.7583
3180.41	33.5116
3179.82	25.1299
3179.22	8.37536
3178.62	46.0575
3178.03	4.18641
3177.43	4.18578
3176.83	16.7406
3176.23	41.8451
3175.64	12.5516
3175.04	29.2827
3174.44	20.9131
3173.84	16.7279
3173.25	4.18135
3172.65	16.7229
3172.05	12.5402
3171.45	50.1534
3170.85	33.4305
3170.26	16.7127
3169.66	12.5326
3169.06	8.35383
3168.46	37.5865
3167.86	16.7026
3167.26	29.2251
3166.66	16.6975
3166.06	25.0425
3165.47	29.2118
3164.87	29.2074
3164.27	20.8593
3163.67	20.8561
3163.07	8.34118
3162.47	25.0197
3161.87	20.8466
3161.27	20.8435
3160.67	25.0084
3160.07	8.33486
3159.47	25.0008
3158.87	16.6647
3158.27	33.3243
3157.67	45.8139
3157.07	4.16427
3156.47	37.4728
3155.87	41.6301
3155.27	33.299
3154.67	37.4557
3154.07	16.6445
3153.46	49.9258
3152.86	8.3197
3152.26	37.433
3151.66	4.15859
3151.06	20.7898
3150.46	12.472
3149.86	8.31339
3149.26	4.15607
3148.65	33.2435
3148.05	29.0836
3147.45	41.5417
3146.85	16.6142
3146.25	29.0704
3145.64	12.4569
3145.04	20.7583
3144.44	12.4531
3143.84	33.2031
3143.24	24.8986
3142.63	45.6405
3142.03	41.485
3141.43	24.8872
3140.82	20.7362
3140.22	12.4398
3139.62	24.8759
3139.02	24.8721
3138.41	12.4342
3137.81	33.1528
3137.21	33.1477
3136.6	49.714
3136	16.5688
3135.4	4.14158
3134.79	24.8457
3134.19	12.421
3133.58	8.27938
3132.98	12.4172
3132.38	20.6922
3131.77	28.9646
3131.17	20.6859
3130.56	28.9558
3129.96	12.4078
3129.35	41.3529
3128.75	4.13466
3128.14	16.5361
3127.54	16.5336
3126.93	37.195
3126.33	28.925
3125.72	37.1837
3125.12	41.3089
3124.51	8.26053
3123.91	20.6482
3123.3	20.645
3122.7	41.2838
3122.09	33.022
3121.49	16.5085
3120.88	33.012
3120.27	33.007
3119.67	8.25049
3119.06	4.12462
3118.46	28.8679
3117.85	20.6168
3117.24	28.8591
3116.64	28.8547
3116.03	24.7289
3115.42	20.6043
3114.82	16.4809
3114.21	16.4784
3113.6	4.11897
3113	24.7101
3112.39	28.824
3111.78	-4.11709
3111.17	32.9317
3110.57	20.5792
3109.96	16.4608
3109.35	24.6875
3108.74	24.6838
3108.14	37.02
3107.53	37.0144
3106.92	0
3106.31	28.7802
3105.7	49.3299
3105.1	24.6612
3104.49	41.0958
3103.88	16.4358
3103.27	16.4333
3102.66	16.4308
3102.05	24.6424
3101.44	16.4258
3100.84	28.7408
3100.23	24.6312
3099.62	28.732
3099.01	36.9355
3098.4	28.7233
3097.79	16.4108
3097.18	45.1228
3096.57	20.5072
3095.96	12.3025
3095.35	28.7014
3094.74	32.7966
3094.13	20.4947
3093.52	28.6883
3092.91	28.6839
3092.3	32.7766
3091.69	32.7716
3091.08	20.4791
3090.47	28.6664
3089.86	36.8512
3089.25	16.3758
3088.64	53.2133
3088.03	12.2781
3087.42	28.6446
3086.81	40.9146
3086.19	36.8175
3085.58	28.6315
3084.97	24.5375
3084.36	40.8896
3083.75	32.7067
3083.14	20.4386
3082.53	57.2193
3081.91	-8.17293
3081.3	28.6009
3080.69	24.5113
3080.08	28.5922
3079.47	12.2519
3078.85	16.3334
3078.24	40.8273
3077.63	16.3284
3077.02	24.4889
3076.4	12.2426
3075.79	57.1233
3075.18	28.5573
3074.57	61.1849
3073.95	8.15674
3073.34	28.5442
3072.73	53.0026
3072.11	12.2295
3071.5	32.607
3070.89	28.5268
3070.27	44.821
3069.66	28.5181
3069.05	32.5871
3068.43	12.2183
3067.82	32.5772
3067.2	40.7152
3066.59	36.6381
3065.98	24.4217
3065.36	24.418
3064.75	24.4142
3064.13	40.6842
3063.52	52.8813
3062.9	40.6717
3062.29	20.3328
3061.67	8.13186
3061.06	44.7184
3060.44	24.3881
3059.83	28.4485
3059.21	28.4441
3058.6	32.5026
3057.98	36.5598
3057.37	32.4927
3056.75	36.5487
3056.14	24.362
3055.52	20.2986
3054.9	36.5319
3054.29	40.5848
3053.67	32.4629
3053.06	56.8013
3052.44	20.2831
3051.82	4.056
3051.21	20.2769
3050.59	28.3833
3049.97	8.10827
3049.36	36.4817
3048.74	28.3703
3048.12	36.4705
3047.51	40.5166
3046.89	36.4593
3046.27	40.5042
3045.65	28.3486
3045.04	24.2951
3044.42	40.4856
3043.8	28.3356
3043.18	12.142
3042.57	28.3269
3041.95	32.3687
3041.33	40.4546
3040.71	48.5381
3040.09	44.4865
3039.48	44.4797
3038.86	28.3009
3038.24	36.3813
3037.62	60.6262
3037	44.4524
3036.38	44.4456
3035.76	32.3191
3035.14	44.432
3034.53	52.5025
3033.91	68.6466
3033.29	48.449
3032.67	32.2944
3032.05	40.3618
3031.43	40.3557
3030.81	48.4194
3030.19	40.3433
3029.57	44.3708
3028.95	52.4302
3028.33	44.3572
3027.71	36.2867
3027.09	60.4686
3026.47	28.2144
3025.85	36.27
3025.23	52.382
3024.61	32.2302
3023.99	28.1971
3023.37	36.2478
3022.75	44.2961
3022.13	48.3156
3021.5	48.3082
3020.88	48.3008
3020.26	20.1222
3019.64	36.2145
3019.02	48.2786
3018.4	56.3164
3017.78	36.1978
3017.15	28.1496
3016.53	28.1452
3015.91	48.2416
3015.29	52.2537
3014.67	32.1512
3014.04	48.2194
3013.42	48.212
3012.8	40.1705
3012.18	48.1972
3011.56	72.2847
3010.93	64.2432
3010.31	64.2334
3009.69	40.1397
3009.06	32.1068
3008.44	28.0892
3007.82	52.1576
3007.19	36.1036
3006.57	68.1852
3005.95	28.0719
3005.32	24.058
3004.7	48.1086
3004.08	28.059
3003.45	56.1094
3002.83	52.0936
3002.21	48.079
3001.58	36.0537
3000.96	48.0643
3000.33	40.0474
2999.71	48.0495
2999.08	56.0492
2998.46	52.0376
2997.84	60.0342
2997.21	36.015
2996.59	48.0126
2995.96	52.0057
2995.34	43.9981
2994.71	59.9881
2994.09	31.9888
2993.46	35.9818
2992.83	39.9737
2992.21	27.9773
2991.58	39.9614
2990.96	71.9194
2990.33	67.9135
2989.71	47.9316
2989.08	51.9179
2988.45	39.9307
2987.83	35.9321
2987.2	27.9429
2986.58	63.8597
2985.95	55.8686
2985.32	47.88
2984.7	59.8408
2984.07	43.8765
2983.44	39.8816
2982.82	35.8879
2982.19	39.8694
2981.56	47.8359
2980.93	51.8142
2980.31	55.7914
2979.68	67.7362
2979.05	51.7903
2978.42	67.7154
2977.8	51.7744
2977.17	59.7305
2976.54	39.8142
2975.91	51.7505
2975.28	71.6435
2974.66	51.7346
2974.03	43.7687
2973.4	63.6537
2972.77	51.7107
2972.14	59.657
2971.51	43.7418
2970.88	59.6387
2970.26	79.506
2969.63	63.595
2969	79.4815
2968.37	63.5754
2967.74	67.5385
2967.11	63.5559
2966.48	75.461
2965.85	63.5363
2965.22	63.5265
2964.59	75.4261
2963.96	79.3837
2963.33	83.34
2962.7	59.5194
2962.07	103.151
2961.44	67.4346
2960.81	59.4919
2960.18	95.1724
2959.55	67.4034
2958.92	71.3573
2958.29	67.3827
2957.66	99.0769
2957.03	95.0992
2956.4	83.1989
2955.76	83.1861
2955.13	79.2127
2954.5	63.3604
2953.87	63.3506
2953.24	83.1349
2952.61	67.2893
2951.98	71.2365
2951.34	59.3546
2950.71	71.2145
2950.08	98.8938
2949.45	90.9683
2948.82	75.1361
2948.18	79.0785
2947.55	98.8329
2946.92	94.8649
2946.29	75.0898
2945.65	126.448
2945.02	114.575
2944.39	98.7567
2943.76	118.49
2943.12	114.522
2942.49	157.938
2941.86	134.226
2941.22	146.047
2940.59	138.131
2939.96	173.624
2939.32	185.434
2938.69	181.46
2938.05	169.6
2937.42	157.743
2936.79	181.376
2936.15	224.714
2935.52	197.087
2934.88	185.233
2934.25	208.848
2933.61	173.356
2932.98	200.905
2932.34	212.69
2931.71	200.843
2931.08	208.687
2930.44	208.655
2929.81	244.049
2929.17	275.497
2928.53	251.844
2927.9	220.329
2927.26	243.898
2926.63	243.861
2925.99	267.419
2925.36	271.309
2924.72	263.405
2924.08	247.641
2923.45	247.602
2922.81	227.916
2922.18	263.242
2921.54	227.846
2920.9	247.449
2920.27	263.12
2919.63	243.446
2918.99	259.113
2918.36	278.699
2917.72	239.409
2917.08	278.613
2916.44	274.647
2915.81	282.45
2915.17	298.096
2914.53	270.598
2913.9	247.029
2913.26	266.593
2912.62	286.152
2911.98	246.915
2911.34	305.657
2910.71	333.036
2910.07	270.305
2909.43	282.014
2908.79	278.054
2908.15	305.42
2907.51	332.778
2906.88	324.898
2906.24	309.192
2905.6	309.145
2904.96	332.572
2904.32	316.873
2903.68	301.178
2903.04	320.686
2902.4	351.918
2901.76	387.05
2901.12	371.354
2900.48	379.113
2899.84	386.87
2899.2	386.81
2898.56	359.404
2897.92	339.819
2897.28	378.82
2896.64	417.809
2896	417.744
2895.36	390.354
2894.72	398.1
2894.08	429.257
2893.44	390.173
2892.8	429.124
2892.16	409.555
2891.52	397.792
2890.88	452.321
2890.24	405.466
2889.59	413.199
2888.95	448.213
2888.31	420.865
2887.67	420.8
2887.03	432.422
2886.39	479.096
2885.74	447.866
2885.1	521.78
2884.46	482.767
2883.82	564.438
2883.18	564.351
2882.53	583.721
2881.89	614.757
2881.25	684.686
2880.6	719.587
2879.96	762.255
2879.32	766.026
2878.68	793.122
2878.03	792.999
2877.39	750.123
2876.75	773.323
2876.1	668.296
2875.46	617.69
2874.82	570.983
2874.17	543.709
2873.53	535.859
2872.88	496.951
2872.24	473.583
2871.6	457.985
2870.95	457.914
2870.31	504.403
2869.66	500.445
2869.02	442.185
2868.37	492.534
2867.73	422.66
2867.08	441.98
2866.44	438.035
2865.79	430.215
2865.15	437.899
2864.5	402.959
2863.86	426.141
2863.21	460.935
2862.57	449.245
2861.92	445.303
2861.28	398.775
2860.63	418.068
2859.98	518.634
2859.34	452.766
2858.69	425.612
2858.05	545.472
2857.4	533.784
2856.75	545.303
2856.11	541.351
2855.46	506.472
2854.81	487.065
2854.17	587.479
2853.52	598.981
2852.87	595.024
2852.23	621.974
2851.58	656.641
2850.93	660.401
2850.28	729.803
2849.64	683.36
2848.99	783.619
2848.34	775.778
2847.69	767.94
2847.05	821.838
2846.4	771.559
2845.75	767.582
2845.1	752.036
2844.45	910.015
2843.8	821.199
2843.16	851.91
2842.51	759.277
2841.86	782.28
2841.21	720.511
2840.56	662.613
2839.91	600.881
2839.26	612.341
2838.61	581.441
2837.96	523.601
2837.31	465.778
2836.66	419.52
2836.01	404.062
2835.36	373.218
2834.72	346.231
2834.07	346.177
2833.42	307.665
2832.76	280.701
2832.11	253.745
2831.46	257.549
2830.81	238.292
2830.16	222.884
2829.51	184.427
2828.86	176.715
2828.21	192.051
2827.56	142.096
2826.91	172.793
2826.26	165.087
2825.61	161.223
2824.96	149.684
2824.3	130.473
2823.65	145.8
2823	115.087
2822.35	157.262
2821.7	95.8763
2821.04	153.378
2820.39	118.85
2819.74	122.664
2819.09	118.813
2818.44	118.794
2817.78	137.933
2817.13	103.434
2816.48	164.702
2815.83	103.401
2815.17	99.5562
2814.52	118.683
2813.87	111.009
2813.21	95.6824
2812.56	110.974
2811.91	103.305
2811.25	95.6376
2810.6	87.9729
2809.95	95.6078
2809.29	107.064
2808.64	110.871
2807.98	114.676
2807.33	76.4386
2806.68	122.283
2806.02	99.3392
2805.37	99.3237
2804.71	133.684
2804.06	95.4738
2803.4	80.1855
2802.75	99.2618
2802.09	106.881
2801.44	99.2308
2800.78	99.2153
2800.13	99.1998
2799.47	80.1105
2798.82	87.7263
2798.16	122.035
2797.51	87.699
2796.85	118.185
2796.19	87.6716
2795.54	64.7906
2794.88	80.023
2794.23	80.0105
2793.57	68.5697
2792.91	87.6032
2792.26	102.822
2791.6	121.845
2790.94	76.141
2790.29	106.581
2789.63	91.3407
2788.97	95.1317
2788.32	91.3122
2787.66	98.9061
2787	87.4802
2786.34	83.6636
2785.69	95.0575
2785.03	117.853
2784.37	83.6245
2783.71	91.2124
2783.06	91.1982
2782.4	102.582
2781.74	98.7672
2781.08	113.944
2780.42	98.7363
2779.76	83.5331
2779.11	132.873
2778.45	102.486
2777.79	68.3132
2777.13	91.07
2776.47	83.4678
2775.81	106.215
2775.15	113.784
2774.49	106.182
2773.83	75.8324
2773.17	102.358
2772.51	75.8087
2771.86	79.5867
2771.2	94.7312
2770.54	117.448
2769.88	87.1255
2769.22	83.3244
2768.56	98.4589
2767.9	102.23
2767.23	98.4281
2766.57	56.7766
2765.91	105.966
2765.25	75.6784
2764.59	90.7999
2763.93	105.917
2763.27	86.9893
2762.61	83.1942
2761.95	86.9621
2761.29	86.9485
2760.63	79.3753
2759.96	105.817
2759.3	98.2435
2758.64	105.784
2757.98	101.99
2757.32	124.635
2756.65	109.511
2755.99	79.2884
2755.33	124.577
2754.67	158.527
2754.01	79.2512
2753.34	79.2388
2752.68	124.499
2752.02	94.3023
2751.35	101.831
2750.69	124.44
2750.03	101.799
2749.37	86.7038
2748.7	101.767
2748.04	120.594
2747.38	105.503
2746.71	97.9516
2746.05	113.003
2745.38	97.9209
2744.72	112.968
2744.06	146.835
2743.39	124.226
2742.73	131.734
2742.06	105.371
2741.4	109.117
2740.73	112.862
2740.07	116.606
2739.41	109.066
2738.74	86.4867
2738.08	135.349
2737.41	116.533
2736.75	90.2046
2736.08	120.254
2735.41	97.691
2734.75	101.432
2734.08	138.978
2733.42	131.445
2732.75	108.895
2732.09	146.422
2731.42	138.891
2730.75	146.376
2730.09	146.353
2729.42	146.33
2728.76	123.798
2728.09	146.284
2727.42	153.761
2726.76	149.988
2726.09	142.466
2725.42	149.941
2724.75	172.405
2724.09	172.378
2723.42	161.11
2722.75	183.562
2722.09	187.279
2721.42	176.014
2720.75	161.009
2720.08	138.521
2719.41	164.702
2718.75	168.419
2718.08	153.424
2717.41	179.59
2716.74	145.894
2716.07	168.313
2715.41	119.67
2714.74	171.999
2714.07	164.495
2713.4	160.731
2712.73	164.443
2712.06	201.785
2711.39	171.864
2710.72	156.895
2710.05	153.135
2709.38	175.517
2708.71	168.022
2708.04	153.063
2707.37	130.643
2706.7	164.211
2706.03	156.722
2705.36	160.428
2704.69	130.561
2704.02	152.919
2703.35	167.811
2702.68	119.314
2702.01	126.751
2701.34	137.913
2700.67	115.531
2700	149.048
2699.33	111.769
2698.66	156.451
2697.99	134.08
2697.32	122.887
2696.64	119.145
2695.97	137.74
2695.3	148.884
2694.63	145.139
2693.96	133.954
2693.29	130.212
2692.61	130.192
2691.94	119.014
2691.27	145.025
2690.6	104.104
2689.92	141.262
2689.25	122.656
2688.58	130.069
2687.91	92.8917
2687.23	141.173
2686.56	152.294
2685.89	141.129
2685.21	129.967
2684.54	107.67
2683.87	96.5162
2683.19	118.77
2682.52	129.885
2681.85	118.733
2681.17	155.813
2680.5	114.986
2679.82	129.803
2679.15	129.782
2678.48	133.47
2677.8	122.328
2677.13	118.602
2676.45	137.112
2675.78	155.616
2675.1	129.66
2674.43	114.823
2673.75	125.916
2673.08	114.787
2672.4	148.089
2671.73	114.751
2671.05	129.537
2670.37	125.816
2669.7	159.096
2669.02	133.175
2668.35	133.154
2667.67	122.039
2667	125.717
2666.32	144.182
2665.64	147.856
2664.97	129.354
2664.29	151.505
2663.61	118.229
2662.94	114.516
2662.26	129.272
2661.58	132.945
2660.91	114.462
2660.23	118.136
2659.55	136.573
2658.87	129.17
2658.2	136.53
2657.52	136.508
2656.84	121.731
2656.16	110.647
2655.49	118.005
2654.81	114.3
2654.13	151.147
2653.45	140.065
2652.77	140.043
2652.09	121.597
2651.42	136.314
2650.74	103.141
2650.06	121.539
2649.38	139.932
2648.7	128.865
2648.02	132.526
2647.34	180.354
2646.66	110.403
2645.98	99.3472
2645.3	132.442
2644.62	143.456
2643.94	121.367
2643.26	117.67
2642.58	128.682
2641.9	121.309
2641.22	139.667
2640.54	102.897
2639.86	99.206
2639.18	102.864
2638.5	121.213
2637.82	121.194
2637.14	110.159
2636.46	135.842
2635.78	106.454
2635.1	113.777
2634.42	132.108
2633.73	146.763
2633.05	135.734
2632.37	124.709
2631.69	110.02
2631.01	139.337
2630.33	135.648
2629.64	120.965
2628.96	146.601
2628.28	128.255
2627.6	131.899
2626.91	117.225
2626.23	106.218
2625.55	142.823
2624.87	102.523
2624.18	117.151
2623.5	124.453
2622.82	120.773
2622.13	150.028
2621.45	128.053
2620.77	87.7936
2620.08	120.697
2619.4	124.335
2618.72	127.972
2618.03	127.951
2617.35	113.31
2616.67	113.292
2615.98	102.312
2615.3	135.177
2614.61	113.239
2613.93	160.7
2613.24	131.461
2612.56	116.836
2611.87	127.769
2611.19	120.449
2610.5	113.131
2609.82	124.06
2609.13	127.688
2608.45	138.611
2607.76	116.707
2607.08	145.86
2606.39	134.899
2605.71	116.651
2605.02	131.212
2604.33	142.123
2603.65	127.526
2602.96	127.506
2602.27	145.698
2601.59	123.824
2600.9	134.728
2600.21	156.551
2599.53	134.686
2598.84	138.304
2598.15	112.809
2597.47	149.175
2596.78	152.789
2596.09	127.304
2595.41	145.468
2594.72	119.992
2594.03	119.973
2593.34	119.954
2592.65	116.3
2591.97	130.817
2591.28	134.43
2590.59	130.776
2589.9	134.387
2589.21	137.997
2588.52	148.868
2587.84	148.844
2587.15	141.561
2586.46	112.505
2585.77	101.601
2585.08	116.097
2584.39	126.961
2583.7	137.822
2583.01	148.679
2582.32	148.656
2581.63	159.507
2580.94	152.233
2580.25	159.457
2579.56	119.574
2578.87	148.538
2578.18	144.892
2577.49	148.49
2576.8	115.877
2576.11	133.961
2575.42	148.42
2574.73	112.202
2574.04	151.991
2573.35	104.93
2572.66	119.384
2571.97	122.982
2571.28	126.579
2570.58	137.407
2569.89	159.077
2569.2	155.437
2568.51	126.499
2567.82	126.479
2567.13	140.911
2566.43	122.826
2565.74	148.09
2565.05	155.289
2564.36	133.6
2563.66	140.799
2562.97	129.948
2562.28	155.19
2561.59	151.557
2560.89	129.886
2560.2	129.865
2559.51	137.058
2558.81	104.58
2558.12	144.226
2557.43	126.177
2556.73	140.575
2556.04	140.553
2555.35	136.927
2554.65	126.097
2553.96	172.906
2553.26	104.447
2552.57	136.84
2551.88	126.017
2551.18	143.996
2550.49	129.576
2549.79	125.957
2549.1	143.928
2548.4	125.917
2547.71	143.882
2547.01	161.841
2546.32	118.665
2545.62	118.646
2544.93	140.195
2544.23	132.985
2543.53	125.776
2542.84	165.28
2542.14	154.476
2541.45	104.165
2540.75	147.244
2540.05	129.267
2539.36	118.476
2538.66	147.174
2537.97	118.438
2537.27	136.362
2536.57	121.988
2535.88	147.08
2535.18	121.949
2534.48	147.033
2533.78	161.352
2533.09	136.231
2532.39	139.794
2531.69	146.94
2530.99	121.833
2530.3	139.727
2529.6	125.376
2528.9	150.428
2528.2	150.404
2527.5	168.282
2526.81	103.817
2526.11	143.173
2525.41	143.15
2524.71	146.706
2524.01	146.682
2523.31	135.928
2522.61	157.365
2521.91	143.036
2521.21	114.411
2520.52	153.715
2519.82	178.71
2519.12	167.96
2518.42	135.776
2517.72	171.479
2517.02	121.445
2516.32	153.568
2515.62	128.548
2514.92	157.089
2514.22	128.507
2513.52	146.332
2512.82	142.74
2512.11	132.013
2511.41	139.127
2510.71	160.505
2510.01	135.516
2509.31	128.363
2508.61	160.428
2507.91	153.274
2507.21	146.121
2506.5	146.098
2505.8	163.889
2505.1	110.429
2504.4	149.59
2503.7	167.371
2503	121.058
2502.29	167.318
2501.59	113.9
2500.89	128.117
2500.19	124.539
2499.48	156.538
2498.78	149.399
2498.08	163.601
2497.37	128.015
2496.67	142.216
2495.97	163.523
2495.26	156.388
2494.56	142.148
2493.86	174.104
2493.15	159.866
2492.45	124.32
2491.75	166.917
2491.04	152.687
2490.34	149.112
2489.63	191.685
2488.93	120.672
2488.22	166.784
2487.52	145.469
2486.81	124.161
2486.11	152.516
2485.41	184.409
2484.7	163.105
2483.99	184.35
2483.29	166.597
2482.58	131.13
2481.88	166.544
2481.17	120.459
2480.47	177.118
2479.76	173.548
2479.06	141.649
2478.35	162.87
2477.64	166.384
2476.94	166.358
2476.23	148.636
2475.52	169.843
2474.82	176.891
2474.11	205.161
2473.4	141.468
2472.7	127.3
2471.99	141.422
2471.28	152.005
2470.57	137.843
2469.87	151.956
2469.16	158.998
2468.45	148.375
2467.74	176.608
2467.04	144.795
2466.33	158.896
2465.62	180.054
2464.91	169.435
2464.2	155.291
2463.5	141.151
2462.79	158.769
2462.08	162.271
2461.37	162.245
2460.66	162.219
2459.95	133.986
2459.24	144.54
2458.53	176.241
2457.82	190.309
2457.11	158.566
2456.4	151.494
2455.69	193.74
2454.99	176.099
2454.28	147.9
2453.57	158.439
2452.85	161.934
2452.14	168.947
2451.43	140.767
2450.72	154.818
2450.01	161.83
2449.3	133.664
2448.59	182.879
2447.88	151.203
2447.17	158.21
2446.46	196.852
2445.75	203.85
2445.04	182.733
2444.32	186.217
2443.61	186.187
2442.9	158.058
2442.19	179.103
2441.48	193.12
2440.76	165.003
2440.05	161.467
2439.34	157.931
2438.63	143.87
2437.92	154.372
2437.2	164.871
2436.49	171.859
2435.78	203.392
2435.06	154.273
2434.35	189.304
2433.64	182.264
2432.92	182.235
2432.21	150.67
2431.5	175.169
2430.78	175.141
2430.07	143.593
2429.36	168.081
2428.64	164.553
2427.93	164.527
2427.21	175
2426.5	164.474
2425.78	167.946
2425.07	160.923
2424.35	164.395
2423.64	160.871
2422.92	160.845
2422.21	185.292
2421.49	174.776
2420.78	209.697
2420.06	174.719
2419.35	174.691
2418.63	167.677
2417.92	185.113
2417.2	174.607
2416.48	206.003
2415.77	178.042
2415.05	184.994
2414.34	181.475
2413.62	181.445
2412.9	153.506
2412.19	181.387
2411.47	156.944
2410.75	153.432
2410.04	212.678
2409.32	170.812
2408.6	170.785
2407.88	191.666
2407.17	205.573
2406.45	156.768
2405.73	202.023
2405.01	184.578
2404.29	188.03
2403.58	142.741
2402.86	139.237
2402.14	198.381
2401.42	191.389
2400.7	198.317
2399.98	173.934
2399.27	191.297
2398.55	191.266
2397.83	201.666
2397.11	177.298
2396.39	173.794
2395.67	184.192
2394.95	187.637
2394.23	180.658
2393.51	173.682
2392.79	184.073
2392.07	184.044
2391.35	177.07
2390.63	173.57
2389.91	194.367
2389.19	176.984
2388.47	159.607
2387.75	190.804
2387.03	176.899
2386.31	169.934
2385.59	176.842
2384.87	187.214
2384.14	183.718
2383.42	197.551
2382.7	176.728
2381.98	187.093
2381.26	176.671
2380.54	159.324
2379.82	245.874
2379.09	169.66
2378.37	186.943
2377.65	159.222
2376.93	197.265
2376.2	183.392
2375.48	162.604
2374.76	176.415
2374.04	204.054
2373.31	190.19
2372.59	165.957
2371.87	179.758
2371.14	190.097
2370.42	217.713
2369.7	134.753
2368.97	207.279
2368.25	189.975
2367.52	179.584
2366.8	183.007
2366.08	169.168
2365.35	189.852
2364.63	189.821
2363.9	169.086
2363.18	200.111
2362.45	213.877
2361.73	172.454
2361	196.565
2360.28	206.877
2359.55	213.739
2358.83	203.364
2358.1	217.116
2357.38	199.852
2356.65	203.265
2355.93	210.122
2355.2	203.199
2354.47	185.949
2353.75	210.02
2353.02	196.216
2352.3	199.626
2351.57	178.946
2350.84	189.24
2350.12	161.688
2349.39	178.86
2348.66	202.904
2347.94	202.871
2347.21	195.963
2346.48	233.742
2345.75	209.646
2345.03	188.995
2344.3	233.629
2343.57	202.674
2342.84	199.207
2342.11	212.911
2341.39	185.409
2340.66	199.11
2339.93	178.484
2339.2	188.751
2338.47	192.151
2337.74	171.536
2337.02	168.078
2336.29	209.206
2335.56	222.888
2334.83	205.71
2334.1	205.676
2333.37	205.643
2332.64	178.195
2331.91	188.445
2331.18	208.969
2330.45	219.211
2329.72	191.778
2328.99	184.899
2328.26	215.681
2327.53	222.492
2326.8	181.387
2326.07	222.42
2325.34	201.856
2324.61	201.823
2323.88	242.833
2323.14	188.079
2322.41	222.24
2321.68	205.111
2320.95	211.914
2320.22	198.21
2319.49	218.679
2318.76	235.725
2318.02	215.192
2317.29	232.233
2316.56	218.537
2315.83	238.986
2315.1	208.226
2314.36	249.148
2313.63	214.983
2312.9	194.477
2312.16	204.679
2311.43	228.521
2310.7	231.895
2309.97	238.676
2309.23	228.41
2308.5	218.147
2307.76	197.664
2307.03	218.077
2306.3	194.193
2305.56	207.787
2304.83	211.159
2304.1	217.935
2303.36	258.756
2302.63	224.673
2301.89	207.618
2301.16	224.6
2300.42	221.161
2299.69	227.929
2298.95	227.892
2298.22	221.053
2297.48	248.22
2296.75	197.183
2296.01	200.551
2295.28	217.511
2294.54	200.486
2293.8	186.863
2293.07	193.626
2292.33	210.577
2291.6	203.751
2290.86	251.252
2290.12	210.474
2289.39	224.017
2288.65	213.8
2287.91	227.337
2287.18	217.123
2286.44	230.656
2285.7	223.835
2284.97	227.19
2284.23	247.495
2283.49	233.895
2282.75	233.857
2282.01	250.763
2281.28	233.781
2280.54	243.906
2279.8	206.609
2279.06	206.576
2278.32	257.331
2277.59	206.508
2276.85	236.938
2276.11	233.515
2275.37	233.477
2274.63	263.888
2273.89	226.636
2273.15	199.543
2272.41	243.47
2271.67	236.669
2270.93	233.25
2270.19	236.592
2269.45	236.553
2268.71	233.136
2267.97	246.611
2267.23	199.283
2266.49	226.268
2265.75	259.997
2265.01	202.562
2264.27	256.537
2263.53	219.371
2262.79	239.581
2262.05	222.673
2261.31	242.877
2260.57	232.719
2259.83	242.798
2259.09	225.9
2258.34	212.379
2257.6	235.938
2256.86	229.159
2256.12	245.969
2255.38	259.405
2254.63	222.311
2253.89	229.01
2253.15	255.911
2252.41	239.036
2251.66	245.729
2250.92	255.786
2250.18	242.284
2249.43	215.328
2248.69	232.113
2247.95	232.075
2247.21	252.215
2246.46	279.072
2245.72	245.409
2244.97	252.091
2244.23	228.525
2243.49	218.408
2242.74	245.249
2242	241.85
2241.25	231.735
2240.51	238.413
2239.76	238.374
2239.02	241.692
2238.27	258.434
2237.53	238.258
2236.78	244.929
2236.04	231.471
2235.29	281.744
2234.55	271.638
2233.8	231.357
2233.06	251.434
2232.31	234.634
2231.57	241.298
2230.82	261.364
2230.07	244.57
2229.33	241.18
2228.58	264.585
2227.83	227.707
2227.09	291.283
2226.34	207.547
2225.59	274.453
2224.85	264.369
2224.1	271.018
2223.35	210.757
2222.6	280.963
2221.86	234.098
2221.11	247.435
2220.36	257.424
2219.61	257.382
2218.87	250.655
2218.12	267.322
2217.37	263.937
2216.62	223.809
2215.87	230.452
2215.12	260.469
2214.37	257.087
2213.63	223.663
2212.88	270.354
2212.13	270.31
2211.38	260.256
2210.63	266.886
2209.88	240.158
2209.13	253.458
2208.38	253.417
2207.63	250.042
2206.88	243.334
2206.13	279.955
2205.38	229.926
2204.63	263.205
2203.88	249.837
2203.13	279.772
2202.38	276.396
2201.63	279.681
2200.88	286.293
2200.12	289.574
2199.37	279.543
2198.62	289.48
2197.87	329.354
2197.12	239.491
2196.37	305.966
2195.62	285.965
2194.86	265.97
2194.11	265.927
2193.36	279.178
2192.61	275.809
2191.85	239.217
2191.1	245.821
2190.35	232.496
2189.6	278.949
2188.84	272.263
2188.09	268.899
2187.34	285.45
2186.58	285.404
2185.83	318.538
2185.08	295.263
2184.32	262.044
2183.57	268.634
2182.82	288.486
2182.06	285.123
2181.31	261.873
2180.55	311.544
2179.8	298.238
2179.04	281.623
2178.29	314.704
2177.53	284.843
2176.78	264.927
2176.02	281.439
2175.27	311.187
2174.51	264.797
2173.76	291.229
2173	284.563
2172.25	297.75
2171.49	297.701
2170.74	294.345
2169.98	248.003
2169.22	284.33
2168.47	314.034
2167.71	264.406
2166.95	297.408
2166.2	261.015
2165.44	260.973
2164.68	267.536
2163.93	274.097
2163.17	241.033
2162.41	293.814
2161.65	293.766
2160.9	306.919
2160.14	290.37
2159.38	267.229
2158.62	263.886
2157.87	270.439
2157.11	300.072
2156.35	263.756
2155.59	273.602
2154.83	283.445
2154.07	326.238
2153.31	303.12
2152.56	309.659
2151.8	316.196
2151.04	279.919
2150.28	283.166
2149.52	273.243
2148.76	286.364
2148	286.317
2147.24	266.527
2146.48	259.904
2145.72	302.623
2144.96	286.129
2144.2	282.794
2143.44	309.049
2142.68	299.137
2141.92	259.648
2141.16	285.894
2140.4	279.276
2139.64	292.37
2138.87	302.176
2138.11	275.854
2137.35	282.376
2136.59	275.763
2135.83	308.542
2135.07	285.518
2134.31	285.471
2133.54	291.986
2132.78	314.899
2132.02	291.89
2131.26	304.958
2130.49	298.351
2129.73	291.746
2128.97	298.253
2128.21	265.434
2127.44	327.642
2126.68	265.347
2125.92	268.578
2125.15	311.107
2124.39	304.507
2123.63	281.541
2122.86	324.046
2122.1	333.811
2121.33	314.123
2120.57	278.084
2119.81	294.393
2119.04	333.591
2118.28	294.296
2117.51	294.248
2116.75	294.199
2115.98	303.956
2115.22	303.906
2114.45	287.52
2113.69	277.672
2112.92	323.353
2112.16	326.565
2111.39	326.512
2110.62	310.135
2109.86	287.235
2109.09	365.512
2108.33	287.141
2107.56	309.93
2106.79	283.784
2106.03	313.09
2105.26	277.169
2104.49	319.507
2103.73	329.234
2102.96	283.551
2102.19	329.125
2101.42	348.62
2100.66	299.698
2099.89	348.505
2099.12	338.678
2098.35	280.014
2097.59	312.522
2096.82	318.981
2096.05	344.963
2095.28	283.083
2094.51	299.303
2093.74	299.254
2092.98	360.996
2092.21	315.413
2091.44	292.603
2090.67	325.061
2089.9	286.007
2089.13	328.203
2088.36	298.908
2087.59	292.362
2086.82	324.793
2086.05	302.008
2085.28	318.192
2084.51	337.617
2083.74	331.07
2082.97	282.337
2082.2	324.471
2081.43	343.883
2080.66	317.877
2079.89	350.255
2079.12	298.317
2078.35	291.783
2077.57	363.048
2076.8	301.41
2076.03	304.6
2075.26	340.189
2074.49	310.978
2073.72	333.599
2072.94	304.399
2072.17	307.587
2071.4	378.754
2070.63	294.538
2069.86	326.851
2069.08	330.033
2068.31	339.683
2067.54	336.392
2066.76	310.465
2065.99	333.048
2065.22	290.965
2064.44	374.959
2063.67	300.564
2062.9	336.059
2062.12	306.926
2061.35	355.329
2060.58	368.19
2059.8	322.92
2059.03	339.01
2058.25	313.129
2057.48	329.215
2056.7	316.252
2055.93	325.879
2055.15	312.921
2054.38	325.772
2053.6	361.192
2052.83	306.317
2052.05	338.505
2051.28	332.003
2050.5	367.398
2049.72	312.559
2048.95	335.059
2048.17	354.331
2047.4	354.272
2046.62	341.333
2045.84	331.618
2045.07	347.658
2044.29	376.568
2043.51	318.581
2042.74	353.921
2041.96	331.343
2041.18	360.236
2040.4	360.176
2039.63	331.179
2038.85	298.976
2038.07	311.784
2037.29	324.587
2036.52	350.239
2035.74	356.606
2034.96	324.425
2034.18	308.314
2033.4	311.474
2032.62	356.369
2031.84	333.84
2031.07	362.67
2030.29	324.103
2029.51	333.674
2028.73	352.866
2027.95	336.771
2027.17	343.129
2026.39	333.453
2025.61	343.015
2024.83	323.727
2024.05	378.153
2023.27	365.273
2022.49	349.195
2021.71	361.949
2020.93	349.079
2020.15	384.243
2019.37	352.165
2018.59	361.709
2017.8	348.847
2017.02	358.389
2016.24	374.326
2015.46	335.878
2014.68	380.599
2013.9	380.536
2013.11	374.078
2012.33	354.836
2011.55	370.758
2010.77	348.326
2009.99	380.22
2009.2	421.686
2008.42	408.84
2007.64	364.063
2006.85	376.774
2006.07	351.172
2005.29	319.194
2004.5	373.395
2003.72	373.333
2002.94	334.987
2002.15	360.45
2001.37	373.147
2000.59	338.009
1999.8	379.399
1999.02	376.149
1998.23	363.337
1997.45	388.77
1996.66	340.914
1995.88	407.754
1995.09	350.356
1994.31	372.589
1993.52	378.895
1992.74	334.264
1991.95	369.22
1991.17	350.065
1990.38	388.189
1989.6	391.306
1988.81	403.964
1988.02	387.995
1987.24	343.414
1986.45	365.611
1985.67	390.98
1984.88	371.846
1984.09	384.495
1983.3	403.494
1982.52	400.25
1981.73	374.775
1980.94	365.186
1980.16	358.775
1979.37	346.017
1978.58	342.786
1977.79	383.983
1977.01	396.611
1976.22	409.234
1975.43	374.276
1974.64	361.528
1973.85	393.176
1973.06	374.089
1972.27	389.875
1971.49	415.164
1970.7	402.42
1969.91	411.857
1969.12	376.945
1968.33	402.219
1967.54	376.82
1966.75	398.919
1965.96	417.845
1965.17	427.271
1964.38	465.173
1963.59	354.358
1962.8	398.587
1962.01	426.986
1961.22	363.668
1960.43	458.462
1959.64	391.998
1958.85	423.541
1958.06	423.47
1957.26	432.878
1956.47	363.304
1955.68	410.624
1954.89	416.871
1954.1	413.644
1953.31	382.005
1952.51	388.254
1951.72	438.685
1950.93	388.124
1950.14	394.37
1949.34	419.539
1948.55	381.622
1947.76	397.326
1946.97	343.661
1946.17	425.564
1945.38	431.796
1944.59	431.724
1943.79	406.446
1943	469.383
1942.21	381.113
1941.41	381.049
1940.62	450.256
1939.82	390.367
1939.03	415.482
1938.24	374.501
1937.44	427.929
1936.65	437.296
1935.85	374.313
1935.06	430.86
1934.26	427.644
1933.47	389.845
1932.67	433.788
1931.88	405.429
1931.08	443.07
1930.28	380.159
1929.49	433.498
1928.69	414.581
1927.9	417.652
1927.1	461.538
1926.3	448.904
1925.51	398.61
1924.71	398.544
1923.91	426.716
1923.12	451.741
1922.32	410.89
1921.52	426.501
1920.73	454.65
1919.93	445.169
1919.13	404.346
1918.33	416.814
1917.53	426.145
1916.74	435.472
1915.94	441.664
1915.14	454.118
1914.34	407.072
1913.54	416.396
1912.74	428.848
1911.95	460.073
1911.15	463.126
1910.35	428.632
1909.55	409.792
1908.75	425.361
1907.95	462.816
1907.15	450.232
1906.35	434.526
1905.55	456.332
1904.75	428.13
1903.95	415.561
1903.15	456.103
1902.35	440.409
1901.55	443.458
1900.75	465.241
1899.95	449.554
1899.15	443.236
1898.35	471.249
1897.54	505.494
1896.74	480.451
1895.94	442.939
1895.14	458.458
1894.34	461.5
1893.54	458.305
1892.73	445.759
1891.93	420.751
1891.13	486.12
1890.33	464.229
1889.53	420.539
1888.72	513.906
1887.92	417.284
1887.12	479.485
1886.31	498.083
1885.51	451.312
1884.71	476.132
1883.9	451.161
1883.1	457.307
1882.3	451.009
1881.49	482.032
1880.69	500.608
1879.88	438.347
1879.08	463.14
1878.28	447.523
1877.47	494.057
1876.67	503.295
1875.86	490.785
1875.06	453.434
1874.25	468.884
1873.45	493.643
1872.64	443.894
1871.84	499.684
1871.03	484.085
1870.22	474.696
1869.42	493.229
1868.61	521.06
1867.81	508.568
1867	523.985
1866.19	483.598
1865.39	483.516
1864.58	486.534
1863.77	480.256
1862.97	508.056
1862.16	507.971
1861.35	473.82
1860.54	470.644
1859.74	442.702
1858.93	461.2
1858.12	467.312
1857.31	392.971
1856.51	476.436
1855.7	519.661
1854.89	454.627
1854.08	507.118
1853.27	507.032
1852.46	510.038
1851.65	469.774
1850.84	454.245
1850.04	481.975
1849.23	438.647
1848.42	506.521
1847.61	429.235
1846.8	512.526
1845.99	456.874
1845.18	496.921
1844.37	435.118
1843.56	484.412
1842.75	515.18
1841.94	508.924
1841.13	474.916
1840.31	518.003
1839.5	539.496
1838.69	505.499
1837.88	490.005
1837.07	480.679
1836.26	443.629
1835.45	529.801
1834.64	526.632
1833.82	477.276
1833.01	474.117
1832.2	504.819
1831.39	507.812
1830.57	452.338
1829.76	507.641
1828.95	492.175
1828.14	482.865
1827.32	482.784
1826.51	553.417
1825.7	470.325
1824.88	516.348
1824.07	531.626
1823.26	537.682
1822.44	531.447
1821.63	571.286
1820.81	540.481
1820	497.404
1819.19	485.041
1818.37	580.109
1817.56	500.221
1816.74	527.752
1815.93	530.731
1815.11	533.709
1814.3	502.951
1813.48	496.734
1812.67	502.781
1811.85	527.218
1811.03	527.129
1810.22	536.233
1809.4	520.824
1808.59	514.61
1807.77	514.523
1806.95	575.679
1806.14	538.842
1805.32	535.69
1804.5	544.782
1803.69	535.51
1802.87	538.479
1802.05	541.447
1801.24	538.297
1800.42	519.858
1799.6	562.575
1798.78	516.626
1797.96	540.99
1797.15	525.619
1796.33	565.251
1795.51	537.661
1794.69	522.298
1793.87	519.156
1793.05	509.909
1792.23	531.192
1791.42	540.26
1790.6	592.049
1789.78	543.128
1788.96	536.935
1788.14	530.744
1787.32	570.301
1786.5	539.712
1785.68	542.67
1784.86	518.192
1784.04	557.725
1783.22	533.253
1782.4	530.116
1781.58	563.534
1780.76	529.937
1779.93	551.163
1779.11	535.847
1778.29	541.845
1777.47	508.274
1776.65	547.747
1775.83	535.485
1775.01	535.394
1774.18	577.884
1773.36	586.91
1772.54	571.608
1771.72	556.312
1770.89	556.217
1770.07	586.513
1769.25	525.645
1768.43	540.746
1767.6	516.355
1766.78	555.747
1765.96	598.162
1765.13	546.451
1764.31	528.147
1763.49	528.057
1762.66	585.62
1761.84	576.419
1761.01	582.388
1760.19	554.995
1759.36	563.997
1758.54	579.061
1757.72	578.963
1756.89	527.343
1756.07	590.887
1755.24	536.253
1754.41	608.862
1753.59	584.53
1752.76	508.727
1751.94	560.111
1751.11	599.368
1750.29	556.894
1749.46	556.8
1748.63	574.859
1747.81	529.386
1746.98	553.492
1746.15	574.567
1745.33	595.634
1744.5	568.326
1743.67	519.869
1742.85	568.133
1742.02	519.693
1741.19	564.919
1740.36	555.762
1739.54	561.708
1738.71	618.982
1737.88	570.574
1737.05	609.716
1736.22	570.381
1735.39	552.18
1734.57	624.491
1733.74	621.368
1732.91	648.405
1732.08	630.203
1731.25	651.2
1730.42	623.961
1729.59	566.593
1728.76	554.444
1727.93	632.681
1727.1	617.513
1726.27	608.373
1725.44	587.191
1724.61	556.984
1723.78	586.991
1722.95	553.785
1722.12	592.81
1721.29	592.71
1720.46	604.642
1719.62	571.455
1718.79	619.472
1717.96	598.32
1717.13	586.194
1716.3	556.038
1715.47	640.087
1714.63	579.886
1713.8	654.89
1712.97	618.736
1712.14	573.584
1711.31	615.523
1710.47	567.385
1709.64	594.303
1708.81	582.198
1707.97	579.098
1707.14	588
1706.31	581.901
1705.47	575.804
1704.64	599.694
1703.81	575.608
1702.97	632.462
1702.14	587.4
1701.3	599.286
1700.47	620.155
1699.63	626.04
1698.8	640.908
1697.96	586.9
1697.13	625.721
1696.29	649.561
1695.46	577.622
1694.62	589.493
1693.79	655.214
1692.95	574.336
1692.12	592.183
1691.28	636.937
1690.44	618.89
1689.61	615.795
1688.77	681.444
1687.93	624.55
1687.1	621.456
1686.26	621.35
1685.42	603.324
1684.59	648.015
1683.75	671.79
1682.91	632.868
1682.07	644.699
1681.24	590.873
1680.4	647.463
1679.56	659.285
1678.72	611.45
1677.88	688.883
1677.05	655.967
1676.21	658.836
1675.37	628.917
1674.53	613.909
1673.69	598.907
1672.85	610.721
1672.01	634.446
1671.17	604.557
1670.33	652.095
1669.49	702.595
1668.65	607.224
1667.81	633.905
1666.97	699.26
1666.13	574.188
1665.29	669.275
1664.45	633.473
1663.61	639.312
1662.77	627.31
1661.93	668.819
1661.09	627.096
1660.25	632.932
1659.4	638.766
1658.56	706.979
1657.72	677.158
1656.88	644.378
1656.04	665.051
1655.19	667.906
1654.35	673.728
1653.51	646.906
1652.67	676.465
1651.82	640.752
1650.98	705.893
1650.14	685.015
1649.3	705.652
1648.45	708.496
1647.61	708.375
1646.77	693.437
1645.92	687.393
1645.08	705.05
1644.23	696.044
1643.39	728.5
1642.54	689.884
1641.7	654.242
1640.86	674.849
1640.01	728.002
1639.17	784.096
1638.32	683.378
1637.48	712.839
1636.63	662.443
1635.78	730.337
1634.94	676.998
1634.09	644.368
1633.25	709.275
1632.4	655.967
1631.56	726.758
1630.71	741.403
1629.86	711.743
1629.02	702.763
1628.17	746.927
1627.32	673.005
1626.47	752.574
1625.63	684.578
1624.78	758.217
1623.93	734.489
1623.09	719.617
1622.24	766.674
1621.39	722.319
1620.54	766.412
1619.69	783.964
1618.84	757.309
1618	768.964
1617.15	783.561
1616.3	862.948
1615.45	718.509
1614.6	842.043
1613.75	803.63
1612.9	782.89
1612.05	844.553
1611.2	865.004
1610.35	882.505
1609.5	926.472
1608.65	917.491
1607.8	926.155
1606.95	946.573
1606.1	946.411
1605.25	1052.04
1604.4	1034.23
1603.55	1045.8
1602.7	1145.49
1601.85	1230.46
1600.99	1512.11
1600.14	1673.32
1599.29	1946
1598.44	2259.67
1597.59	2361.98
1596.74	2490.65
1595.88	2399.3
1595.03	2237.59
1594.18	2137.51
1593.32	1814.67
1592.47	1673.67
1591.62	1471.17
1590.77	1377.15
1589.91	1242.15
1589.06	1215.58
1588.21	1165.58
1587.35	1080.47
1586.5	1153.47
1585.64	1085.95
1584.79	1100.4
1583.93	1111.91
1583.08	1170.23
1582.23	1140.78
1581.37	1181.53
1580.52	1163.78
1579.66	1172.35
1578.81	1034.77
1577.95	1107.65
1577.09	1063.63
1576.24	993.333
1575.38	978.557
1574.53	943.342
1573.67	931.5
1572.81	887.546
1571.96	890.313
1571.1	825.952
1570.24	863.744
1569.39	849.008
1568.53	892.618
1567.67	860.383
1566.82	828.158
1565.96	825.1
1565.1	784.148
1564.24	824.817
1563.39	894.612
1562.53	871.15
1561.67	923.435
1560.81	856.287
1559.95	835.756
1559.09	966.631
1558.23	937.355
1557.38	960.478
1556.52	942.852
1555.66	1012.52
1554.8	1000.71
1553.94	1093.61
1553.08	1055.62
1552.22	1008.91
1551.36	1037.81
1550.5	982.409
1549.64	1008.39
1548.78	912.338
1547.92	944.136
1547.06	897.501
1546.2	888.634
1545.34	894.288
1544.47	850.589
1543.61	833.027
1542.75	838.688
1541.89	853.051
1541.03	838.399
1540.17	791.846
1539.3	829.41
1538.44	817.669
1537.58	823.326
1536.72	799.996
1535.85	817.247
1534.99	840.286
1534.13	918.361
1533.27	903.72
1532.4	886.188
1531.54	894.722
1530.68	856.932
1529.81	845.207
1528.95	923.2
1528.08	931.722
1527.22	853.449
1526.36	833.054
1525.49	864.723
1524.63	783.61
1523.76	818.168
1522.9	800.683
1522.03	846.786
1521.17	843.75
1520.3	829.159
1519.44	831.905
1518.57	811.545
1517.7	869.156
1516.84	825.7
1515.97	808.238
1515.11	845.618
1514.24	799.303
1513.37	767.429
1512.51	865.372
1511.64	845.034
1510.77	905.443
1509.91	934.118
1509.04	925.309
1508.17	945.324
1507.3	1051.78
1506.44	979.57
1505.57	979.401
1504.7	970.592
1503.83	953.146
1502.96	895.4
1502.09	926.91
1501.23	872.066
1500.36	883.425
1499.49	883.273
1498.62	848.601
1497.75	885.844
1496.88	851.183
1496.01	876.912
1495.14	836.516
1494.27	882.357
1493.4	885.078
1492.53	873.433
1491.66	896.263
1490.79	933.446
1489.92	947.643
1489.05	913.025
1488.18	909.996
1487.31	912.709
1486.44	932.639
1485.56	926.739
1484.69	880.68
1483.82	926.419
1482.95	1012.29
1482.08	983.442
1481.21	966.071
1480.33	937.242
1479.46	945.677
1478.59	936.918
1477.72	988.32
1476.84	885.038
1475.97	1010.89
1475.1	956.312
1474.22	970.46
1473.35	1070.47
1472.48	975.847
1471.6	969.956
1470.73	1018.42
1469.85	1043.99
1468.98	1080.98
1468.11	1095.09
1467.23	1049.16
1466.36	1143.3
1465.48	1148.82
1464.61	1122.91
1463.73	1119.85
1462.86	1179.64
1461.98	1196.57
1461.11	1199.22
1460.23	1207.58
1459.35	1227.35
1458.48	1178.62
1457.6	1266.87
1456.73	1206.74
1455.85	1229.35
1454.97	1254.8
1454.1	1154.79
1453.22	1211.6
1452.34	1231.35
1451.46	1268.18
1450.59	1173.93
1449.71	1242.1
1448.83	1230.49
1447.95	1304.32
1447.08	1212.98
1446.2	1269.71
1445.32	1209.71
1444.44	1252.19
1443.56	1237.75
1442.68	1339.95
1441.81	1402.29
1440.93	1487.37
1440.05	1484.27
1439.17	1543.71
1438.29	1625.87
1437.41	1611.38
1436.53	1551.43
1435.65	1460.25
1434.77	1403.19
1433.89	1383.07
1433.01	1360.11
1432.13	1334.32
1431.25	1195
1430.37	1234.53
1429.48	1211.61
1428.6	1225.59
1427.72	1185.66
1426.84	1205.31
1425.96	1207.94
1425.08	1185.05
1424.19	1159.33
1423.31	1176.13
1422.43	1062.59
1421.55	1110.56
1420.67	1186.85
1419.78	1002.56
1418.9	1118.48
1418.02	1050.34
1417.13	1135.07
1416.25	1143.37
1415.37	1046.96
1414.48	1049.61
1413.6	1035.28
1412.71	972.883
1411.83	882.228
1410.95	879.248
1410.06	848.001
1409.18	833.723
1408.29	825.101
1407.41	870.16
1406.52	855.885
1405.64	850.088
1404.75	847.116
1403.87	872.378
1402.98	877.872
1402.1	843.852
1401.21	829.596
1400.32	832.273
1399.44	925.214
1398.55	902.49
1397.66	874.135
1396.78	882.441
1395.89	885.106
1395	870.86
1394.12	873.526
1393.23	876.192
1392.34	853.504
1391.45	856.172
1390.57	886.997
1389.68	861.504
1388.79	841.65
1387.9	847.132
1387.01	903.262
1386.12	877.784
1385.24	818.56
1384.35	880.291
1383.46	880.137
1382.57	919.344
1381.68	899.507
1380.79	904.971
1379.9	896.383
1379.01	851.275
1378.12	865.172
1377.23	884.681
1376.34	876.102
1375.45	856.297
1374.56	887.025
1373.67	889.676
1372.78	917.582
1371.89	864.116
1370.99	908.846
1370.1	936.734
1369.21	925.354
1368.32	1034.53
1367.43	930.637
1366.54	1020.16
1365.64	1022.78
1364.75	1078.64
1363.86	1095.26
1362.97	1131.47
1362.07	1234.88
1361.18	1150.68
1360.29	1105.69
1359.39	1080.31
1358.5	1066.13
1357.61	1051.95
1356.71	995.823
1355.82	942.511
1354.93	1003.86
1354.03	1006.48
1353.14	983.946
1352.24	871.982
1351.35	902.567
1350.45	829.769
1349.56	871.525
1348.66	851.822
1347.77	904.728
1346.87	887.819
1345.98	898.829
1345.08	834.481
1344.18	945.952
1343.29	951.367
1342.39	834.044
1341.5	925.933
1340.6	962.021
1339.7	950.701
1338.81	1003.5
1337.91	933.647
1337.01	905.618
1336.11	936.106
1335.22	1011.15
1334.32	997.05
1333.42	1033.07
1332.52	991.132
1331.63	913.018
1330.73	985.219
1329.83	982.264
1328.93	973.746
1328.03	954.104
1327.13	873.283
1326.23	978.796
1325.33	917.46
1324.43	914.52
1323.53	961.606
1322.64	961.438
1321.74	955.713
1320.84	966.657
1319.94	1058.14
1319.03	1071.84
1318.13	1052.21
1317.23	1057.58
1316.33	1060.17
1315.43	1140.46
1314.53	1115.29
1313.63	1084.58
1312.73	1064.97
1311.83	1070.33
1310.92	1097.87
1310.02	1072.73
1309.12	997.714
1308.22	1133.32
1307.32	1069.4
1306.41	1069.21
1305.51	1138.26
1304.61	1077.14
1303.71	1065.88
1302.8	1107.21
1301.9	1173.44
1301	1159.4
1300.09	1161.96
1299.19	1134.1
1298.28	1241.75
1297.38	1385.32
1296.48	1556.49
1295.57	1871.33
1294.67	1998.13
1293.76	2072.38
1292.86	1997.42
1291.95	1817.53
1291.05	1601.8
1290.14	1455.17
1289.24	1327.92
1288.33	1322.17
1287.42	1286.06
1286.52	1318.94
1285.61	1343.54
1284.71	1340.55
1283.8	1367.89
1282.89	1411.77
1281.99	1411.52
1281.08	1449.86
1280.17	1435.83
1279.26	1463.13
1278.36	1440.83
1277.45	1407.52
1276.54	1399.02
1275.63	1385
1274.72	1321.44
1273.82	1257.9
1272.91	1210.89
1272	1180.41
1271.09	1191.21
1270.18	1182.75
1269.27	1075.29
1268.36	1102.59
1267.45	1146.39
1266.54	1055.48
1265.64	1069.03
1264.73	1060.6
1263.82	1041.19
1262.91	1065.72
1261.99	1082.01
1261.08	1043.38
1260.17	1018.49
1259.26	1040.27
1258.35	1015.39
1257.44	1001.49
1256.53	1012.29
1255.62	943.539
1254.71	929.661
1253.79	943.207
1252.88	899.179
1251.97	890.798
1251.06	849.534
1250.15	849.385
1249.23	857.453
1248.32	854.563
1247.41	862.628
1246.49	807.716
1245.58	859.587
1244.67	755.427
1243.75	779.923
1242.84	798.939
1241.93	785.12
1241.01	823.273
1240.1	784.843
1239.18	853.059
1238.27	825.572
1237.35	858.224
1236.44	830.746
1235.53	803.277
1234.61	863.234
1233.69	846.694
1232.78	871.122
1231.86	830.014
1230.95	870.815
1230.03	837.909
1229.12	826.846
1228.2	878.539
1227.28	812.915
1226.37	859.137
1225.45	924.432
1224.53	883.372
1223.62	861.409
1222.7	869.433
1221.78	863.83
1220.86	877.3
1219.95	928.902
1219.03	896.055
1218.11	898.62
1217.19	922.965
1216.27	952.745
1215.35	830.103
1214.44	832.678
1213.52	810.765
1212.6	802.461
1211.68	807.759
1210.76	810.335
1209.84	742.223
1208.92	750.247
1208	752.832
1207.08	782.59
1206.16	760.717
1205.24	757.866
1204.32	746.868
1203.4	784.752
1202.48	700.451
1201.56	730.186
1200.64	743.626
1199.71	767.916
1198.79	740.651
1197.87	764.932
1196.95	783.781
1196.03	748.392
1195.1	761.816
1194.18	745.417
1193.26	813.039
1192.34	777.669
1191.41	747.731
1190.49	739.472
1189.57	793.506
1188.65	809.612
1187.72	806.761
1186.8	747.07
1185.87	798.357
1184.95	781.981
1184.03	760.2
1183.1	757.36
1182.18	724.774
1181.25	838.209
1180.33	792.103
1179.4	810.883
1178.48	791.822
1177.55	824.106
1176.63	850.975
1175.7	853.525
1174.78	861.476
1173.85	899.124
1172.92	874.668
1172	882.611
1171.07	882.454
1170.15	928.167
1169.22	930.7
1168.29	927.838
1167.36	968.124
1166.44	932.902
1165.51	849.167
1164.58	822.064
1163.65	832.697
1162.73	846.021
1161.8	805.464
1160.87	834.948
1159.94	762.092
1159.01	772.726
1158.08	804.892
1157.16	802.058
1156.23	820.753
1155.3	809.845
1154.37	804.322
1153.44	796.11
1152.51	801.347
1151.58	822.714
1150.65	811.815
1149.72	841.235
1148.79	819.589
1147.86	795.263
1146.93	819.298
1146	829.895
1145.07	883.453
1144.13	867.188
1143.2	885.824
1142.27	807.835
1141.34	780.858
1140.41	842.426
1139.48	818.135
1138.54	831.399
1137.61	841.977
1136.68	833.785
1135.75	838.998
1134.81	844.209
1133.88	860.136
1132.95	876.058
1132.01	993.76
1131.08	1127.49
1130.15	1175.49
1129.21	1239.53
1128.28	1335.67
1127.35	1324.73
1126.41	1327.17
1125.48	1249.35
1124.54	1104.69
1123.61	1008.22
1122.67	1029.43
1121.74	930.331
1120.8	906.11
1119.87	868.535
1118.93	863.036
1117.99	830.825
1117.06	822.665
1116.12	849.223
1115.19	851.742
1114.25	856.93
1113.31	931.512
1112.38	811.259
1111.44	848.468
1110.5	842.982
1109.56	813.493
1108.63	842.682
1107.69	786.541
1106.75	786.401
1105.81	834.236
1104.88	767.467
1103.94	740.687
1103	796.496
1102.06	799.018
1101.12	769.583
1100.18	806.72
1099.24	755.999
1098.3	833.048
1097.36	758.391
1096.42	808.806
1095.49	859.203
1094.55	797.88
1093.6	880.17
1092.66	781.643
1091.72	837.326
1090.78	853.123
1089.84	839.684
1088.9	799.683
1087.96	834.072
1087.02	831.268
1086.08	828.464
1085.14	862.83
1084.19	838.786
1083.25	891.715
1082.31	825.22
1081.37	862.214
1080.43	824.926
1079.48	904.339
1078.54	890.92
1077.6	869.553
1076.65	869.397
1075.71	893.093
1074.77	871.737
1073.82	882.178
1072.88	879.372
1071.93	842.139
1070.99	934.661
1070.05	900.079
1069.1	881.391
1068.16	857.416
1067.21	952.515
1066.27	978.799
1065.32	1095
1064.38	1110.67
1063.43	1197.72
1062.49	1305.89
1061.54	1305.66
1060.59	1281.65
1059.65	1255
1058.7	1051.37
1057.75	1059.1
1056.81	1000.82
1055.86	921.432
1054.91	892.231
1053.97	823.45
1053.02	854.969
1052.07	828.433
1051.12	852.025
1050.18	843.961
1049.23	893.911
1048.28	906.933
1047.33	883.047
1046.38	822.273
1045.43	861.651
1044.48	821.979
1043.54	840.27
1042.59	876.991
1041.64	782.041
1040.69	763.472
1039.74	815.98
1038.79	744.777
1037.84	799.9
1036.89	760.295
1035.94	723.335
1034.99	744.244
1034.04	746.74
1033.08	796.555
1032.13	707.046
1031.18	804.154
1030.23	788.245
1029.28	727.683
1028.33	801.096
1027.37	743.179
1026.42	795.558
1025.47	748.163
1024.52	784.774
1023.57	724.277
1022.61	747.761
1021.66	789.599
1020.71	771.098
1019.75	742.114
1018.8	713.141
1017.85	791.654
1016.89	757.441
1015.94	757.305
1014.98	717.87
1014.03	749.175
1013.07	775.231
1012.12	788.184
1011.16	743.536
1010.21	759.108
1009.25	766.823
1008.3	764.069
1007.34	805.791
1006.39	742.869
1005.43	734.89
1004.48	708.61
1003.52	784.299
1002.56	729.267
1001.61	744.816
1000.65	739.457
999.693	783.736
998.736	723.519
997.778	765.174
996.821	749.37
995.863	749.236
994.905	689.069
993.947	722.87
992.989	712.304
992.031	699.132
991.072	756.388
990.114	727.567
989.155	748.294
988.196	696.023
987.237	727.175
986.277	771.344
985.318	643.54
984.358	750.227
983.398	755.302
982.438	710.897
981.478	726.391
980.517	726.26
979.557	718.322
978.596	780.644
977.635	788.309
976.674	736.143
975.713	728.209
974.751	772.282
973.79	769.544
972.828	725.216
971.866	782.261
970.904	758.735
969.942	758.598
968.979	774.047
968.017	734.952
967.054	817.909
966.091	737.284
965.128	763.107
964.164	734.424
963.201	749.859
962.237	731.565
961.273	783.308
960.309	814.286
959.345	868.589
958.381	896.948
957.416	909.746
956.451	969.184
955.486	963.828
954.521	945.521
953.556	875.421
952.591	890.8
951.625	823.324
950.659	846.473
949.693	898.083
948.727	784.064
947.761	770.987
946.794	778.608
945.828	801.744
944.861	721.44
943.894	798.87
942.927	765.122
941.959	762.4
940.992	795.854
940.024	749.208
939.056	730.992
938.088	728.277
937.12	764.295
936.152	758.994
935.183	764.02
934.214	763.882
933.246	740.522
932.276	719.75
931.307	750.572
930.338	773.646
929.368	739.988
928.398	773.367
927.428	724.256
926.458	744.741
925.488	749.76
924.517	808.873
923.547	757.216
922.576	811.156
921.605	733.771
920.634	797.993
919.662	769.538
918.691	746.24
917.719	807.851
916.747	781.982
915.775	871.856
914.803	766.272
913.831	861.257
912.858	801.981
911.885	760.717
910.912	758.01
909.939	760.442
908.966	793.696
907.992	778.144
907.019	808.815
906.045	762.459
905.071	777.722
904.097	803.244
903.122	762.046
902.148	782.431
901.173	823.328
900.198	805.228
899.223	779.443
898.248	802.373
897.273	815.043
896.297	786.707
895.321	822.435
894.345	847.902
893.369	788.842
892.393	816.867
891.416	796.237
890.44	821.691
889.463	752.44
888.486	818.835
887.509	775.194
886.531	749.474
885.554	808.16
884.576	769.659
883.598	812.981
882.62	782.161
881.642	769.241
880.664	779.322
879.685	791.954
878.706	830.124
877.727	852.958
876.748	743.011
875.769	842.438
874.789	781.028
873.81	819.165
872.83	859.84
871.85	806.113
870.87	803.417
869.889	798.171
868.909	790.378
867.928	856.512
866.947	797.737
865.966	779.755
864.985	856.046
864.003	799.851
863.022	809.893
862.04	817.385
861.058	801.962
860.076	801.816
859.094	816.941
858.111	821.881
857.128	775.939
856.146	737.644
855.162	841.779
854.179	844.169
853.196	826.221
852.212	831.154
851.229	833.545
850.245	825.771
849.261	835.782
848.276	825.471
847.292	835.479
846.307	840.405
845.322	769.174
844.337	756.344
843.352	834.872
842.367	822.035
841.381	839.643
840.396	793.838
839.41	829.195
838.424	798.62
837.437	813.684
836.451	760.314
835.464	805.787
834.477	813.241
833.49	780.164
832.503	797.75
831.516	827.99
830.528	825.308
829.541	802.377
828.553	817.416
827.565	860.281
826.577	839.887
825.588	776.501
824.6	781.417
823.611	814.144
822.622	824.108
821.633	831.541
820.643	790.957
819.654	823.659
818.664	846.244
817.674	863.769
816.684	858.562
815.694	772.565
814.704	785.046
813.713	832.855
812.723	812.517
811.732	814.892
810.741	807.176
809.749	799.463
808.758	849.748
807.766	824.383
806.774	773.821
805.782	786.28
804.79	803.775
803.798	780.956
802.805	793.407
801.812	858.738
800.819	838.439
799.826	818.147
798.833	865.82
797.84	830.432
796.846	812.668
795.852	847.738
794.858	804.827
793.864	832.341
792.87	812.076
791.875	824.497
790.88	791.674
789.885	821.683
788.89	793.898
787.895	751.051
786.9	801.142
785.904	838.661
784.908	800.85
783.912	775.604
782.916	755.386
781.92	797.903
780.923	830.37
779.926	867.842
778.929	825.052
777.932	799.828
776.935	822.244
775.938	792.017
774.94	826.955
773.942	922.012
772.944	894.289
771.946	846.539
770.948	883.946
769.949	821.194
768.95	838.566
767.951	875.954
766.952	835.757
765.953	855.619
764.954	880.477
763.954	790.283
762.954	842.648
761.954	802.495
760.954	767.355
759.954	784.708
758.953	839.534
757.952	836.882
756.951	816.748
755.95	844.068
754.949	838.92
753.948	811.307
752.946	843.606
751.944	811.011
750.942	825.832
749.94	855.615
748.937	872.917
747.935	897.694
746.932	865.119
745.929	902.351
744.926	887.232
743.923	879.595
742.919	891.89
741.916	836.928
740.912	884.093
739.908	893.891
738.903	861.364
737.899	901.031
736.894	893.4
735.89	875.82
734.885	810.98
733.88	863.063
732.874	867.878
731.869	890.096
730.863	835.245
729.857	869.887
728.851	879.668
727.845	884.475
726.838	856.989
725.832	861.799
724.825	923.719
723.818	906.171
722.811	933.31
721.804	930.657
720.796	965.225
719.788	932.797
718.78	902.861
717.772	890.296
716.764	905.01
715.756	867.658
714.747	954.249
713.738	897.078
712.729	934.078
711.72	849.682
710.71	861.91
709.701	874.133
708.691	901.207
707.681	905.993
706.671	928.101
705.661	878.441
704.65	888.176
703.64	885.539
702.629	845.807
701.618	927.25
700.606	902.357
699.595	852.757
698.583	857.543
697.572	864.798
696.56	852.287
695.547	911.409
694.535	908.772
693.523	891.322
692.51	888.69
691.497	863.846
690.484	903.17
689.471	964.684
688.457	905.305
687.443	868.144
686.43	927.165
685.416	917.133
684.401	889.85
683.387	916.796
682.372	936.34
681.358	891.823
680.343	935.996
679.327	1009.7
678.312	1014.44
677.297	997.024
676.281	1011.61
675.265	989.275
674.249	952.187
673.233	937.252
672.216	934.62
671.2	924.612
670.183	1020.33
669.166	975.893
668.148	911.813
667.131	973.077
666.113	950.787
665.096	1009.56
664.078	891.495
663.06	960.084
662.041	984.457
661.023	959.73
660.004	981.64
658.985	1040.35
657.966	991.092
656.947	956.571
655.927	985.822
654.908	1005.26
653.888	980.557
652.868	997.533
651.848	997.349
650.827	1009.42
649.807	1006.78
648.786	1013.94
647.765	1028.45
646.744	1052.74
645.723	1081.92
644.701	1067.04
643.679	1035.03
642.657	1054.41
641.635	1041.99
640.613	1132.28
639.591	1124.73
638.568	1151.42
637.545	1175.65
636.522	1219.42
635.499	1153.22
634.475	1214.08
633.452	1211.42
632.428	1142.82
631.404	1232.94
630.38	1293.74
629.356	1215.4
628.331	1217.62
627.306	1300.34
626.281	1268.39
625.256	1348.64
624.231	1319.13
623.205	1321.32
622.18	1401.52
621.154	1411
620.128	1437.55
619.102	1483.57
618.075	1475.99
617.049	1475.71
616.022	1507.09
614.995	1482.47
613.968	1479.76
612.94	1554.92
611.913	1518.14
610.885	1515.43
609.857	1588.11
608.829	1512.44
607.8	1480.55
606.772	1521.6
605.743	1494.59
604.714	1494.31
603.685	1579.06
602.656	1474.33
601.626	1503.2
600.597	1481.07
599.567	1441.95
598.537	1410.13
597.507	1438.99
596.476	1378.07
595.446	1380.24
594.415	1355.74
593.384	1270.62
592.353	1301.9
591.321	1294.38
590.29	1286.87
589.258	1213.95
588.226	1252.48
587.194	1225.61
586.162	1225.38
585.129	1159.78
584.096	1174.09
583.063	1171.45
582.03	1195.43
580.997	1212.15
579.964	1216.76
578.93	1143.98
577.896	1107.5
576.862	1174.99
575.828	1148.18
574.793	1126.22
573.759	1116.34
572.724	1154.79
571.689	1033.8
570.654	1086.74
569.618	1055.15
568.583	1088.75
567.547	1023.38
566.511	1085.94
565.475	1030.24
564.438	1054.17
563.402	1034.68
562.365	1024.85
561.328	1017.42
560.291	1010
559.254	1058.02
558.216	1016.86
557.178	1050.4
556.141	1023.71
555.102	1045.19
554.064	1020.92
553.026	1059.25
551.987	1006.1
550.948	960.189
549.909	993.695
548.87	976.671
547.83	1070.29
546.791	993.142
545.751	997.766
544.711	944.697
543.671	1031.04
542.63	973.181
541.59	1023.45
540.549	1016.06
539.508	1068.7
538.467	1044.49
537.425	998.685
536.384	972.097
535.342	986.315
534.3	1002.93
533.258	973.954
532.216	995.36
531.173	1026.35
530.13	1002.18
529.088	1035.56
528.044	961.066
527.001	970.473
525.958	1023
524.914	974.903
523.87	1027.41
522.826	1027.22
521.782	1082.09
520.737	1081.89
519.693	1146.3
518.648	1098.23
517.603	1100.42
516.557	1088.26
515.512	1033.06
514.466	994.609
513.42	1008.77
512.374	996.629
511.328	951.042
510.282	948.476
509.235	1041.46
508.188	969.617
507.141	986.151
506.094	959.706
505.047	952.367
503.999	980.827
502.951	975.872
501.903	990.004
500.855	1004.13
499.807	996.789
