3200.66	92.6181
3200.06	84.1982
3199.47	67.3484
3198.87	58.9209
3198.28	100.992
3197.69	79.94
3197.09	67.3077
3196.5	71.5036
3195.9	75.6983
3195.31	88.3013
3194.71	96.6963
3194.12	79.8675
3193.52	92.4642
3192.93	75.6411
3192.33	54.6214
3191.74	75.6182
3191.14	88.2079
3190.55	109.193
3189.95	71.3848
3189.36	92.3663
3188.76	109.144
3188.17	146.902
3187.57	88.1279
3186.97	79.7227
3186.38	92.2965
3185.78	67.1146
3185.19	75.4925
3184.59	46.1273
3183.99	79.6624
3183.4	96.4188
3182.8	100.596
3182.2	75.4354
3181.61	96.375
3181.01	71.2229
3180.41	100.535
3179.82	62.8247
3179.22	87.9413
3178.62	75.3669
3178.03	117.22
3177.43	104.645
3176.83	96.2584
3176.23	108.797
3175.64	71.126
3175.04	79.4817
3174.44	87.8349
3173.84	54.3657
3173.25	50.1762
3172.65	87.795
3172.05	108.682
3171.45	83.5889
3170.85	96.1127
3170.26	146.236
3169.66	137.859
3169.06	108.6
3168.46	96.0545
3167.86	100.216
3167.26	108.55
3166.66	133.58
3166.06	75.1275
3165.47	146.059
3164.87	104.312
3164.27	83.4371
3163.67	54.2259
3163.07	54.2177
3162.47	87.5691
3161.87	95.8945
3161.27	95.8799
3160.67	87.5293
3160.07	125.023
3159.47	100.003
3158.87	91.6556
3158.27	83.3107
3157.67	70.8033
3157.07	91.614
3156.47	83.2728
3155.87	99.9122
3155.27	58.2733
3154.67	70.7497
3154.07	141.478
3153.46	87.3701
3152.86	79.0372
3152.26	91.5029
3151.66	116.441
3151.06	74.8433
3150.46	120.563
3149.86	91.4473
3149.26	132.994
3148.65	87.2642
3148.05	116.335
3147.45	78.9293
3146.85	107.992
3146.25	107.976
3145.64	87.198
3145.04	87.1847
3144.44	103.776
3143.84	145.264
3143.24	95.4446
3142.63	112.027
3142.03	95.4156
3141.43	120.288
3140.82	99.5339
3140.22	99.5187
3139.62	87.0657
3139.02	91.1978
3138.41	91.184
3137.81	116.035
3137.21	58.0085
3136.6	99.4281
3136	99.413
3135.4	120.106
3134.79	136.651
3134.19	78.6661
3133.58	107.632
3132.98	91.0594
3132.38	132.43
3131.77	107.583
3131.17	99.2922
3130.56	91.004
3129.96	103.398
3129.35	132.329
3128.75	119.905
3128.14	99.2168
3127.54	144.669
3126.93	132.249
3126.33	115.7
3125.72	115.683
3125.12	128.058
3124.51	128.038
3123.91	111.5
3123.3	119.741
3122.7	165.135
3122.09	119.705
3121.49	86.6696
3120.88	123.795
3120.27	123.776
3119.67	107.256
3119.06	86.6169
3118.46	98.9757
3117.85	123.701
3117.24	86.5774
3116.64	103.053
3116.03	90.6725
3115.42	94.7796
3114.82	131.847
3114.21	86.5116
3113.6	90.6174
3113	102.959
3112.39	119.414
3111.78	74.1077
3111.17	107.028
3110.57	98.7801
3109.96	123.456
3109.35	148.125
3108.74	143.989
3108.14	111.06
3107.53	115.156
3106.92	131.587
3106.31	127.455
3105.7	164.433
3105.1	119.196
3104.49	98.6299
3103.88	98.6148
3103.27	127.358
3102.66	127.339
3102.05	114.998
3101.44	123.193
3100.84	102.646
3100.23	139.577
3099.62	114.928
3099.01	94.3908
3098.4	139.513
3097.79	65.6432
3097.18	135.368
3096.57	151.754
3095.96	155.831
3095.35	123.006
3094.74	163.983
3094.13	147.562
3093.52	151.638
3092.91	131.126
3092.3	131.106
3091.69	122.893
3091.08	126.971
3090.47	106.475
3089.86	139.216
3089.25	147.382
3088.64	106.427
3088.03	130.967
3087.42	77.7495
3086.81	81.8291
3086.19	102.271
3085.58	143.157
3084.97	85.8813
3084.36	106.313
3083.75	73.5901
3083.14	114.456
3082.53	130.787
3081.91	138.94
3081.3	134.833
3080.69	126.642
3080.08	110.284
3079.47	102.099
3078.85	134.751
3078.24	142.895
3077.63	138.792
3077.02	187.748
3076.4	159.153
3075.79	159.129
3075.18	163.185
3074.57	138.686
3073.95	101.959
3073.34	118.255
3072.73	134.545
3072.11	134.525
3071.5	130.428
3070.89	130.408
3070.27	138.538
3069.66	142.59
3069.05	171.082
3068.43	166.983
3067.82	191.391
3067.2	162.861
3066.59	154.694
3065.98	146.53
3065.36	150.577
3064.75	219.728
3064.13	158.668
3063.52	138.305
3062.9	138.284
3062.29	174.862
3061.67	170.769
3061.06	162.612
3060.44	138.199
3059.83	199.139
3059.21	158.474
3058.6	166.576
3057.98	146.239
3057.37	166.525
3056.75	158.378
3056.14	154.293
3055.52	113.672
3054.9	129.891
3054.29	154.222
3053.67	101.446
3053.06	162.29
3052.44	150.095
3051.82	166.296
3051.21	137.883
3050.59	141.917
3049.97	162.165
3049.36	194.569
3048.74	170.222
3048.12	190.457
3047.51	170.17
3046.89	194.45
3046.27	157.966
3045.65	194.39
3045.04	206.508
3044.42	157.894
3043.8	133.582
3043.18	137.609
3042.57	141.635
3041.95	161.843
3041.33	153.728
3040.71	214.377
3040.09	238.609
3039.48	190.049
3038.86	169.805
3038.24	169.779
3037.62	157.628
3037	145.481
3036.38	153.539
3035.76	157.556
3035.14	137.335
3034.53	185.778
3033.91	161.522
3033.29	161.497
3032.67	201.84
3032.05	169.52
3031.43	153.351
3030.81	149.293
3030.19	197.682
3029.57	189.584
3028.95	209.721
3028.33	169.364
3027.71	153.211
3027.09	161.25
3026.47	141.072
3025.85	165.23
3025.23	145.058
3024.61	145.036
3023.99	189.323
3023.37	169.156
3022.75	144.969
3022.13	181.184
3021.5	165.053
3020.88	165.028
3020.26	209.271
3019.64	160.953
3019.02	156.905
3018.4	124.701
3017.78	180.989
3017.15	160.855
3016.53	152.788
3015.91	196.987
3015.29	184.898
3014.67	164.775
3014.04	164.75
3013.42	180.795
3012.8	216.921
3012.18	164.674
3011.56	180.712
3010.93	180.684
3010.31	172.627
3009.69	168.587
3009.06	172.574
3008.44	144.459
3007.82	172.521
3007.19	184.529
3006.57	164.447
3005.95	204.524
3005.32	200.483
3004.7	140.317
3004.08	156.329
3003.45	224.438
3002.83	224.403
3002.21	212.349
3001.58	232.346
3000.96	188.252
3000.33	152.18
2999.71	192.198
2999.08	212.186
2998.46	176.127
2997.84	208.119
2997.21	188.078
2996.59	176.046
2995.96	196.021
2995.34	179.992
2994.71	179.964
2994.09	183.935
2993.46	271.863
2992.83	203.866
2992.21	187.847
2991.58	223.784
2990.96	215.758
2990.33	199.746
2989.71	219.686
2989.08	179.716
2988.45	175.695
2987.83	175.668
2987.2	203.584
2986.58	235.482
2985.95	215.493
2985.32	239.4
2984.7	175.533
2984.07	175.506
2983.44	199.408
2982.82	215.328
2982.19	207.321
2981.56	187.357
2980.93	227.185
2980.31	235.121
2979.68	215.162
2979.05	235.048
2978.42	203.146
2977.8	199.132
2977.17	282.724
2976.54	211.015
2975.91	242.829
2975.28	226.871
2974.66	258.673
2974.03	294.444
2973.4	262.572
2972.77	246.62
2972.14	246.582
2971.51	266.427
2970.88	234.579
2970.26	254.419
2969.63	258.355
2969	286.133
2968.37	190.726
2967.74	226.453
2967.11	214.501
2966.48	258.156
2965.85	313.71
2965.22	289.84
2964.59	265.976
2963.96	289.75
2963.33	269.863
2962.7	261.885
2962.07	289.617
2961.44	297.505
2960.81	265.731
2960.18	257.759
2959.55	241.859
2958.92	301.287
2958.29	265.567
2957.66	277.415
2957.03	273.41
2956.4	328.834
2955.76	305.016
2955.13	289.126
2954.5	308.882
2953.87	217.768
2953.24	304.828
2952.61	348.321
2951.98	296.819
2951.34	356.128
2950.71	280.902
2950.08	296.681
2949.45	296.636
2948.82	253.09
2948.18	328.176
2947.55	324.172
2946.92	280.642
2946.29	292.455
2945.65	324.022
2945.02	351.628
2944.39	319.972
2943.76	327.822
2943.12	343.567
2942.49	315.875
2941.86	367.148
2941.22	347.356
2940.59	382.822
2939.96	390.654
2939.32	410.321
2938.69	374.755
2938.05	425.971
2937.42	390.413
2936.79	421.897
2936.15	441.544
2935.52	441.475
2934.88	472.936
2934.25	397.993
2933.61	413.692
2932.98	484.535
2932.34	425.38
2931.71	448.943
2931.08	389.811
2930.44	480.299
2929.81	397.563
2929.17	432.923
2928.53	397.441
2927.9	460.331
2927.26	424.855
2926.63	412.99
2925.99	467.983
2925.36	432.522
2924.72	499.289
2924.08	444.181
2923.45	436.252
2922.81	447.973
2922.18	443.975
2921.54	459.62
2920.9	463.477
2920.27	404.498
2919.63	486.893
2918.99	506.447
2918.36	482.817
2917.72	463.119
2917.08	533.682
2916.44	490.44
2915.81	498.21
2915.17	451.066
2914.53	501.978
2913.9	501.901
2913.26	525.346
2912.62	486.066
2911.98	478.152
2911.34	513.346
2910.71	525.021
2910.07	532.775
2909.43	575.778
2908.79	516.945
2908.15	536.443
2907.51	512.87
2906.88	606.737
2906.24	594.902
2905.6	567.417
2904.96	579.067
2904.32	500.738
2903.68	559.331
2903.04	563.155
2902.4	602.17
2901.76	535.614
2901.12	574.621
2900.48	594.074
2899.84	562.72
2899.2	589.983
2898.56	574.265
2897.92	628.86
2897.28	558.466
2896.64	538.856
2896	663.705
2895.36	573.821
2894.72	558.12
2894.08	608.764
2893.44	593.063
2892.8	635.884
2892.16	577.278
2891.52	631.787
2890.88	616.092
2890.24	627.693
2889.59	557.429
2888.95	576.831
2888.31	607.916
2887.67	576.652
2887.03	650.581
2886.39	662.165
2885.74	677.641
2885.1	697.005
2884.46	720.257
2883.82	689.004
2883.18	677.221
2882.53	681.007
2881.89	797.628
2881.25	758.601
2880.6	739.036
2879.96	832.258
2879.32	867.126
2878.68	863.103
2878.03	847.42
2877.39	812.309
2876.75	913.22
2876.1	819.828
2875.46	738.12
2874.82	765.195
2874.17	776.727
2873.53	695.063
2872.88	698.837
2872.24	597.802
2871.6	663.69
2870.95	686.87
2870.31	647.964
2869.66	651.743
2869.02	612.853
2868.37	628.271
2867.73	639.806
2867.08	686.231
2866.44	670.619
2865.79	713.149
2865.15	689.787
2864.5	635.436
2863.86	650.833
2863.21	646.859
2862.57	623.521
2861.92	646.658
2861.28	665.915
2860.63	603.876
2859.98	638.616
2859.34	661.736
2858.69	708.063
2858.05	657.662
2857.4	684.635
2856.75	657.457
2856.11	657.355
2855.46	827.366
2854.81	742.194
2854.17	734.349
2853.52	730.37
2852.87	710.938
2852.23	706.964
2851.58	745.48
2850.93	756.951
2850.28	729.803
2849.64	776.019
2848.99	837.662
2848.34	779.638
2847.69	903.004
2847.05	837.271
2846.4	844.857
2845.75	779.153
2845.1	790.602
2844.45	871.455
2843.8	817.344
2843.16	832.636
2842.51	805.527
2841.86	836.231
2841.21	759.041
2840.56	855.233
2839.91	820.434
2839.26	762.538
2838.61	696.959
2837.96	639.101
2837.31	623.604
2836.66	638.902
2836.01	608.017
2835.36	638.703
2834.72	523.194
2834.07	542.344
2833.42	534.568
2832.76	496.033
2832.11	445.976
2831.46	480.502
2830.81	511.175
2830.16	434.239
2829.51	414.96
2828.86	437.946
2828.21	457.083
2827.56	433.969
2826.91	426.222
2826.26	429.994
2825.61	391.541
2824.96	410.67
2824.3	418.281
2823.65	379.848
2823	375.952
2822.35	421.922
2821.7	387.34
2821.04	391.115
2820.39	371.884
2819.74	367.993
2819.09	383.267
2818.44	337.222
2817.78	360.158
2817.13	413.734
2816.48	402.179
2815.83	405.946
2815.17	344.618
2814.52	394.334
2813.87	329.199
2813.21	421.002
2812.56	352.056
2811.91	382.61
2811.25	340.47
2810.6	302.168
2809.95	359.485
2809.29	336.487
2808.64	370.843
2807.98	359.317
2807.33	359.261
2806.68	328.635
2806.02	355.329
2805.37	443.136
2804.71	408.691
2804.06	374.257
2803.4	374.199
2802.75	374.14
2802.09	347.362
2801.44	408.373
2800.78	415.941
2800.13	392.984
2799.47	350.96
2798.82	373.79
2798.16	316.528
2797.51	324.105
2796.85	404.115
2796.19	392.616
2795.54	377.31
2794.88	362.009
2794.23	365.762
2793.57	346.658
2792.91	346.604
2792.26	373.208
2791.6	357.919
2790.94	342.635
2790.29	403.485
2789.63	414.839
2788.97	331.058
2788.32	369.053
2787.66	372.8
2787	334.707
2786.34	395.501
2785.69	395.439
2785.03	467.61
2784.37	467.537
2783.71	410.456
2783.06	387.592
2782.4	360.936
2781.74	387.471
2781.08	413.998
2780.42	394.945
2779.76	372.102
2779.11	421.396
2778.45	413.739
2777.79	406.084
2777.13	390.842
2776.47	368.017
2775.81	424.861
2775.15	371.695
2774.49	428.52
2773.83	420.87
2773.17	409.431
2772.51	416.948
2771.86	371.405
2771.2	386.503
2770.54	416.752
2769.88	382.595
2769.22	409.047
2768.56	378.688
2767.9	393.774
2767.23	439.141
2766.57	405.006
2765.91	363.313
2765.25	374.608
2764.59	393.466
2763.93	431.232
2763.27	431.164
2762.61	434.879
2761.95	449.934
2761.29	366.696
2760.63	419.555
2759.96	427.048
2759.3	404.31
2758.64	411.802
2757.98	392.851
2757.32	449.442
2756.65	388.952
2755.99	422.872
2755.33	396.38
2754.67	479.356
2754.01	471.733
2753.34	430.153
2752.68	433.859
2752.02	456.423
2751.35	437.494
2750.69	463.822
2750.03	452.439
2749.37	441.059
2748.7	489.988
2748.04	471.069
2747.38	388.1
2746.71	418.178
2746.05	425.646
2745.38	448.177
2744.72	433.044
2744.06	470.626
2743.39	496.903
2742.73	429.077
2742.06	462.879
2741.4	421.417
2740.73	474.02
2740.07	443.854
2739.41	421.219
2738.74	428.673
2738.08	458.684
2737.41	409.743
2736.75	458.54
2736.08	473.5
2735.41	428.337
2734.75	458.324
2734.08	405.666
2733.42	465.692
2732.75	503.169
2732.09	473.054
2731.42	514.272
2730.75	499.179
2730.09	532.874
2729.42	450.245
2728.76	483.938
2728.09	423.848
2727.42	476.285
2726.76	468.711
2726.09	532.373
2725.42	494.804
2724.75	539.701
2724.09	550.859
2723.42	505.811
2722.75	457.032
2722.09	453.214
2721.42	591.708
2720.75	483.027
2720.08	539.109
2719.41	509.078
2718.75	550.167
2718.08	531.371
2717.41	467.682
2716.74	463.868
2716.07	437.613
2715.41	557.215
2714.74	459.911
2714.07	493.485
2713.4	470.98
2712.73	504.542
2712.06	485.779
2711.39	496.911
2710.72	485.626
2710.05	556.515
2709.38	534.021
2708.71	515.268
2708.04	421.856
2707.37	496.443
2706.7	496.365
2706.03	511.213
2705.36	462.631
2704.69	481.21
2704.02	469.945
2703.35	466.142
2702.68	484.711
2702.01	507.003
2701.34	462.195
2700.67	465.849
2700	503.038
2699.33	491.782
2698.66	540.13
2697.99	461.831
2697.32	495.274
2696.64	480.303
2695.97	461.614
2695.3	521.095
2694.63	584.279
2693.96	468.838
2693.29	424.12
2692.61	453.811
2691.94	516.966
2691.27	453.668
2690.6	483.341
2689.92	501.852
2689.25	509.207
2688.58	520.275
2687.91	516.478
2687.23	471.816
2686.56	456.883
2685.89	449.384
2685.21	467.879
2684.54	519.784
2683.87	523.415
2683.19	489.928
2682.52	534.383
2681.85	508.326
2681.17	497.116
2680.5	504.456
2679.82	508.086
2679.15	500.589
2678.48	530.171
2677.8	511.553
2677.13	570.773
2676.45	537.332
2675.78	559.478
2675.1	485.298
2674.43	522.262
2673.75	529.586
2673.08	507.286
2672.4	481.29
2671.73	470.109
2671.05	555.16
2670.37	462.56
2669.7	480.987
2669.02	499.408
2668.35	510.425
2667.67	454.872
2667	495.474
2666.32	558.245
2665.64	517.496
2664.97	535.894
2664.29	550.59
2663.61	572.671
2662.94	528.252
2662.26	550.33
2661.58	557.629
2660.91	516.925
2660.23	524.227
2659.55	520.453
2658.87	557.277
2658.2	549.809
2657.52	523.896
2656.84	593.902
2656.16	516.355
2655.49	542.087
2654.81	483.008
2654.13	534.543
2653.45	468.112
2652.77	519.633
2652.09	574.822
2651.42	559.995
2650.74	512.02
2650.06	508.256
2649.38	515.54
2648.7	489.686
2648.02	537.465
2647.34	577.868
2646.66	603.537
2645.98	544.57
2645.3	515.052
2644.62	503.936
2643.94	522.245
2643.26	525.84
2642.58	525.757
2641.9	533.026
2641.22	510.889
2640.54	554.907
2639.86	565.842
2639.18	540.036
2638.5	576.682
2637.82	558.229
2637.14	528.764
2636.46	532.352
2635.78	528.597
2635.1	576.227
2634.42	532.1
2633.73	524.678
2633.05	550.274
2632.37	535.516
2631.69	572.104
2631.01	513.346
2630.33	527.929
2629.64	546.174
2628.96	494.777
2628.28	578.981
2627.6	501.948
2626.91	545.828
2626.23	582.369
2625.55	527.345
2624.87	567.539
2624.18	607.719
2623.5	563.699
2622.82	585.568
2622.13	556.202
2621.45	592.7
2620.77	559.684
2620.08	577.883
2619.4	530.252
2618.72	552.106
2618.03	588.576
2617.35	551.931
2616.67	592.044
2615.98	580.988
2615.3	526.095
2614.61	613.68
2613.93	679.324
2613.24	664.61
2612.56	554.971
2611.87	620.593
2611.19	569.395
2610.5	616.747
2609.82	554.619
2609.13	550.883
2608.45	561.739
2607.76	638.239
2607.08	568.854
2606.39	565.118
2605.71	601.482
2605.02	612.321
2604.33	586.715
2603.65	582.978
2602.96	553.741
2602.27	535.441
2601.59	571.775
2600.9	582.609
2600.21	582.516
2599.53	564.223
2598.84	585.971
2598.15	614.99
2597.47	574.87
2596.78	647.536
2596.09	571.051
2595.41	600.054
2594.72	643.592
2594.03	603.499
2593.34	567.054
2592.65	566.964
2591.97	635.916
2591.28	653.982
2590.59	646.612
2589.9	573.868
2589.21	566.514
2588.52	617.257
2587.84	595.377
2587.15	656.989
2586.46	635.11
2585.77	566.065
2585.08	642.164
2584.39	692.847
2583.7	544.034
2583.01	612.848
2582.32	580.119
2581.63	551.026
2580.94	569.061
2580.25	565.347
2579.56	579.751
2578.87	594.15
2578.18	637.523
2577.49	615.692
2576.8	633.7
2576.11	637.22
2575.42	579.199
2574.73	608.062
2574.04	622.441
2573.35	575.305
2572.66	651.185
2571.97	629.379
2571.28	564.181
2570.58	621.947
2569.89	658.002
2569.2	589.216
2568.51	668.636
2567.82	697.439
2567.13	610.614
2566.43	574.391
2565.74	606.808
2565.05	646.436
2564.36	581.339
2563.66	628.18
2562.97	620.86
2562.28	646.025
2561.59	588.187
2560.89	660.252
2560.2	678.183
2559.51	660.042
2558.81	695.999
2558.12	670.649
2557.43	634.491
2556.73	666.831
2556.04	619.874
2555.35	612.569
2554.65	598.06
2553.96	637.589
2553.26	561.854
2552.57	622.982
2551.88	655.287
2551.18	557.986
2550.49	655.079
2549.79	690.962
2549.1	622.487
2548.4	625.985
2547.71	679.841
2547.01	614.997
2546.32	676.029
2545.62	639.968
2544.93	672.219
2544.23	736.807
2543.53	704.348
2542.84	700.642
2542.14	617.904
2541.45	689.644
2540.75	660.803
2540.05	599.655
2539.36	592.379
2538.66	592.285
2537.97	674.739
2537.27	699.75
2536.57	624.293
2535.88	670.829
2535.18	695.829
2534.48	591.719
2533.78	681.265
2533.09	688.327
2532.39	670.295
2531.69	677.356
2530.99	677.248
2530.3	637.729
2529.6	687.778
2528.9	687.669
2528.2	662.492
2527.5	708.932
2526.81	701.659
2526.11	719.444
2525.41	712.172
2524.71	694.168
2524.01	719.1
2523.31	729.717
2522.61	650.918
2521.91	686.573
2521.21	636.409
2520.52	686.354
2519.82	721.987
2519.12	704.003
2518.42	646.722
2517.72	664.481
2517.02	753.673
2516.32	667.841
2515.62	660.593
2514.92	646.206
2514.22	653.243
2513.52	685.26
2512.82	702.993
2512.11	617.251
2511.41	752.712
2510.71	706.223
2510.01	677.581
2509.31	684.604
2508.61	723.711
2507.91	695.079
2507.21	709.224
2506.5	691.294
2505.8	684.058
2505.1	712.446
2504.4	683.839
2503.7	744.269
2503	676.5
2502.29	733.351
2501.59	676.284
2500.89	722.44
2500.19	715.208
2499.48	700.863
2498.78	729.208
2498.08	700.639
2497.37	657.856
2496.67	707.526
2495.97	700.304
2495.26	671.757
2494.56	796.03
2493.86	749.712
2493.15	714.066
2492.45	703.296
2491.75	696.081
2491.04	678.215
2490.34	681.657
2489.63	731.244
2488.93	734.677
2488.22	759.399
2487.52	667.029
2486.81	737.872
2486.11	688.097
2485.41	719.904
2484.7	726.88
2483.99	730.309
2483.29	726.648
2482.58	705.267
2481.88	729.959
2481.17	719.213
2480.47	687.217
2479.76	772.11
2479.06	786.151
2478.35	754.16
2477.64	789.44
2476.94	746.839
2476.23	729.025
2475.52	728.908
2474.82	714.64
2474.11	785.271
2473.4	689.655
2472.7	707.225
2471.99	728.325
2471.28	692.858
2470.57	742.23
2469.87	749.178
2469.16	770.258
2468.45	763.069
2467.74	717.029
2467.04	762.825
2466.33	730.923
2465.62	709.624
2464.91	716.57
2464.2	744.69
2463.5	776.329
2462.79	762.092
2462.08	797.246
2461.37	797.119
2460.66	811.097
2459.95	754.552
2459.24	796.735
2458.53	800.132
2457.82	768.286
2457.11	729.402
2456.4	852.595
2455.69	789.052
2454.99	764.271
2454.28	845.142
2453.57	707.693
2452.85	739.262
2452.14	795.459
2451.43	710.871
2450.72	819.834
2450.01	847.847
2449.3	794.949
2448.59	756.135
2447.88	865.021
2447.17	784.019
2446.46	752.256
2445.75	776.738
2445.04	713.36
2444.32	744.867
2443.61	748.261
2442.9	748.141
2442.19	751.532
2441.48	814.615
2440.76	782.887
2440.05	859.985
2439.34	807.203
2438.63	835.146
2437.92	898.164
2437.2	810.322
2436.49	754.075
2435.78	820.582
2435.06	778.376
2434.35	778.251
2433.64	760.601
2432.92	781.506
2432.21	886.499
2431.5	816.289
2430.78	833.672
2430.07	819.529
2429.36	854.414
2428.64	787.755
2427.93	752.623
2427.21	745.502
2426.5	832.868
2425.78	836.233
2425.07	822.106
2424.35	780.001
2423.64	807.853
2422.92	793.736
2422.21	835.562
2421.49	800.472
2420.78	838.788
2420.06	870.103
2419.35	855.987
2418.63	911.742
2417.92	894.132
2417.2	803.192
2416.48	848.454
2415.77	806.425
2415.05	729.505
2414.34	802.676
2413.62	806.036
2412.9	819.862
2412.19	830.194
2411.47	868.425
2410.75	795.056
2410.04	840.253
2409.32	829.66
2408.6	895.749
2407.88	853.787
2407.17	846.681
2406.45	780.354
2405.73	874.274
2405.01	811.446
2404.29	849.618
2403.58	863.407
2402.86	797.131
2402.14	838.767
2401.42	859.511
2400.7	894.165
2399.98	831.404
2399.27	838.227
2398.55	862.435
2397.83	799.71
2397.11	806.534
2396.39	875.922
2395.67	893.157
2394.95	868.69
2394.23	878.973
2393.51	896.199
2392.79	920.366
2392.07	888.965
2391.35	871.462
2390.63	871.322
2389.91	836.473
2389.19	832.868
2388.47	843.143
2387.75	832.599
2387.03	936.523
2386.31	860.075
2385.59	821.794
2384.87	863.265
2384.14	835.395
2383.42	821.397
2382.7	883.639
2381.98	869.638
2381.26	911.067
2380.54	945.556
2379.82	869.217
2379.09	813.678
2378.37	913.941
2377.65	865.335
2376.93	789.058
2376.2	800.542
2375.48	812.028
2374.76	823.515
2374.04	835.004
2373.31	846.495
2372.59	857.988
2371.87	869.483
2371.14	880.98
2370.42	892.478
2369.7	903.979
2368.97	915.481
2368.25	911.879
2367.52	828.847
2366.8	939.208
2366.08	963.224
2365.35	869.868
2364.63	921.497
2363.9	935.151
2363.18	855.646
2362.45	917.601
2361.73	882.962
2361	913.856
2360.28	879.229
2359.55	920.456
2358.83	965.116
2358.1	951.175
2357.38	868.324
2356.65	854.403
2355.93	854.265
2355.2	898.899
2354.47	874.649
2353.75	891.723
2353.02	846.828
2352.3	929.295
2351.57	970.44
2350.84	970.283
2350.12	870.361
2349.39	994.047
2348.66	894.153
2347.94	938.709
2347.21	897.302
2346.48	907.469
2345.75	917.633
2345.03	955.284
2344.3	1016.97
2343.57	985.891
2342.84	872.39
2342.11	844.776
2341.39	923.61
2340.66	992.119
2339.93	1005.69
2339.2	916.298
2338.47	895.562
2337.74	857.679
2337.02	998.177
2336.29	974.008
2335.56	1021.86
2334.83	1011.41
2334.1	922.116
2333.37	884.266
2332.64	870.415
2331.91	928.521
2331.18	962.628
2330.45	965.897
2329.72	945.193
2328.99	1040.91
2328.26	965.428
2327.53	968.695
2326.8	958.271
2326.07	917.053
2325.34	1012.7
2324.61	940.701
2323.88	954.23
2323.14	940.397
2322.41	929.987
2321.68	984.533
2320.95	974.119
2320.22	967.127
2319.49	973.804
2318.76	970.229
2318.02	956.409
2317.29	969.915
2316.56	949.27
2315.83	966.186
2315.1	1013.82
2314.36	901.027
2313.63	911.118
2312.9	910.97
2312.16	948.347
2311.43	900.442
2310.7	954.86
2309.97	978.573
2309.23	1012.5
2308.5	961.212
2307.76	1025.81
2307.03	1015.42
2306.3	998.221
2305.56	981.027
2304.83	916.158
2304.1	1007.95
2303.36	997.573
2302.63	970.178
2301.89	970.02
2301.16	1010.7
2300.42	1024.15
2299.69	996.764
2298.95	959.187
2298.22	1037.25
2297.48	1006.48
2296.75	1043.71
2296.01	1026.55
2295.28	1039.98
2294.54	1046.6
2293.8	951.302
2293.07	985.117
2292.33	1063.07
2291.6	1001.78
2290.86	974.451
2290.12	1052.37
2289.39	1008.08
2288.65	977.37
2287.91	967.032
2287.18	1031.33
2286.44	1058.3
2285.7	1031
2284.97	1037.61
2284.23	1020.49
2283.49	1033.89
2282.75	1054.05
2282.01	1118.27
2281.28	1121.47
2280.54	965.462
2279.8	1036.43
2279.06	1026.1
2278.32	1029.32
2277.59	1039.31
2276.85	1062.84
2276.11	971.289
2275.37	1062.49
2274.63	1086
2273.89	1018.17
2273.15	1065.36
2272.41	1119.29
2271.67	1044.72
2270.93	1054.69
2270.19	1071.42
2269.45	1027.32
2268.71	1037.29
2267.97	1023.6
2267.23	1016.68
2266.49	1046.91
2265.75	1056.87
2265.01	1066.83
2264.27	1049.78
2263.53	1032.73
2262.79	1062.93
2262.05	1056.01
2261.31	1123.3
2260.57	1048.92
2259.83	1028.52
2259.09	1153.1
2258.34	1058.52
2257.6	1034.76
2256.86	1011
2256.12	1020.94
2255.38	1030.88
2254.63	1118.29
2253.89	1050.75
2253.15	1064.05
2252.41	1131.21
2251.66	1107.46
2250.92	1124.11
2250.18	1097.01
2249.43	1022.81
2248.69	1019.28
2247.95	1005.66
2247.21	1150.1
2246.46	1129.74
2245.72	1058.96
2244.97	1099.12
2244.23	1112.38
2243.49	1068.52
2242.74	1085.14
2242	1152.15
2241.25	1141.88
2240.51	1094.69
2239.76	1118.01
2239.02	1117.83
2238.27	1063.94
2237.53	1083.9
2236.78	1123.99
2236.04	1107.03
2235.29	1033.06
2234.55	1039.6
2233.8	1089.73
2233.06	1136.48
2232.31	1075.96
2231.57	1172.98
2230.82	1058.86
2230.07	1041.93
2229.33	1045.11
2228.58	1142.07
2227.83	1115.09
2227.09	1078.08
2226.34	1087.95
2225.59	1104.51
2224.85	1114.37
2224.1	1144.3
2223.35	1114
2222.6	1103.79
2221.86	1110.29
2221.11	1059.96
2220.36	1066.47
2219.61	1230.08
2218.87	1136.3
2218.12	1109.39
2217.37	1119.23
2216.62	1159.13
2215.87	1162.28
2215.12	1145.39
2214.37	1211.98
2213.63	1141.68
2212.88	1168.2
2212.13	1121.29
2211.38	1084.4
2210.63	1144.27
2209.88	1144.09
2209.13	1173.91
2208.38	1140.38
2207.63	1210.2
2206.88	1116.67
2206.13	1079.83
2205.38	1146.3
2204.63	1209.41
2203.88	1122.6
2203.13	1162.39
2202.38	1108.91
2201.63	1158.68
2200.88	1048.63
2200.12	1188.25
2199.37	1111.52
2198.62	1147.94
2197.87	1161.06
2197.12	1220.74
2196.37	1177.3
2195.62	1173.79
2194.86	1153.65
2194.11	1173.4
2193.36	1266.27
2192.61	1139.79
2191.85	1186.12
2191.1	1146.06
2190.35	1089.41
2189.6	1125.76
2188.84	1082.41
2188.09	1215.02
2187.34	1184.95
2186.58	1207.99
2185.83	1098.29
2185.08	1157.83
2184.32	1157.64
2183.57	1120.97
2182.82	1276.63
2182.06	1239.96
2181.31	1186.71
2180.55	1186.52
2179.8	1236.03
2179.04	1259.02
2178.29	1229
2177.53	1225.49
2176.78	1218.66
2176.02	1135.69
2175.27	1221.58
2174.51	1231.3
2173.76	1234.41
2173	1214.36
2172.25	1220.77
2171.49	1286.73
2170.74	1210.45
2169.98	1233.4
2169.22	1110.87
2168.47	1193.33
2167.71	1212.96
2166.95	1321.81
2166.2	1268.73
2165.44	1265.22
2164.68	1251.8
2163.93	1225.18
2163.17	1168.85
2162.41	1195.06
2161.65	1227.88
2160.9	1217.77
2160.14	1280.27
2159.38	1167.89
2158.62	1217.17
2157.87	1289.53
2157.11	1272.83
2156.35	1335.27
2155.59	1160.34
2154.83	1272.21
2154.07	1308.25
2153.31	1232.25
2152.56	1179.34
2151.8	1231.85
2151.04	1271.16
2150.28	1254.49
2149.52	1204.9
2148.76	1254.08
2148	1267.04
2147.24	1332.64
2146.48	1286.36
2145.72	1322.33
2144.96	1183.98
2144.2	1269.28
2143.44	1226.33
2142.68	1265.58
2141.92	1288.38
2141.16	1288.17
2140.4	1166.39
2139.64	1248.32
2138.87	1234.98
2138.11	1205.22
2137.35	1250.99
2136.59	1280.33
2135.83	1270.27
2135.07	1230.68
2134.31	1302.67
2133.54	1249.96
2132.78	1292.4
2132.02	1239.71
2131.26	1246.07
2130.49	1321.27
2129.73	1294.83
2128.97	1356.89
2128.21	1369.77
2127.44	1418.69
2126.68	1287.42
2125.92	1254.46
2125.15	1221.5
2124.39	1322.8
2123.63	1266.93
2122.86	1289.64
2122.1	1299.24
2121.33	1397.19
2120.57	1416.59
2119.81	1328.04
2119.04	1340.9
2118.28	1291.63
2117.51	1199.88
2116.75	1255.25
2115.98	1300.8
2115.22	1297.32
2114.45	1349.38
2113.69	1365.49
2112.92	1365.27
2112.16	1273.6
2111.39	1319.11
2110.62	1335.21
2109.86	1354.58
2109.09	1324.98
2108.33	1318.24
2107.56	1314.76
2106.79	1291.71
2106.03	1304.54
2105.26	1297.8
2104.49	1336.71
2103.73	1450.58
2102.96	1407.97
2102.19	1381.67
2101.42	1374.93
2100.66	1381.22
2099.89	1286.54
2099.12	1351.45
2098.35	1286.11
2097.59	1419.37
2096.82	1357.3
2096.05	1444.94
2095.28	1386.13
2094.51	1288.3
2093.74	1437.72
2092.98	1456.99
2092.21	1401.48
2091.44	1381.74
2090.67	1329.5
2089.9	1319.53
2089.13	1329.06
2088.36	1335.34
2087.59	1403.34
2086.82	1364.13
2086.05	1363.91
2085.28	1314.98
2084.51	1412.15
2083.74	1379.46
2082.97	1356.51
2082.2	1437.41
2081.43	1395
2080.66	1365.57
2079.89	1303.73
2079.12	1381.34
2078.35	1364.9
2077.57	1374.4
2076.8	1390.37
2076.03	1348.02
2075.26	1438.51
2074.49	1357.29
2073.72	1357.07
2072.94	1418.37
2072.17	1353.38
2071.4	1353.16
2070.63	1450.03
2069.86	1420.67
2069.08	1397.78
2068.31	1413.73
2067.54	1455.54
2066.76	1422.96
2065.99	1484.16
2065.22	1390.16
2064.44	1402.86
2063.67	1357.39
2062.9	1360.39
2062.12	1434.48
2061.35	1440.7
2060.58	1417.85
2059.8	1420.85
2059.03	1391.55
2058.25	1397.78
2057.48	1365.27
2056.7	1529.63
2055.93	1490.66
2055.15	1435.57
2054.38	1438.56
2053.6	1396.39
2052.83	1331.67
2052.05	1386.26
2051.28	1431.16
2050.5	1479.26
2049.72	1459.68
2048.95	1462.66
2048.17	1462.42
2047.4	1481.5
2046.62	1420.08
2045.84	1445.6
2045.07	1490.42
2044.29	1445.12
2043.51	1454.53
2042.74	1451.07
2041.96	1460.48
2041.18	1428.08
2040.4	1460
2039.63	1350.44
2038.85	1379.15
2038.07	1439.99
2037.29	1452.61
2036.52	1500.56
2035.74	1487.46
2034.96	1426.19
2034.18	1413.1
2033.4	1534.89
2032.62	1425.48
2031.84	1489.44
2031.07	1502.03
2030.29	1456.86
2029.51	1501.53
2028.73	1475.62
2027.95	1497.83
2027.17	1484.75
2026.39	1513.36
2025.61	1452.2
2024.83	1487.22
2024.05	1483.77
2023.27	1461.09
2022.49	1412.8
2021.71	1492.64
2020.93	1505.2
2020.15	1492.14
2019.37	1491.9
2018.59	1504.45
2017.8	1449.8
2017.02	1513.55
2016.24	1522.9
2015.46	1516.25
2014.68	1554.38
2013.9	1534.93
2013.11	1560.26
2012.33	1575.98
2011.55	1518.19
2010.77	1463.61
2009.99	1463.37
2009.2	1517.43
2008.42	1491.63
2007.64	1481.8
2006.85	1548.61
2006.07	1510.04
2005.29	1465.1
2004.5	1474.43
2003.72	1518.86
2002.94	1489.89
2002.15	1527.92
2001.37	1498.97
2000.59	1616.7
1999.8	1501.66
1999.02	1571.54
1998.23	1475.66
1997.45	1590.13
1996.66	1532.52
1995.88	1605.53
1995.09	1547.94
1994.31	1541.31
1993.52	1636.57
1992.74	1508.96
1991.95	1438.69
1991.17	1549.83
1990.38	1495.48
1989.6	1597.04
1988.81	1609.49
1988.02	1526.54
1987.24	1558.08
1986.45	1513.31
1985.67	1579.81
1984.88	1566.84
1984.09	1585.64
1983.3	1579.03
1982.52	1496.17
1981.73	1584.85
1980.94	1606.82
1980.16	1635.13
1979.37	1526.92
1978.58	1567.93
1977.79	1656.52
1977.01	1602.31
1976.22	1605.21
1975.43	1636.66
1974.64	1601.51
1973.85	1579.05
1973.06	1575.61
1972.27	1591.2
1971.49	1641.64
1970.7	1574.82
1969.91	1612.58
1969.12	1593.31
1968.33	1716.56
1967.54	1580.11
1966.75	1595.68
1965.96	1608.07
1965.17	1591.98
1964.38	1692.98
1963.59	1556.65
1962.8	1603.84
1962.01	1527.66
1961.22	1660.22
1960.43	1631.49
1959.64	1593.28
1958.85	1624.63
1958.06	1665.44
1957.26	1605.13
1956.47	1655.4
1955.68	1569.85
1954.89	1569.58
1954.1	1623
1953.31	1651.14
1952.51	1568.8
1951.72	1704.24
1950.93	1552.5
1950.14	1583.79
1949.34	1605.6
1948.55	1674.72
1947.76	1592.46
1946.97	1702.54
1946.17	1695.95
1945.38	1689.36
1944.59	1616.6
1943.79	1685.65
1943	1663.32
1942.21	1659.89
1941.41	1659.61
1940.62	1659.33
1939.82	1637.02
1939.03	1728.03
1938.24	1737.18
1937.44	1686.55
1936.65	1670.53
1935.85	1654.53
1935.06	1673.12
1934.26	1698
1933.47	1675.71
1932.67	1681.71
1931.88	1687.72
1931.08	1712.57
1930.28	1596.04
1929.49	1636.61
1928.69	1692.87
1927.9	1714.57
1927.1	1601.25
1926.3	1685.74
1925.51	1710.57
1924.71	1773.05
1923.91	1637.83
1923.12	1715.99
1922.32	1652.97
1921.52	1715.41
1920.73	1680.64
1919.93	1686.63
1919.13	1655
1918.33	1698.6
1917.53	1660.71
1916.74	1625.97
1915.94	1644.49
1915.14	1637.96
1914.34	1747.28
1913.54	1756.38
1912.74	1702.87
1911.95	1705.71
1911.15	1758.63
1910.35	1714.53
1909.55	1767.42
1908.75	1642.02
1907.95	1748.07
1907.15	1685.24
1906.35	1734.98
1905.55	1640.92
1904.75	1762.52
1903.95	1771.6
1903.15	1733.82
1902.35	1764.76
1901.55	1767.59
1900.75	1804.76
1899.95	1710.8
1899.15	1804.16
1898.35	1757.04
1897.54	1800.43
1896.74	1784.53
1895.94	1703.13
1895.14	1721.56
1894.34	1752.45
1893.54	1773.98
1892.73	1842.26
1891.93	1748.45
1891.13	1782.44
1890.33	1791.49
1889.53	1753.8
1888.72	1762.85
1887.92	1756.33
1887.12	1793.4
1886.31	1727.72
1885.51	1730.55
1884.71	1767.6
1883.9	1720.63
1883.1	1732.79
1882.3	1723.17
1881.49	1729.1
1880.69	1703.93
1879.88	1796.91
1879.08	1768.64
1878.28	1799.42
1877.47	1817.76
1876.67	1832.99
1875.86	1845.1
1875.06	1810.63
1874.25	1754.43
1873.45	1760.35
1872.64	1766.26
1871.84	1797
1871.03	1774.98
1870.22	1818.12
1869.42	1774.38
1868.61	1752.37
1867.81	1758.28
1867	1801.39
1866.19	1788.69
1865.39	1810.09
1864.58	1834.57
1863.77	1865.25
1862.97	1976.46
1862.16	1914.18
1861.35	1904.57
1860.54	1730.85
1859.74	1780.1
1858.93	1816.94
1858.12	1822.83
1857.31	1915.35
1856.51	1846.96
1855.7	1800.25
1854.89	1908.2
1854.08	1790.37
1853.27	1907.55
1852.46	1802.14
1851.65	1857.46
1850.84	1773.72
1850.04	1847.57
1849.23	1899.77
1848.42	1868.57
1847.61	1920.75
1846.8	1908.08
1845.99	1910.84
1845.18	1913.61
1844.37	1860.83
1843.56	1826.57
1842.75	1903.39
1841.94	1856.8
1841.13	1878.08
1840.31	1902.43
1839.5	1874.36
1838.69	1870.96
1837.88	1719.64
1837.07	1873.42
1836.26	1817.65
1835.45	1832.74
1834.64	1890.95
1833.82	1847.52
1833.01	1982.67
1832.2	1813.04
1831.39	1818.89
1830.57	1920.13
1829.76	1870.58
1828.95	1854.88
1828.14	1900.7
1827.32	1903.46
1826.51	1915.44
1825.7	1973.52
1824.88	1930.16
1824.07	1948.27
1823.26	1920.29
1822.44	1944.54
1821.63	1898.14
1820.81	1900.89
1820	1965.05
1819.19	1924.81
1818.37	1899.93
1817.56	1945.65
1816.74	1976
1815.93	2009.41
1815.11	1966.13
1814.3	1953.53
1813.48	1894.95
1812.67	1952.88
1811.85	1964.81
1811.03	1988.99
1810.22	1908.99
1809.4	1927.05
1808.59	1957.36
1807.77	1935.59
1806.95	1950.57
1806.14	1993.1
1805.32	1937.67
1804.5	1949.58
1803.69	1912.53
1802.87	1899.97
1802.05	1988.36
1801.24	1932.98
1800.42	1926.53
1799.6	1935.38
1798.78	1944.22
1797.96	1986.69
1797.15	1992.46
1796.33	2007.4
1795.51	2019.28
1794.69	2025.05
1793.87	1930.04
1793.05	1938.87
1792.23	1904.97
1791.42	2038.95
1790.6	2047.76
1789.78	2019.95
1788.96	2077.57
1788.14	1903.36
1787.32	1985.38
1786.5	1981.99
1785.68	1899.34
1784.86	1959.99
1784.04	1987.08
1783.22	1913.62
1782.4	1995.55
1781.58	1931.25
1780.76	2004.01
1779.93	2018.9
1779.11	2018.56
1778.29	2069.97
1777.47	1990.49
1776.65	2029.71
1775.83	2008.07
1775.01	2126.37
1774.18	2071.26
1773.36	2028.34
1772.54	1918.54
1771.72	1988.13
1770.89	1984.75
1770.07	2075.59
1769.25	2053.97
1768.43	2087.04
1767.6	1998.6
1766.78	2092.4
1765.96	2016.14
1765.13	1991.51
1764.31	2033.67
1763.49	1990.84
1762.66	2026.91
1761.84	2069.04
1761.01	2065.66
1760.19	2038.01
1759.36	1949.73
1758.54	2137.37
1757.72	1949.07
1756.89	2063.91
1756.07	1975.68
1755.24	2135.92
1754.41	2168.88
1753.59	2168.51
1752.76	1968.29
1751.94	2019.43
1751.11	2070.54
1750.29	2052.03
1749.46	2057.74
1748.63	2063.44
1747.81	1963.26
1746.98	2108.11
1746.15	2086.58
1745.33	2083.21
1744.5	2128.2
1743.67	2094.59
1742.85	2166.76
1742.02	2127.12
1741.19	2042.17
1740.36	2081.09
1739.54	2038.46
1738.71	2047.17
1737.88	2028.71
1737.05	2124.95
1736.22	2025
1735.39	2169.49
1734.57	1991.13
1733.74	2099.38
1732.91	2068.87
1732.08	2014.24
1731.25	2050.07
1730.42	2049.73
1729.59	2091.57
1728.76	2223.8
1727.93	2057.72
1727.1	2150.75
1726.27	2102.2
1725.44	2083.77
1724.61	2119.55
1723.78	2034.9
1722.95	2182.03
1722.12	2166.62
1721.29	2151.21
1720.46	2177.91
1719.62	2108.37
1718.79	2008.77
1717.96	2101.64
1717.13	2077.23
1716.3	2161.04
1715.47	2061.5
1714.63	2100.21
1713.8	2072.82
1712.97	2072.46
1712.14	2045.08
1711.31	2167.84
1710.47	2152.46
1709.64	2152.1
1708.81	2142.73
1707.97	2124.36
1707.14	2148
1706.31	2174.63
1705.47	2180.26
1704.64	2107.92
1703.81	2215.49
1702.97	2197.13
1702.14	2061.89
1701.3	2235.34
1700.47	2073.18
1699.63	2204.62
1698.8	2087.44
1697.96	2242.8
1697.13	2209.48
1696.29	2164.21
1695.46	2109.97
1694.62	2292.14
1693.79	2067.36
1692.95	2147.78
1692.12	2141.43
1691.28	2227.78
1690.44	2197.51
1689.61	2244.96
1688.77	2086.17
1687.93	2169.49
1687.1	2213.94
1686.26	2159.79
1685.42	2231.1
1684.59	2179.96
1683.75	2215.42
1682.91	2134.44
1682.07	2214.66
1681.24	2238.16
1680.4	2219.87
1679.56	2150.88
1678.72	2162.45
1677.88	2138.22
1677.05	2116.98
1676.21	2319.34
1675.37	2205.68
1674.53	2381.13
1673.69	2431.38
1672.85	2407.13
1672.01	2359.07
1671.17	2275.28
1670.33	2480.34
1669.49	2423.36
1668.65	2512.24
1667.81	2541.57
1666.97	2475.68
1666.13	2537.73
1665.29	2498.63
1664.45	2519.02
1663.61	2652.4
1662.77	2675.73
1661.93	2586.1
1661.09	2472.72
1660.25	2540.64
1659.4	2468.91
1658.56	2480.37
1657.72	2420.54
1656.88	2405.28
1656.04	2455.35
1655.19	2446.02
1654.35	2415.92
1653.51	2335.39
1652.67	2418.07
1651.82	2399.85
1650.98	2384.61
1650.14	2307.11
1649.3	2291.89
1648.45	2335.96
1647.61	2335.56
1646.77	2364.8
1645.92	2343.65
1645.08	2349.18
1644.23	2351.74
1643.39	2289.15
1642.54	2356.86
1641.7	2365.34
1640.86	2311.65
1640.01	2222.48
1639.17	2304.95
1638.32	2295.68
1637.48	2398.81
1636.63	2277.15
1635.78	2294.5
1634.94	2255.67
1634.09	2352.83
1633.25	2316.96
1632.4	2360.89
1631.56	2262.99
1630.71	2360.08
1629.86	2389.21
1629.02	2306.13
1628.17	2302.78
1627.32	2269.92
1626.47	2266.58
1625.63	2257.34
1624.78	2360.21
1623.93	2407
1623.09	2282.72
1622.24	2326.56
1621.39	2408.71
1620.54	2393.56
1619.69	2328.31
1618.84	2445.78
1618	2495.45
1617.15	2550.99
1616.3	2420.97
1615.45	2382.27
1614.6	2549.68
1613.75	2449.16
1612.9	2428.14
1612.05	2404.18
1611.2	2459.67
1610.35	2553.38
1609.5	2373.53
1608.65	2467.23
1607.8	2640.28
1606.95	2472.26
1606.1	2463.02
1605.25	2527.25
1604.4	2441.61
1603.55	2485.26
1602.7	2473.08
1601.85	2593.06
1600.99	2580.87
1600.14	2668.5
1599.29	2509.54
1598.44	2573.67
1597.59	2476.41
1596.74	2581.59
1595.88	2569.42
1595.03	2504.46
1594.18	2512.83
1593.32	2450.83
1592.47	2585.24
1591.62	2441.2
1590.77	2552.12
1589.91	2399.35
1589.06	2407.72
1588.21	2454.17
1587.35	2339.55
1586.5	2453.32
1585.64	2400.21
1584.79	2525.65
1583.93	2513.51
1583.08	2504.3
1582.23	2407.34
1581.37	2506.36
1580.52	2543.95
1579.66	2432.41
1578.81	2557.69
1577.95	2440.35
1577.09	2486.68
1576.24	2506.7
1575.38	2366.06
1574.53	2558.41
1573.67	2455.77
1572.81	2464.11
1571.96	2416.98
1571.1	2477.85
1570.24	2410.31
1569.39	2474.09
1568.53	2424.07
1567.67	2368.24
1566.82	2443.65
1565.96	2492.79
1565.1	2346.61
1564.24	2407.42
1563.39	2494.42
1562.53	2336.66
1561.67	2546
1560.81	2379.55
1559.95	2489.8
1559.09	2425.31
1558.23	2439.45
1557.38	2444.85
1556.52	2438.61
1555.66	2429.46
1554.8	2429.05
1553.94	2466.44
1553.08	2483.46
1552.22	2515.02
1551.36	2500.05
1550.5	2487.99
1549.64	2519.53
1548.78	2373.82
1547.92	2507.04
1547.06	2361.39
1546.2	2413.25
1545.34	2526.07
1544.47	2574.99
1543.61	2571.65
1542.75	2391.28
1541.89	2448.9
1541.03	2433.97
1540.17	2424.85
1539.3	2418.63
1538.44	2438.51
1537.58	2498.97
1536.72	2452.16
1535.85	2443.05
1534.99	2419.44
1534.13	2482.76
1533.27	2467.85
1532.4	2528.24
1531.54	2536.49
1530.68	2466.58
1529.81	2570.35
1528.95	2468.62
1528.08	2534.75
1527.22	2519.84
1526.36	2464.45
1525.49	2533.43
1524.63	2431.79
1523.76	2541.23
1522.9	2462.75
1522.03	2436.32
1521.17	2409.89
1520.3	2542.37
1519.44	2469.72
1518.57	2402.87
1517.7	2477.53
1516.84	2407.81
1515.97	2517.09
1515.11	2479.13
1514.24	2470.05
1513.37	2440.77
1512.51	2425.93
1511.64	2457.23
1510.77	2526.01
1509.91	2462.15
1509.04	2438.66
1508.17	2504.53
1507.3	2495.45
1506.44	2529.6
1505.57	2471.55
1504.7	2465.36
1503.83	2453.42
1502.96	2432.84
1502.09	2400.75
1501.23	2469.41
1500.36	2443.09
1499.49	2503.09
1498.62	2488.27
1497.75	2390.05
1496.88	2530.54
1496.01	2489.86
1495.14	2544.04
1494.27	2572.34
1493.4	2505.81
1492.53	2488.13
1491.66	2605.48
1490.79	2579.18
1489.92	2604.58
1489.05	2489.28
1488.18	2463.02
1487.31	2497.03
1486.44	2508.08
1485.56	2553.55
1484.69	2490
1483.82	2575.62
1482.95	2535.02
1482.08	2603.4
1481.21	2623.01
1480.33	2591.03
1479.46	2550.46
1478.59	2661.76
1477.72	2624.06
1476.84	2655.11
1475.97	2614.56
1475.1	2697.14
1474.22	2648.01
1473.35	2830.73
1472.48	2727.22
1471.6	2718.17
1470.73	2752.02
1469.85	2860.24
1468.98	2879.76
1468.11	2953.6
1467.23	2893.06
1466.36	2872.55
1465.48	2914.92
1464.61	2840.12
1463.73	2973.9
1462.86	3099.06
1461.98	3067.11
1461.11	2889.55
1460.23	3054.63
1459.35	2954.2
1458.48	3079.25
1457.6	3064.45
1456.73	3032.54
1455.85	3126.14
1454.97	3025.78
1454.1	3019.56
1453.22	3087.45
1452.34	3141.07
1451.46	3109.18
1450.59	3145.68
1449.71	3133.74
1448.83	3101.87
1447.95	3181.07
1447.08	3174.82
1446.2	3086.02
1445.32	2960.24
1444.44	3065.03
1443.56	3038.89
1442.68	3112.33
1441.81	3120.32
1440.93	3165.28
1440.05	3255.72
1439.17	3272.21
1438.29	3229.01
1437.41	3245.5
1436.53	3284.72
1435.65	3193.23
1434.77	3084.74
1433.89	3010.37
1433.01	2995.65
1432.13	2944.03
1431.25	3000.28
1430.37	2874.89
1429.48	2831.83
1428.6	2749.06
1427.72	2757.1
1426.84	2881.4
1425.96	2761.81
1425.08	2778.34
1424.19	2760.85
1423.31	2726.36
1422.43	2657.88
1421.55	2674.42
1420.67	2642.79
1419.78	2639.5
1418.9	2723.99
1418.02	2740.5
1417.13	2700.4
1416.25	2733.89
1415.37	2688.14
1414.48	2766.89
1413.6	2808.84
1412.71	2706.54
1411.83	2658
1410.95	2796.06
1410.06	2642.94
1409.18	2560.52
1408.29	2633.54
1407.41	2599.18
1406.52	2615.68
1405.64	2657.58
1404.75	2626.06
1403.87	2574.79
1402.98	2636.44
1402.1	2590.82
1401.21	2680.67
1400.32	2626.6
1399.44	2671.27
1398.55	2636.96
1397.66	2678.8
1396.78	2585.3
1395.89	2680.69
1395	2663.31
1394.12	2631.85
1393.23	2670.83
1392.34	2605.58
1391.45	2731.86
1390.57	2751.1
1389.68	2843.53
1388.79	2719.18
1387.9	2752.48
1387.01	2701.35
1386.12	2768.4
1385.24	2770.73
1384.35	2638.06
1383.46	2736.02
1382.57	2741.16
1381.68	2718.2
1380.79	2740.21
1379.9	2728.49
1379.01	2722.4
1378.12	2842.71
1377.23	2777.62
1376.34	2852.95
1375.45	2908.6
1374.56	2773.36
1373.67	2859.87
1372.78	2850.96
1371.89	2712.99
1370.99	2931.31
1370.1	2798.98
1369.21	2759.24
1368.32	2775.58
1367.43	2850.78
1366.54	2715.75
1365.64	2804.95
1364.75	2835.28
1363.86	2803.97
1362.97	2890.3
1362.07	2788.99
1361.18	2693.31
1360.29	2902.78
1359.39	2905.07
1358.5	2840.21
1357.61	2797.74
1356.71	2811.24
1355.82	2841.52
1354.93	2787.89
1354.03	2669.98
1353.14	2778.53
1352.24	2724.94
1351.35	2724.47
1350.45	2779.87
1349.56	2709.55
1348.66	2750.97
1347.77	2792.37
1346.87	2744.42
1345.98	2637.87
1345.08	2765.79
1344.18	2796
1343.29	2865.26
1342.39	2853.6
1341.5	2691.34
1340.6	2755.01
1339.7	2854.89
1338.81	2846.03
1337.91	2837.17
1337.01	2789.3
1336.11	2755.38
1335.22	2704.76
1334.32	2651.37
1333.42	2765.08
1332.52	2817.49
1331.63	2833.7
1330.73	2724.66
1329.83	2760.36
1328.93	2754.31
1328.03	2776.08
1327.13	2739.44
1326.23	2741.74
1325.33	2705.12
1324.43	2696.31
1323.53	2812.56
1322.64	2742.6
1321.74	2767.12
1320.84	2736.08
1319.94	2685.61
1319.03	2724.02
1318.13	2670.79
1317.23	2725.84
1316.33	2683.73
1315.43	2835.88
1314.53	2641.18
1313.63	2682.32
1312.73	2729
1311.83	2761.79
1310.92	2769.63
1310.02	2838.44
1309.12	2743.71
1308.22	2795.88
1307.32	2814.78
1306.41	2861.38
1305.51	2813.8
1304.61	2763.46
1303.71	2746.36
1302.8	2698.83
1301.9	2800.75
1301	2720.02
1300.09	2727.84
1299.19	2688.64
1298.28	2649.44
1297.38	2726.4
1296.48	2792.28
1295.57	2971.46
1294.67	3028.97
1293.76	3094.75
1292.86	2947.79
1291.95	2938.99
1291.05	2789.34
1290.14	2788.85
1289.24	2570.26
1288.33	2630.53
1287.42	2665.95
1286.52	2574.42
1285.61	2653.98
1284.71	2499.04
1283.8	2584.1
1282.89	2578.13
1281.99	2566.65
1281.08	2568.95
1280.17	2629.13
1279.26	2683.78
1278.36	2518.01
1277.45	2619.48
1276.54	2484.08
1275.63	2552.48
1274.72	2629.11
1273.82	2474.51
1272.91	2534.62
1272	2476.39
1271.09	2434.69
1270.18	2442.51
1269.27	2411.83
1268.36	2496.65
1267.45	2443.98
1266.54	2391.32
1265.64	2459.6
1264.73	2505.88
1263.82	2464.23
1262.91	2386.89
1261.99	2455.13
1261.08	2484.9
1260.17	2429.56
1259.26	2385.21
1258.35	2458.89
1257.44	2378.89
1256.53	2449.79
1255.62	2438.39
1254.71	2465.39
1253.79	2421.08
1252.88	2346.64
1251.97	2351.71
1251.06	2340.33
1250.15	2493.35
1249.23	2468.26
1248.32	2404.83
1247.41	2459.18
1246.49	2403.98
1245.58	2343.33
1244.67	2375.76
1243.75	2391.77
1242.84	2498.05
1241.93	2437.43
1241.01	2513.58
1240.1	2409.22
1239.18	2468.95
1238.27	2465.78
1237.35	2530.94
1236.44	2412.99
1235.53	2346.99
1234.61	2357.5
1233.69	2291.54
1232.78	2272.02
1231.86	2361.72
1230.95	2342.19
1230.03	2404.55
1229.12	2363.2
1228.2	2392.79
1227.28	2340.54
1226.37	2348.31
1225.45	2361.53
1224.53	2352.93
1223.62	2488.82
1222.7	2450.22
1221.78	2346.24
1220.86	2356.72
1219.95	2443.48
1219.03	2478.45
1218.11	2494.35
1217.19	2338.72
1216.27	2444.47
1215.35	2416.82
1214.44	2337.48
1213.52	2394.21
1212.6	2423.7
1211.68	2447.75
1210.76	2286.89
1209.84	2465.92
1208.92	2476.36
1208	2473.2
1207.08	2510.81
1206.16	2466.9
1205.24	2357.8
1204.32	2384.55
1203.4	2394.99
1202.48	2462.44
1201.56	2462
1200.64	2336.72
1199.71	2515.4
1198.79	2474.26
1197.87	2430.42
1196.95	2378.46
1196.03	2486.51
1195.1	2467.09
1194.18	2466.65
1193.26	2420.14
1192.34	2408.88
1191.41	2443.67
1190.49	2475.74
1189.57	2502.39
1188.65	2423.42
1187.72	2385.09
1186.8	2417.15
1185.87	2365.3
1184.95	2308.06
1184.03	2329.3
1183.1	2512.81
1182.18	2501.55
1181.25	2392.95
1180.33	2360.09
1179.4	2451.57
1178.48	2391.68
1177.55	2407.47
1176.63	2342.21
1175.7	2371.5
1174.78	2327.87
1173.85	2411.16
1172.92	2313.55
1172	2407.61
1171.07	2334.32
1170.15	2320.42
1169.22	2360.47
1168.29	2354.66
1167.36	2370.42
1166.44	2351.13
1165.51	2331.84
1164.58	2344.9
1163.65	2341.79
1162.73	2333.29
1161.8	2394.84
1160.87	2356.71
1159.94	2385.91
1159.01	2423.18
1158.08	2341.99
1157.16	2322.74
1156.23	2365.38
1155.3	2429.54
1154.37	2324.19
1153.44	2256.54
1152.51	2315.3
1151.58	2328.33
1150.65	2362.87
1149.72	2252.25
1148.79	2386.21
1147.86	2377.73
1146.93	2345.07
1146	2350.03
1145.07	2247.57
1144.13	2292.81
1143.2	2284.35
1142.27	2275.89
1141.34	2224.51
1140.41	2309.96
1139.48	2306.87
1138.54	2290.37
1137.61	2271.19
1136.68	2308.32
1135.75	2195.33
1134.81	2264.62
1133.88	2250.82
1132.95	2413.85
1132.01	2429.49
1131.08	2321.93
1130.15	2455.4
1129.21	2511.19
1128.28	2395.64
1127.35	2488.88
1126.41	2483.09
1125.48	2530.8
1124.54	2503.61
1123.61	2350.72
1122.67	2411.8
1121.74	2333.85
1120.8	2368.18
1119.87	2365.09
1118.93	2244.43
1117.99	2385.62
1117.06	2337.12
1116.12	2323.35
1115.19	2341.62
1114.25	2303.83
1113.31	2258.05
1112.38	2396.41
1111.44	2310.61
1110.5	2280.85
1109.56	2235.1
1108.63	2210.71
1107.69	2303.63
1106.75	2287.23
1105.81	2316.14
1104.88	2310.4
1103.94	2384.59
1103	2328.22
1102.06	2346.45
1101.12	2332.72
1100.18	2223.14
1099.24	2323.9
1098.3	2310.18
1097.36	2349.68
1096.42	2357.24
1095.49	2447.27
1094.55	2353.74
1093.6	2305.46
1092.66	2374.17
1091.72	2325.9
1090.78	2288.28
1089.84	2319.76
1088.9	2308.72
1087.96	2414.56
1087.02	2331.8
1086.08	2323.42
1085.14	2304.42
1084.19	2242.96
1083.25	2290.33
1082.31	2255.42
1081.37	2217.88
1080.43	2267.88
1079.48	2434.56
1078.54	2542.83
1077.6	2322.34
1076.65	2268.92
1075.71	2268.51
1074.77	2188.62
1073.82	2299.49
1072.88	2195.78
1071.93	2280.13
1070.99	2295.61
1070.05	2313.73
1069.1	2260.38
1068.16	2225.58
1067.21	2243.7
1066.27	2290.92
1065.32	2237.61
1064.38	2340.34
1063.43	2408.67
1062.49	2461.11
1061.54	2405.17
1060.59	2468.16
1059.65	2335.61
1058.7	2425.01
1057.75	2289.88
1056.81	2358.13
1055.86	2236.26
1054.91	2135.55
1053.97	2267.13
1053.02	2269.36
1052.07	2284.79
1051.12	2176.22
1050.18	2152.1
1049.23	2185.99
1048.28	2243.61
1047.33	2293.29
1046.38	2200.63
1045.43	2260.85
1044.48	2199.85
1043.54	2178.38
1042.59	2272.8
1041.64	2272.39
1040.69	2127.19
1039.74	2255.79
1038.79	2200.12
1037.84	2202.36
1036.89	2212.49
1035.94	2235.76
1034.99	2356.33
1034.04	2282.29
1033.08	2284.51
1032.13	2334.04
1031.18	2281.06
1030.23	2309.56
1029.28	2303.89
1028.33	2237.81
1027.37	2211.15
1026.42	2184.5
1025.47	2228.74
1024.52	2183.72
1023.57	2172.83
1022.61	2085.86
1021.66	2143.2
1020.71	2119.21
1019.75	2084.74
1018.8	2050.28
1017.85	2215.06
1016.89	2094.1
1015.94	2156.62
1014.98	2195.53
1014.03	2176.8
1013.07	2126.65
1012.12	2202.2
1011.16	2217.52
1010.21	2183.09
1009.25	2240.28
1008.3	2129.97
1007.34	2244.7
1006.39	2205.07
1005.43	2277.9
1004.48	2311.48
1003.52	2413.03
1002.56	2488.39
1001.61	2545.44
1000.65	2576.34
999.693	2521.02
998.736	2538.85
997.778	2352.97
996.821	2352.55
995.863	2312.97
994.905	2302.12
993.947	2270.39
992.989	2256.93
992.031	2180.88
991.072	2237.86
990.114	2180.09
989.155	2208.38
988.196	2153.24
987.237	2132
986.277	2136.83
985.318	2157.29
984.358	2310.6
983.398	2203.4
982.438	2091.03
981.478	2153.14
980.517	2144.94
979.557	2128.94
978.596	2092.13
977.635	2292.08
976.674	2153.8
975.713	2143.01
974.751	2155.63
973.79	2181.24
972.828	2180.85
971.866	2144.07
970.904	2187.86
969.942	2135.51
968.979	2083.17
968.017	2082.8
967.054	2100.6
966.091	2139.16
965.128	2107.63
964.164	2151.37
963.201	2197.69
962.237	2127.25
961.273	2074.99
960.309	2175.75
959.345	2128.69
958.381	2182.75
957.416	2161.62
956.451	2080.9
955.486	2103.84
954.521	2173.4
953.556	2134.16
952.591	2076.81
951.625	2097.15
950.659	2114.89
949.693	2098.98
948.727	2152.94
947.761	2124.09
946.794	2172.86
945.828	2257.81
944.861	2210.86
943.894	2202.71
942.927	2186.8
941.959	2163.15
940.992	2116.25
940.024	2100.37
939.056	2087.07
938.088	2120.27
937.12	2161.2
936.152	2233.1
935.183	2103.63
934.214	2113.58
933.246	2126.1
932.276	2216.01
931.307	2120.17
930.338	2094
929.368	2142.61
928.398	2124.18
927.428	2157.3
926.458	2128.57
925.488	2159.1
924.517	2199.93
923.547	2222.71
922.576	2165.66
921.605	1995.34
920.634	2136.56
919.662	2177.35
918.691	2158.95
917.719	2117.39
916.747	2093.86
915.775	2090.91
914.803	2180.53
913.831	2038.74
912.858	2190.03
911.885	2094.54
910.912	2091.59
909.939	2158.01
908.966	2126.8
907.992	2113.57
907.019	2149.14
906.045	2187.26
905.071	2120.13
904.097	2132.57
903.122	2193.77
902.148	2160.02
901.173	2259.66
900.198	2118.21
899.223	2135.78
898.248	2161.02
897.273	2106.81
896.297	2126.93
895.321	2144.48
894.345	2172.27
893.369	2125.77
892.393	2143.32
891.416	2178.77
890.44	2150.22
889.463	2144.71
888.486	2139.21
887.509	2108.12
886.531	2087.27
885.554	2043.42
884.576	2117.2
883.598	2037.56
882.62	2093.43
881.642	2136.5
880.664	2217.87
879.685	2189.37
878.706	2012.73
877.727	2127.29
876.748	2175.41
875.769	2078.01
874.789	2075.08
873.81	2067.05
872.83	2314.17
871.85	2367.32
870.87	2203.66
869.889	2047.7
868.909	2139.12
867.928	2189.71
866.947	2061.88
865.966	2120.12
864.985	2211.45
864.003	2233.98
863.022	2223.39
862.04	2164.42
861.058	2153.84
860.076	2138.18
859.094	2119.97
858.111	2111.96
857.128	2111.57
856.146	2136.63
855.162	2062.49
854.179	2054.48
853.196	2094.79
852.212	2168.12
851.229	2094.03
850.245	2116.51
849.261	2100.89
848.276	2166.54
847.292	2089.97
846.307	2071.81
845.322	2180.6
844.337	2137.05
843.352	2129.05
842.367	2192.09
841.381	2313.46
840.396	2300.35
839.41	2152.86
838.424	2218.39
837.437	2108.99
836.451	2062.99
835.464	2093.02
834.477	2059.7
833.49	2066.93
832.503	2107.07
831.516	2207.97
830.528	2260.74
829.541	2229.95
828.553	2224.48
827.565	2229.14
826.577	2183.2
825.588	2195.45
824.6	2189.99
823.611	2149.14
822.622	2201.83
821.633	2234.29
820.643	2115.12
819.654	2241.06
818.664	2172.45
817.674	2134.17
816.684	2355.99
815.694	2236.9
814.704	2206.21
813.713	2231.04
812.723	2220.54
811.732	2215.09
810.741	2197.03
809.749	2189.07
808.758	2158.41
807.766	2122.72
806.774	2129.9
805.782	2167.31
804.79	2217.31
803.798	2146.37
802.805	2130.86
801.812	2097.74
800.819	2198.07
799.826	2167.46
798.833	2365.9
797.84	2345.34
796.846	2279.5
795.852	2216.19
794.858	2190.64
793.864	2162.58
792.87	2189.84
791.875	2287.48
790.88	2199.09
789.885	2068.03
788.89	2110.36
787.895	2185.33
786.9	2074.43
785.904	2099.16
784.908	2226.82
783.912	2100.91
782.916	2062.88
781.92	2155.34
780.923	2082.2
779.926	2084.33
778.929	2166.7
777.932	2126.19
776.935	2153.38
775.938	2152.98
774.94	2177.65
773.942	2119.63
772.944	2151.8
771.946	2186.48
770.948	2120.97
769.949	2057.99
768.95	2245.35
767.951	2174.87
766.952	2139.44
765.953	2244.12
764.954	2136.16
763.954	2115.76
762.954	2105.37
761.954	2132.49
760.954	2154.59
759.954	2226.67
758.953	2111.33
757.952	2155.91
756.951	2160.51
755.95	2117.66
754.949	2064.84
753.948	2096.92
752.946	2213.84
751.944	2213.44
750.942	2220.52
749.94	2349.82
748.937	2192.27
747.935	2142
746.932	2179
745.929	2133.74
744.926	2143.31
743.923	2155.38
742.919	2159.97
741.916	2244.26
740.912	2154.2
739.908	2228.5
738.903	2175.81
737.899	2220.22
736.894	2160.09
735.89	2269.17
734.885	2231.44
733.88	2295.7
732.874	2208.24
731.869	2125.79
730.863	2319.3
729.857	2246.79
728.851	2186.74
727.845	2159.01
726.838	2166.07
725.832	2138.36
724.825	2185.14
723.818	2107.78
722.811	2221.58
721.804	2134.31
720.796	2126.47
719.788	2294.78
718.78	2329.08
717.772	2177.38
716.764	2191.86
715.756	2208.81
714.747	2119.18
713.738	2153.48
712.729	2110.97
711.72	2028.83
710.71	2182.02
709.701	2223.72
708.691	2173.79
707.681	2217.95
706.671	2143.29
705.661	2152.8
704.65	2152.4
703.64	2174.27
702.629	2094.73
701.618	2114.13
700.606	2160.71
699.595	2175.15
698.583	2201.93
697.572	2206.47
696.56	2119.6
695.547	2136.5
694.535	2106.48
693.523	2138.19
692.51	2162.48
691.497	2127.53
690.484	2149.35
689.471	2084.8
688.457	2106.62
687.443	2123.5
686.43	2147.77
685.416	2073.41
684.401	2146.98
683.387	2156.44
682.372	2207.79
681.358	2266.51
680.343	2325.21
679.327	2260.75
678.312	2220.94
677.297	2195.92
676.281	2121.67
675.265	2145.89
674.249	2214.39
673.233	2231.2
672.216	2132.41
671.2	2117.26
670.183	2180.8
669.166	2168.11
668.148	2125.93
667.131	2179.59
666.113	2166.91
665.096	2164.05
664.078	2114.54
663.06	2158.35
662.041	2207.05
661.023	2128.1
660.004	2098.26
658.985	2276.99
657.966	2207.88
656.947	2104.46
655.927	2172.73
654.908	2196.85
653.888	2198.9
652.868	2161.73
651.848	2092.72
650.827	2209.93
649.807	2194.83
648.786	2140.54
647.765	2238.1
646.744	2186.27
645.723	2183.42
644.701	2312.73
643.679	2197.3
642.657	2209.12
641.635	2135.34
640.613	2127.61
639.591	2234.8
638.568	2114.6
637.545	2202.2
636.522	2238.45
635.499	2257.58
634.475	2220.53
633.452	2163.94
632.428	2170.87
631.404	2126.52
630.38	2218.89
629.356	2296.58
628.331	2269.31
627.306	2168.87
626.281	2190.42
625.256	2226.6
624.231	2231.06
623.205	2276.97
622.18	2271.67
621.154	2278.57
620.128	2373.17
619.102	2272.85
618.075	2250.51
617.049	2250.1
616.022	2291.07
614.995	2307.69
613.968	2385.14
612.94	2382.27
611.913	2269.92
610.885	2240.31
609.857	2305.56
608.829	2305.13
607.8	2304.71
606.772	2219.21
605.743	2247.96
604.714	2184.37
603.685	2215.55
602.656	2210.28
601.626	2185.59
600.597	2233.74
599.567	2335.29
598.537	2330
597.507	2307.73
596.476	2185.99
595.446	2195.29
594.415	2228.84
593.384	2306.02
592.353	2283.78
591.321	2230.03
590.29	2256.27
589.258	2304.32
588.226	2323.27
587.194	2223.53
586.162	2259.45
585.129	2150.07
584.096	2161.78
583.063	2250.93
582.03	2146.46
580.997	2247.68
579.964	2235.17
578.93	2254.1
577.896	2195.65
576.862	2224.25
575.828	2170.66
574.793	2291.1
573.759	2247.18
572.724	2251.6
571.689	2229.44
570.654	2241.1
569.618	2156.18
568.583	2208.89
567.547	2288.13
566.511	2164.63
565.475	2198.01
564.438	2132.47
563.402	2250.26
562.365	2355.94
561.328	2357.91
560.291	2357.48
559.254	2393.19
558.216	2448.17
557.178	2409.17
556.141	2329.23
555.102	2343.25
554.064	2335.59
553.026	2352.01
551.987	2250.48
550.948	2351.14
549.909	2223.18
548.87	2232.39
547.83	2296.92
546.791	2284.47
545.751	2192.68
544.711	2204.29
543.671	2151.01
542.63	2258.74
541.59	2200.66
540.549	2267.51
539.508	2293.51
538.467	2259.47
537.425	2208.63
536.384	2311.43
535.342	2454.99
534.3	2408.95
533.258	2326.94
532.216	2230.56
531.173	2275.71
530.13	2311.25
529.088	2298.84
528.044	2293.62
527.001	2180.57
525.958	2199.33
524.914	2213.29
523.87	2186.54
522.826	2305.85
521.782	2310.21
520.737	2369.62
519.693	2417.04
518.648	2454.88
517.603	2315.67
516.557	2375.03
515.512	2400.9
514.466	2323.94
513.42	2287.65
512.374	2476.04
511.328	2322.64
510.282	2281.6
509.235	2199.96
508.188	2192.38
507.141	2172.87
506.094	2248.86
505.047	2279.47
503.999	2169.27
502.951	2133.08
501.903	2213.79
500.855	2249.16
499.807	2348.89
