3200.66	12.6297
3200.06	16.8396
3199.47	33.6742
3198.87	16.8346
3198.28	25.248
3197.69	21.0368
3197.09	4.20673
3196.5	8.41219
3195.9	16.8218
3195.31	16.8193
3194.71	4.20419
3194.12	25.2213
3193.52	8.40583
3192.93	16.8091
3192.33	4.20165
3191.74	21.0051
3191.14	16.8015
3190.55	46.1971
3189.95	20.9955
3189.36	33.5878
3188.76	29.3848
3188.17	25.1832
3187.57	29.376
3186.97	-4.19593
3186.38	16.7812
3185.78	37.7519
3185.19	16.7761
3184.59	33.5471
3183.99	16.771
3183.4	12.5764
3182.8	37.7234
3182.2	25.1451
3181.61	20.9511
3181.01	8.37917
3180.41	33.5116
3179.82	12.5649
3179.22	12.563
3178.62	29.3093
3178.03	20.9321
3177.43	20.9289
3176.83	0
3176.23	41.8451
3175.64	46.0227
3175.04	8.36649
3174.44	8.36523
3173.84	46.0018
3173.25	25.0881
3172.65	25.0843
3172.05	29.2606
3171.45	37.615
3170.85	4.17881
3170.26	20.8909
3169.66	16.7102
3169.06	16.7077
3168.46	16.7051
3167.86	20.8782
3167.26	37.5751
3166.66	8.34877
3166.06	29.2163
3165.47	29.2118
3164.87	29.2074
3164.27	25.0311
3163.67	0
3163.07	20.8529
3162.47	4.16996
3161.87	50.0319
3161.27	-12.5061
3160.67	33.3445
3160.07	33.3394
3159.47	12.5004
3158.87	24.997
3158.27	16.6621
3157.67	29.1543
3157.07	12.4928
3156.47	20.8182
3155.87	29.1411
3155.27	16.6495
3154.67	16.647
3154.07	41.6111
3153.46	8.32097
3152.86	20.7993
3152.26	29.1145
3151.66	12.4758
3151.06	12.4739
3150.46	12.472
3149.86	20.7835
3149.26	33.2485
3148.65	16.6217
3148.05	16.6192
3147.45	20.7709
3146.85	20.7677
3146.25	45.6821
3145.64	4.15228
3145.04	12.455
3144.44	20.7551
3143.84	33.2031
3143.24	45.6474
3142.63	20.7457
3142.03	12.4455
3141.43	37.3309
3140.82	24.8835
3140.22	45.6128
3139.62	16.5839
3139.02	-4.14535
3138.41	4.14473
3137.81	41.441
3137.21	16.5739
3136.6	20.7142
3136	4.14221
3135.4	12.4247
3134.79	33.1276
3134.19	41.4032
3133.58	24.8381
3132.98	4.13906
3132.38	33.1075
3131.77	8.27561
3131.17	16.5487
3130.56	12.4096
3129.96	28.9514
3129.35	16.5412
3128.75	20.6733
3128.14	20.6702
3127.54	24.8004
3126.93	24.7967
3126.33	41.3215
3125.72	41.3152
3125.12	20.6545
3124.51	4.13026
3123.91	24.7778
3123.3	20.645
3122.7	16.5135
3122.09	20.6388
3121.49	20.6356
3120.88	37.1385
3120.27	33.007
3119.67	28.8767
3119.06	24.7477
3118.46	28.8679
3117.85	12.3701
3117.24	16.4909
3116.64	20.6105
3116.03	20.6074
3115.42	28.846
3114.82	24.7214
3114.21	32.9568
3113.6	57.6656
3113	24.7101
3112.39	4.11772
3111.78	24.7026
3111.17	24.6988
3110.57	49.3901
3109.96	41.1521
3109.35	16.4583
3108.74	41.1396
3108.14	12.34
3107.53	24.6762
3106.92	24.6725
3106.31	12.3344
3105.7	28.7758
3105.1	28.7714
3104.49	28.767
3103.88	36.9806
3103.27	36.9749
3102.66	32.8616
3102.05	20.5354
3101.44	16.4258
3100.84	36.9524
3100.23	49.2624
3099.62	20.5229
3099.01	20.5197
3098.4	36.9299
3097.79	16.4108
3097.18	32.8166
3096.57	16.4058
3095.96	16.4033
3095.35	32.8016
3094.74	45.0953
3094.13	24.5937
3093.52	-4.09832
3092.91	36.8793
3092.3	16.3883
3091.69	20.4822
3091.08	16.3833
3090.47	36.8568
3089.86	12.2837
3089.25	36.8456
3088.64	45.0266
3088.03	32.7416
3087.42	36.8287
3086.81	53.1889
3086.19	28.6358
3085.58	36.8119
3084.97	24.5375
3084.36	28.6227
3083.75	8.17667
3083.14	20.4386
3082.53	8.17418
3081.91	16.3459
3081.3	28.6009
3080.69	40.8522
3080.08	57.1844
3079.47	16.3359
3078.85	16.3334
3078.24	16.3309
3077.63	36.7389
3077.02	44.8963
3076.4	57.132
3075.79	28.5617
3075.18	20.3981
3074.57	28.5529
3073.95	16.3135
3073.34	28.5442
3072.73	4.07712
3072.11	12.2295
3071.5	28.5311
3070.89	24.4515
3070.27	20.3732
3069.66	12.222
3069.05	44.8073
3068.43	20.3638
3067.82	24.4329
3067.2	57.0013
3066.59	-4.0709
3065.98	48.8434
3065.36	24.418
3064.75	44.7594
3064.13	20.3421
3063.52	24.4068
3062.9	36.6046
3062.29	8.1331
3061.67	48.7912
3061.06	36.5878
3060.44	32.5175
3059.83	4.06407
3059.21	44.6979
3058.6	36.5654
3057.98	24.3732
3057.37	12.1847
3056.75	36.5487
3056.14	24.362
3055.52	24.3583
3054.9	77.1229
3054.29	40.5848
3053.67	36.5207
3053.06	12.1717
3052.44	44.6228
3051.82	20.28
3051.21	36.4984
3050.59	28.3833
3049.97	44.5955
3049.36	28.3746
3048.74	36.4761
3048.12	24.3137
3047.51	28.3616
3046.89	24.3062
3046.27	28.3529
3045.65	16.1992
3045.04	32.3934
3044.42	28.3399
3043.8	56.6712
3043.18	60.7098
3042.57	16.1868
3041.95	20.2304
3041.33	12.1364
3040.71	60.6727
3040.09	4.04422
3039.48	48.5233
3038.86	20.2149
3038.24	24.2542
3037.62	60.6262
3037	28.2879
3036.38	16.162
3035.76	12.1197
3035.14	24.2357
3034.53	48.4639
3033.91	44.4184
3033.29	40.3742
3032.67	20.184
3032.05	28.2533
3031.43	40.3557
3030.81	44.3844
3030.19	36.309
3029.57	28.236
3028.95	36.2978
3028.33	56.4547
3027.71	20.1593
3027.09	20.1562
3026.47	32.245
3025.85	16.12
3025.23	52.382
3024.61	32.2302
3023.99	36.2534
3023.37	28.1927
3022.75	32.2153
3022.13	36.2367
3021.5	32.2055
3020.88	44.2757
3020.26	16.0978
3019.64	44.2622
3019.02	20.1161
3018.4	36.2034
3017.78	32.1759
3017.15	36.1923
3016.53	52.2697
3015.91	28.1409
3015.29	28.1366
3014.67	20.0945
3014.04	44.2011
3013.42	36.159
3012.8	40.1705
3012.18	24.0986
3011.56	40.1582
3010.93	36.1368
3010.31	24.0875
3009.69	32.1118
3009.06	20.0668
3008.44	4.01274
3007.82	20.0606
3007.19	20.0575
3006.57	52.1416
3005.95	32.0822
3005.32	28.0676
3004.7	28.0633
3004.08	28.059
3003.45	40.0782
3002.83	52.0936
3002.21	44.0724
3001.58	44.0657
3000.96	16.0214
3000.33	28.0332
2999.71	24.0248
2999.08	36.0316
2998.46	24.0174
2997.84	24.0137
2997.21	48.02
2996.59	36.0095
2995.96	36.0039
2995.34	43.9981
2994.71	23.9953
2994.09	35.9874
2993.46	55.9717
2992.83	31.9789
2992.21	15.987
2991.58	27.973
2990.96	15.9821
2990.33	47.9389
2989.71	15.9772
2989.08	27.9558
2988.45	27.9515
2987.83	39.9246
2987.2	47.9021
2986.58	39.9123
2985.95	23.9437
2985.32	47.88
2984.7	55.8514
2984.07	35.899
2983.44	55.8343
2982.82	23.9253
2982.19	43.8563
2981.56	47.8359
2980.93	35.8714
2980.31	39.851
2979.68	39.8448
2979.05	47.8065
2978.42	15.933
2977.8	39.8265
2977.17	51.7664
2976.54	55.7399
2975.91	35.8273
2975.28	47.7624
2974.66	15.9183
2974.03	31.8318
2973.4	47.7403
2972.77	51.7107
2972.14	43.7485
2971.51	39.7652
2970.88	35.7832
2970.26	3.9753
2969.63	43.7216
2969	51.663
2968.37	51.655
2967.74	55.6199
2967.11	35.7502
2966.48	31.773
2965.85	39.7102
2965.22	35.7337
2964.59	47.6375
2963.96	35.7227
2963.33	15.8743
2962.7	47.6155
2962.07	19.8368
2961.44	39.6674
2960.81	43.6274
2960.18	39.6552
2959.55	27.7544
2958.92	43.6073
2958.29	31.7095
2957.66	71.3354
2957.03	51.512
2956.4	43.5804
2955.76	43.5737
2955.13	35.6457
2954.5	27.7202
2953.87	39.5941
2953.24	27.7116
2952.61	31.6655
2951.98	51.4486
2951.34	55.3976
2950.71	31.6509
2950.08	35.6018
2949.45	31.6411
2948.82	67.2271
2948.18	43.4932
2947.55	55.3464
2946.92	39.5271
2946.29	47.4251
2945.65	51.3693
2945.02	19.7544
2944.39	43.4529
2943.76	63.1945
2943.12	35.5414
2942.49	43.4328
2941.86	35.5305
2941.22	35.525
2940.59	43.4127
2939.96	35.514
2939.32	35.5086
2938.69	55.227
2938.05	43.386
2937.42	67.0407
2936.79	47.3155
2936.15	67.02
2935.52	55.1844
2934.88	59.117
2934.25	66.989
2933.61	43.3391
2932.98	63.029
2932.34	70.8967
2931.71	74.8238
2931.08	102.375
2930.44	70.8638
2929.81	74.7892
2929.17	51.1636
2928.53	78.7011
2927.9	94.4268
2927.26	43.2723
2926.63	51.132
2925.99	39.3263
2925.36	70.7764
2924.72	55.0398
2924.08	62.8929
2923.45	78.604
2922.81	43.2255
2922.18	113.941
2921.54	58.9256
2920.9	66.7721
2920.27	74.6161
2919.63	43.1921
2918.99	70.6671
2918.36	51.0295
2917.72	51.0216
2917.08	94.1791
2916.44	39.2352
2915.81	74.5354
2915.17	78.4462
2914.53	50.9822
2913.9	50.9743
2913.26	98.0123
2912.62	50.9585
2911.98	62.7085
2911.34	58.7801
2910.71	70.5252
2910.07	82.2667
2909.43	109.672
2908.79	82.2413
2908.15	70.4816
2907.51	97.876
2906.88	54.8021
2906.24	86.1042
2905.6	74.3512
2904.96	74.3397
2904.32	66.5042
2903.68	70.4053
2903.04	50.8404
2902.4	74.2937
2901.76	39.0959
2901.12	74.2707
2900.48	70.3509
2899.84	85.9711
2899.2	66.4219
2898.56	78.1313
2897.92	93.7431
2897.28	70.2964
2896.64	85.9046
2896	74.1788
2895.36	85.878
2894.72	85.8647
2894.08	62.4374
2893.44	89.7398
2892.8	101.429
2892.16	81.911
2891.52	85.7982
2890.88	66.2884
2890.24	66.2781
2889.59	66.2678
2888.95	93.5401
2888.31	81.8349
2887.67	62.3408
2887.03	77.9139
2886.39	81.7969
2885.74	89.5732
2885.1	109.029
2884.46	97.332
2883.82	144.029
2883.18	93.4098
2882.53	97.2868
2881.89	108.944
2881.25	105.037
2880.6	85.5725
2879.96	124.45
2879.32	89.4345
2878.68	81.6449
2878.03	104.956
2877.39	128.259
2876.75	143.784
2876.1	108.792
2875.46	116.545
2874.82	104.874
2874.17	112.625
2873.53	100.959
2872.88	81.531
2872.24	89.2821
2871.6	65.9808
2870.95	97.0156
2870.31	81.4805
2869.66	96.9855
2869.02	62.0611
2868.37	81.4426
2867.73	62.0418
2867.08	112.433
2866.44	81.4047
2865.79	100.771
2865.15	112.381
2864.5	85.2414
2863.86	92.9762
2863.21	81.3415
2862.57	73.5833
2861.92	89.0607
2861.28	81.3036
2860.63	104.517
2859.98	116.112
2859.34	96.745
2858.69	85.1224
2858.05	104.452
2857.4	96.6999
2856.75	85.0827
2856.11	77.3359
2855.46	108.253
2854.81	135.296
2854.17	96.6248
2853.52	92.7454
2852.87	131.369
2852.23	131.349
2851.58	123.603
2850.93	119.722
2850.28	131.287
2849.64	111.963
2848.99	100.365
2848.34	111.928
2847.69	127.347
2847.05	162.053
2846.4	127.307
2845.75	138.859
2845.1	127.268
2844.45	104.112
2843.8	104.096
2843.16	119.499
2842.51	123.334
2841.86	104.047
2841.21	134.855
2840.56	115.572
2839.91	111.702
2839.26	92.4289
2838.61	84.7133
2837.96	100.1
2837.31	69.2893
2836.66	80.8249
2836.01	53.8749
2835.36	69.257
2834.72	65.3992
2834.07	61.5426
2833.42	65.3788
2832.76	65.3687
2832.11	69.2031
2831.46	53.8163
2830.81	69.1816
2830.16	76.8565
2829.51	49.9489
2828.86	72.9909
2828.21	65.2975
2827.56	42.2447
2826.91	46.078
2826.26	69.1063
2825.61	57.5796
2824.96	46.0565
2824.3	57.5617
2823.65	57.5527
2823	80.5612
2822.35	65.2061
2821.7	72.866
2821.04	53.6824
2820.39	84.3449
2819.74	72.832
2819.09	38.3267
2818.44	38.3207
2817.78	45.9777
2817.13	72.7866
2816.48	68.945
2815.83	80.4233
2815.17	57.4363
2814.52	19.1424
2813.87	57.4184
2813.21	42.1002
2812.56	45.9204
2811.91	65.0437
2811.25	65.0336
2810.6	57.3736
2809.95	61.189
2809.29	57.3558
2808.64	49.7006
2807.98	38.2253
2807.33	76.4386
2806.68	49.6773
2806.02	64.9525
2805.37	57.3021
2804.71	42.015
2804.06	80.198
2803.4	53.457
2802.75	26.7243
2802.09	41.9888
2801.44	53.432
2800.78	57.2396
2800.13	49.5999
2799.47	57.2218
2798.82	57.2128
2798.16	64.8311
2797.51	41.943
2796.85	83.8729
2796.19	80.048
2795.54	41.9234
2794.88	49.538
2794.23	49.5303
2793.57	57.1414
2792.91	72.3679
2792.26	64.7401
2791.6	45.6918
2790.94	79.9481
2790.29	45.6775
2789.63	49.4762
2788.97	60.8843
2788.32	64.6795
2787.66	49.4531
2787	60.8558
2786.34	34.226
2785.69	91.2552
2785.03	72.2324
2784.37	64.6189
2783.71	49.4067
2783.06	83.5983
2782.4	56.99
2781.74	56.9811
2781.08	68.3666
2780.42	53.1657
2779.76	60.7513
2779.11	68.3346
2778.45	64.5281
2777.79	68.3132
2777.13	68.3025
2776.47	56.9099
2775.81	53.1076
2775.15	60.6849
2774.49	53.091
2773.83	56.8743
2773.17	37.9103
2772.51	72.0183
2771.86	64.4273
2771.2	41.6817
2770.54	64.4072
2769.88	83.3374
2769.22	83.3244
2768.56	49.2294
2767.9	87.0846
2767.23	64.3568
2766.57	60.5617
2765.91	60.5522
2765.25	79.4623
2764.59	49.1833
2763.93	45.3928
2763.27	79.425
2762.61	49.1602
2761.95	83.1811
2761.29	34.0233
2760.63	68.036
2759.96	56.6878
2759.3	60.4575
2758.64	34.002
2757.98	64.216
2757.32	67.9828
2756.65	60.4197
2755.99	71.7371
2755.33	45.3006
2754.67	45.2935
2754.01	79.2512
2753.34	94.3319
2752.68	56.5903
2752.02	60.3535
2751.35	90.5161
2750.69	52.7928
2750.03	75.4064
2749.37	67.8552
2748.7	37.6914
2748.04	60.2968
2747.38	56.5194
2746.71	60.2779
2746.05	79.1024
2745.38	67.7914
2744.72	90.3744
2744.06	56.4751
2743.39	56.4663
2742.73	63.9851
2742.06	63.9751
2741.4	52.6771
2740.73	48.9068
2740.07	82.7524
2739.41	90.2612
2738.74	52.6441
2738.08	71.4343
2737.41	41.3502
2736.75	71.4119
2736.08	71.4008
2735.41	78.9042
2734.75	67.6216
2734.08	93.9042
2733.42	45.0669
2732.75	78.8548
2732.09	71.3336
2731.42	45.0457
2730.75	67.558
2730.09	78.8053
2729.42	78.7929
2728.76	78.7806
2728.09	86.27
2727.42	30.0022
2726.76	67.4944
2726.09	56.2365
2725.42	78.7188
2724.75	82.4544
2724.09	63.7047
2723.42	67.4415
2722.75	56.1924
2722.09	63.6748
2721.42	86.1347
2720.75	67.3992
2720.08	78.62
2719.41	71.1212
2718.75	59.8822
2718.08	86.0671
2717.41	63.6048
2716.74	71.0766
2716.07	48.6237
2715.41	59.8352
2714.74	85.9995
2714.07	71.0319
2713.4	78.4967
2712.73	89.6964
2712.06	89.6823
2711.39	85.932
2710.72	93.3897
2710.05	78.435
2709.38	56.0162
2708.71	63.4751
2708.04	74.6648
2707.37	78.3857
2706.7	37.3207
2706.03	82.0926
2705.36	74.6179
2704.69	63.4152
2704.02	41.0269
2703.35	48.4788
2702.68	63.3853
2702.01	78.2872
2701.34	63.3654
2700.67	85.7162
2700	67.0717
2699.33	78.238
2698.66	78.2257
2697.99	78.2134
2697.32	70.7534
2696.64	96.8052
2695.97	85.6219
2695.3	55.8316
2694.63	70.7089
2693.96	74.4187
2693.29	78.1273
2692.61	81.8348
2691.94	78.1027
2691.27	81.809
2690.6	63.2061
2689.92	37.1742
2689.25	66.9031
2688.58	81.7576
2687.91	63.1664
2687.23	70.5866
2686.56	107.72
2685.89	81.7061
2685.21	92.8332
2684.54	55.6912
2683.87	96.5162
2683.19	77.9431
2682.52	81.6418
2681.85	77.9185
2681.17	70.4866
2680.5	70.4755
2679.82	92.7164
2679.15	70.4533
2678.48	63.0273
2677.8	74.138
2677.13	55.5948
2676.45	74.1147
2675.78	81.5133
2675.1	92.6142
2674.43	96.3036
2673.75	59.2544
2673.08	59.2451
2672.4	74.0447
2671.73	92.5412
2671.05	85.1245
2670.37	96.2126
2669.7	77.6979
2669.02	77.6856
2668.35	66.5772
2667.67	66.5667
2667	51.7659
2666.32	96.1216
2665.64	62.8388
2664.97	81.308
2664.29	103.467
2663.61	99.7556
2662.94	66.4933
2662.26	96.0307
2661.58	81.2439
2660.91	62.7695
2660.23	81.2183
2659.55	88.5878
2658.87	84.8833
2658.2	77.4899
2657.52	92.2353
2656.84	88.5319
2656.16	73.765
2655.49	77.441
2654.81	117.987
2654.13	73.73
2653.45	66.3466
2652.77	84.7628
2652.09	121.597
2651.42	88.4202
2650.74	88.4062
2650.06	95.7583
2649.38	99.4256
2648.7	88.3644
2648.02	80.9879
2647.34	99.3785
2646.66	80.9623
2645.98	80.9495
2645.3	106.689
2644.62	84.6023
2643.94	80.9112
2643.26	99.2844
2642.58	66.1792
2641.9	80.8729
2641.22	102.913
2640.54	55.1232
2639.86	99.206
2639.18	77.1481
2638.5	77.1359
2637.82	73.4511
2637.14	77.1115
2636.46	77.0993
2635.78	88.0996
2635.1	77.0749
2634.42	73.3931
2633.73	91.7269
2633.05	77.0384
2632.37	69.6904
2631.69	73.3467
2631.01	84.3354
2630.33	62.325
2629.64	69.6463
2628.96	87.9604
2628.28	80.6176
2627.6	102.588
2626.91	91.5819
2626.23	87.9048
2625.55	65.9181
2624.87	91.5385
2624.18	91.524
2623.5	84.1888
2622.82	98.8147
2622.13	84.1621
2621.45	69.5142
2620.77	87.7936
2620.08	91.4372
2619.4	106.05
2618.72	73.1266
2618.03	76.7708
2617.35	76.7586
2616.67	51.1643
2615.98	87.6964
2615.3	94.9894
2614.61	84.0157
2613.93	94.9593
2613.24	98.596
2612.56	102.231
2611.87	91.2636
2611.19	76.6493
2610.5	98.5335
2609.82	105.816
2609.13	80.2611
2608.45	102.134
2607.76	69.2945
2607.08	65.637
2606.39	102.086
2605.71	76.5523
2605.02	91.1192
2604.33	112.97
2603.65	109.308
2602.96	98.362
2602.27	91.0615
2601.59	76.4795
2600.9	94.6739
2600.21	80.096
2599.53	109.205
2598.84	90.9893
2598.15	90.9749
2597.47	83.6836
2596.78	94.5839
2596.09	98.2062
2595.41	98.1906
2594.72	72.7223
2594.03	72.7107
2593.34	112.684
2592.65	94.494
2591.97	105.38
2591.28	79.9311
2590.59	79.9184
2589.9	90.802
2589.21	94.4191
2588.52	83.5113
2587.84	79.8677
2587.15	90.7444
2586.46	119.764
2585.77	148.774
2585.08	65.3048
2584.39	76.1769
2583.7	90.6724
2583.01	83.4054
2582.32	105.147
2581.63	97.8796
2580.94	105.113
2580.25	76.1044
2579.56	105.08
2578.87	76.0802
2578.18	86.935
2577.49	86.9212
2576.8	97.7708
2576.11	83.273
2575.42	79.6398
2574.73	101.344
2574.04	86.8522
2573.35	108.548
2572.66	90.4423
2571.97	83.1937
2571.28	75.9474
2570.58	133.791
2569.89	112.077
2569.2	75.9112
2568.51	115.656
2567.82	104.796
2567.13	101.167
2566.43	90.3131
2565.74	93.9107
2565.05	90.2844
2564.36	79.4376
2563.66	93.8659
2562.97	93.851
2562.28	111.881
2561.59	108.255
2560.89	108.238
2560.2	108.221
2559.51	100.99
2558.81	100.974
2558.12	93.7466
2557.43	86.5216
2556.73	97.3213
2556.04	68.4745
2555.35	86.4803
2554.65	82.8638
2553.96	108.066
2553.26	129.659
2552.57	118.835
2551.88	93.6125
2551.18	115.197
2550.49	79.1854
2549.79	107.963
2549.1	86.3565
2548.4	107.928
2547.71	107.911
2547.01	125.877
2546.32	115.069
2545.62	89.8832
2544.93	89.8689
2544.23	107.825
2543.53	68.2786
2542.84	75.4538
2542.14	111.366
2541.45	100.573
2540.75	125.696
2540.05	93.3595
2539.36	96.9348
2538.66	114.867
2537.97	93.3149
2537.27	89.7116
2536.57	125.576
2535.88	107.62
2535.18	93.2555
2534.48	121.93
2533.78	118.325
2533.09	96.7959
2532.39	114.703
2531.69	100.349
2530.99	100.333
2530.3	100.317
2529.6	93.1366
2528.9	107.448
2528.2	114.593
2527.5	118.155
2526.81	89.4974
2526.11	100.221
2525.41	125.256
2524.71	96.611
2524.01	118.061
2523.31	114.465
2522.61	71.5294
2521.91	118.005
2521.21	107.26
2520.52	100.093
2519.82	100.077
2519.12	85.7669
2518.42	125.057
2517.72	92.8845
2517.02	100.014
2516.32	117.854
2515.62	110.694
2514.92	114.246
2514.22	121.367
2513.52	114.21
2512.82	110.623
2512.11	96.3339
2511.41	121.29
2510.71	99.87
2510.01	117.685
2509.31	117.666
2508.61	135.473
2507.91	106.935
2507.21	103.354
2506.5	121.155
2505.8	103.321
2505.1	131.803
2504.4	99.7265
2503.7	103.272
2503	92.5736
2502.29	106.799
2501.59	85.4253
2500.89	106.765
2500.19	106.748
2499.48	124.519
2498.78	124.499
2498.08	110.253
2497.37	120.903
2496.67	103.107
2495.97	103.09
2495.26	117.291
2494.56	124.38
2493.86	117.254
2493.15	110.13
2492.45	106.56
2491.75	110.094
2491.04	124.28
2490.34	145.562
2489.63	117.141
2488.93	110.024
2488.22	110.006
2487.52	109.989
2486.81	99.3289
2486.11	124.141
2485.41	109.936
2484.7	102.827
2483.99	131.172
2483.29	120.517
2482.58	127.586
2481.88	106.305
2481.17	124.002
2480.47	102.728
2479.76	116.879
2479.06	123.943
2478.35	113.301
2477.64	134.523
2476.94	99.1066
2476.23	116.786
2475.52	116.767
2474.82	113.21
2474.11	127.341
2473.4	134.394
2472.7	144.981
2471.99	116.673
2471.28	109.585
2470.57	106.033
2469.87	137.821
2469.16	116.599
2468.45	116.58
2467.74	113.029
2467.04	116.543
2466.33	112.993
2465.62	105.914
2464.91	134.136
2464.2	119.997
2463.5	95.2768
2462.79	116.431
2462.08	144.633
2461.37	137.556
2460.66	105.795
2459.95	130.46
2459.24	133.964
2458.53	144.517
2457.82	137.446
2457.11	137.424
2456.4	137.402
2455.69	116.244
2454.99	130.314
2454.28	137.336
2453.57	119.709
2452.85	119.69
2452.14	95.0327
2451.43	130.209
2450.72	137.225
2450.01	112.577
2449.3	112.559
2448.59	112.541
2447.88	116.039
2447.17	147.663
2446.46	119.517
2445.75	126.527
2445.04	126.507
2444.32	126.487
2443.61	115.928
2442.9	115.909
2442.19	119.402
2441.48	112.361
2440.76	136.918
2440.05	101.794
2439.34	129.854
2438.63	140.361
2437.92	119.287
2437.2	140.316
2436.49	112.234
2435.78	126.243
2435.06	119.211
2434.35	129.709
2433.64	101.647
2432.92	143.685
2432.21	140.158
2431.5	105.102
2430.78	115.593
2430.07	150.597
2429.36	143.57
2428.64	115.537
2427.93	133.022
2427.21	119
2426.5	101.484
2425.78	118.962
2425.07	132.936
2424.35	146.906
2423.64	129.396
2422.92	132.872
2422.21	136.347
2421.49	171.28
2420.78	115.333
2420.06	160.742
2419.35	136.259
2418.63	139.731
2417.92	129.23
2417.2	171.115
2416.48	146.646
2415.77	132.659
2415.05	146.599
2414.34	129.126
2413.62	136.084
2412.9	143.04
2412.19	153.481
2411.47	146.481
2410.75	104.613
2410.04	160.38
2409.32	142.925
2408.6	121.989
2407.88	132.424
2407.17	146.34
2406.45	132.381
2405.73	153.259
2405.01	160.2
2404.29	100.979
2403.58	125.333
2402.86	153.161
2402.14	163.577
2401.42	160.071
2400.7	142.649
2399.98	149.583
2399.27	128.69
2398.55	156.49
2397.83	135.603
2397.11	121.675
2396.39	159.89
2395.67	163.34
2394.95	142.465
2394.23	149.391
2393.51	152.84
2392.79	135.45
2392.07	156.263
2391.35	163.182
2390.63	138.856
2389.91	114.538
2389.19	163.103
2388.47	152.668
2387.75	166.52
2387.03	159.556
2386.31	149.126
2385.59	145.634
2384.87	162.946
2384.14	135.188
2383.42	135.167
2382.7	121.284
2381.98	148.982
2381.26	128.173
2380.54	148.934
2379.82	155.836
2379.09	176.585
2378.37	193.866
2377.65	162.683
2376.93	166.118
2376.2	131.489
2375.48	179.903
2374.76	162.578
2374.04	148.718
2373.31	165.984
2372.59	159.042
2371.87	165.93
2371.14	186.641
2370.42	134.775
2369.7	162.395
2368.97	155.459
2368.25	151.98
2367.52	141.595
2366.8	141.572
2366.08	138.097
2365.35	151.882
2364.63	148.406
2363.9	155.283
2363.18	172.509
2362.45	165.582
2361.73	165.555
2361	155.183
2360.28	175.846
2359.55	155.133
2358.83	179.236
2358.1	137.851
2357.38	151.612
2356.65	155.033
2355.93	134.34
2355.2	161.871
2354.47	151.514
2353.75	127.389
2353.02	168.677
2352.3	161.766
2351.57	172.064
2350.84	161.714
2350.12	165.128
2349.39	151.343
2348.66	147.879
2347.94	154.732
2347.21	147.831
2346.48	185.619
2345.75	158.094
2345.03	158.069
2344.3	137.429
2343.57	178.628
2342.84	188.903
2342.11	161.4
2341.39	154.507
2340.66	185.379
2339.93	199.078
2339.2	195.614
2338.47	126.957
2337.74	154.382
2337.02	164.648
2336.29	123.466
2335.56	188.598
2334.83	150.854
2334.1	161.113
2333.37	143.95
2332.64	161.061
2331.91	157.609
2331.18	184.989
2330.45	154.133
2329.72	154.108
2328.99	150.659
2328.26	174.599
2327.53	177.993
2326.8	171.12
2326.07	174.514
2325.34	212.12
2324.61	153.933
2323.88	171.009
2323.14	198.338
2322.41	170.954
2321.68	174.344
2320.95	167.48
2320.22	170.87
2319.49	201.594
2318.76	191.313
2318.02	163.956
2317.29	167.344
2316.56	177.561
2315.83	153.634
2315.1	177.504
2314.36	204.779
2313.63	167.209
2312.9	174.006
2312.16	170.566
2311.43	184.181
2310.7	197.792
2309.97	180.712
2309.23	231.819
2308.5	184.062
2307.76	173.808
2307.03	184.002
2306.3	156.717
2305.56	153.285
2304.83	200.942
2304.1	170.262
2303.36	180.448
2302.63	204.248
2301.89	204.215
2301.16	207.585
2300.42	149.709
2299.69	156.488
2298.95	190.477
2298.22	180.243
2297.48	166.613
2296.75	176.785
2296.01	210.748
2295.28	210.714
2294.54	200.486
2293.8	173.273
2293.07	180.039
2292.33	210.577
2291.6	163.001
2290.86	200.323
2290.12	196.895
2289.39	162.922
2288.65	162.895
2287.91	200.193
2287.18	213.73
2286.44	189.952
2285.7	193.312
2284.97	210.235
2284.23	196.64
2283.49	227.116
2282.75	203.354
2282.01	230.431
2281.28	193.124
2280.54	199.868
2279.8	165.965
2279.06	165.938
2278.32	213.314
2277.59	196.352
2276.85	226.784
2276.11	186.136
2275.37	206.408
2274.63	213.14
2273.89	219.871
2273.15	189.397
2272.41	209.655
2271.67	236.669
2270.93	192.685
2270.19	236.592
2269.45	233.174
2268.71	246.651
2267.97	206.072
2267.23	179.017
2266.49	209.382
2265.75	185.712
2265.01	239.698
2264.27	175.525
2263.53	175.497
2262.79	205.837
2262.05	182.187
2261.31	209.144
2260.57	202.364
2259.83	188.843
2259.09	205.67
2258.34	209.008
2257.6	188.75
2256.86	208.939
2256.12	202.167
2255.38	185.289
2254.63	212.206
2253.89	205.436
2253.15	222.238
2252.41	222.202
2251.66	205.335
2250.92	222.13
2250.18	195.173
2249.43	215.328
2248.69	205.201
2247.95	208.531
2247.21	242.126
2246.46	235.362
2245.72	221.876
2244.97	238.646
2244.23	231.886
2243.49	208.328
2242.74	228.451
2242	191.464
2241.25	208.226
2240.51	241.771
2239.76	218.23
2239.02	201.41
2238.27	228.228
2237.53	218.123
2236.78	224.798
2236.04	224.761
2235.29	177.767
2234.55	241.456
2233.8	194.474
2233.06	204.5
2232.31	224.578
2231.57	221.19
2230.82	211.101
2230.07	207.717
2229.33	234.481
2228.58	227.744
2227.83	217.661
2227.09	200.885
2226.34	217.59
2225.59	237.636
2224.85	210.826
2224.1	230.867
2223.35	224.138
2222.6	230.791
2221.86	210.688
2221.11	250.778
2220.36	207.276
2219.61	210.585
2218.87	230.603
2218.12	217.199
2217.37	217.164
2216.62	243.852
2215.87	200.393
2215.12	227.075
2214.37	243.732
2213.63	193.619
2212.88	263.679
2212.13	220.253
2211.38	243.573
2210.63	243.533
2209.88	253.5
2209.13	213.439
2208.38	213.404
2207.63	240.04
2206.88	226.667
2206.13	253.293
2205.38	256.584
2204.63	279.864
2203.88	216.526
2203.13	253.127
2202.38	219.785
2201.63	233.067
2200.88	213.055
2200.12	239.648
2199.37	246.264
2198.62	249.551
2197.87	256.164
2197.12	236.165
2196.37	266.058
2195.62	236.087
2194.86	239.373
2194.11	239.334
2193.36	235.972
2192.61	255.871
2191.85	235.894
2191.1	232.534
2190.35	249.102
2189.6	245.741
2188.84	262.302
2188.09	235.701
2187.34	252.259
2186.58	255.536
2185.83	258.812
2185.08	238.864
2184.32	222.24
2183.57	205.621
2182.82	258.643
2182.06	261.916
2181.31	261.873
2180.55	215.43
2179.8	215.394
2179.04	218.672
2178.29	245.138
2177.53	241.785
2176.78	235.123
2176.02	251.639
2175.27	258.219
2174.51	254.867
2173.76	238.278
2173	241.548
2172.25	248.125
2171.49	238.161
2170.74	254.658
2169.98	277.763
2169.22	261.187
2168.47	221.477
2167.71	247.881
2166.95	277.581
2166.2	261.015
2165.44	267.58
2164.68	227.901
2163.93	260.887
2163.17	267.448
2162.41	257.5
2161.65	277.262
2160.9	247.515
2160.14	280.471
2159.38	250.733
2158.62	253.99
2157.87	247.353
2157.11	257.204
2156.35	290.132
2155.59	214.267
2154.83	296.628
2154.07	253.74
2153.31	270.173
2152.56	233.891
2151.8	263.496
2151.04	246.987
2150.28	283.166
2149.52	279.827
2148.76	243.574
2148	266.571
2147.24	269.818
2146.48	305.963
2145.72	273.019
2144.96	302.573
2144.2	256.487
2143.44	279.459
2142.68	272.839
2141.92	282.654
2141.16	266.177
2140.4	279.276
2139.64	269.375
2138.87	282.469
2138.11	288.99
2137.35	239.691
2136.59	285.612
2135.83	246.177
2135.07	282.236
2134.31	262.502
2133.54	311.67
2132.78	262.416
2132.02	278.771
2131.26	295.121
2130.49	314.744
2129.73	285.19
2128.97	294.975
2128.21	298.204
2127.44	275.22
2126.68	262.071
2125.92	304.607
2125.15	265.259
2124.39	301.233
2123.63	284.814
2122.86	258.582
2122.1	268.357
2121.33	301.034
2120.57	287.899
2119.81	310.748
2119.04	274.722
2118.28	330.266
2117.51	290.978
2116.75	320.35
2115.98	277.809
2115.22	300.638
2114.45	287.52
2113.69	277.672
2112.92	280.892
2112.16	303.706
2111.39	329.777
2110.62	277.489
2109.86	261.123
2109.09	277.398
2108.33	270.826
2107.56	274.044
2106.79	296.832
2106.03	296.783
2105.26	296.734
2104.49	286.904
2103.73	267.299
2102.96	283.551
2102.19	312.832
2101.42	299.748
2100.66	302.956
2099.89	260.564
2099.12	280.06
2098.35	289.782
2097.59	315.778
2096.82	309.216
2096.05	341.709
2095.28	302.606
2094.51	309.063
2093.74	276.484
2092.98	325.222
2092.21	338.175
2091.44	276.348
2090.67	351.066
2089.9	312.007
2089.13	279.46
2088.36	347.643
2087.59	396.313
2086.82	315.049
2086.05	305.255
2085.28	331.179
2084.51	314.893
2083.74	292.121
2082.97	311.544
2082.2	321.227
2081.43	295.22
2080.66	343.826
2079.89	321.068
2079.12	311.287
2078.35	295.025
2077.57	294.976
2076.8	317.615
2076.03	317.562
2075.26	298.07
2074.49	320.696
2073.72	301.211
2072.94	349.735
2072.17	314.062
2071.4	359.331
2070.63	320.432
2069.86	271.836
2069.08	300.912
2068.31	342.918
2067.54	336.392
2066.76	339.571
2065.99	326.581
2065.22	307.129
2064.44	307.078
2063.67	339.346
2062.9	303.746
2062.12	332.773
2061.35	319.796
2060.58	342.352
2059.8	310.003
2059.03	303.494
2058.25	351.866
2057.48	303.394
2056.7	322.706
2055.93	312.973
2055.15	383.893
2054.38	348.35
2053.6	296.693
2052.83	328.888
2052.05	354.625
2051.28	312.663
2050.5	325.502
2049.72	354.448
2048.95	315.729
2048.17	335.004
2047.4	322.066
2046.62	376.755
2045.84	344.496
2045.07	386.287
2044.29	328.29
2043.51	376.505
2042.74	312.094
2041.96	331.343
2041.18	360.236
2040.4	324.802
2039.63	360.117
2038.85	363.272
2038.07	363.212
2037.29	337.442
2036.52	363.091
2035.74	314.841
2034.96	334.062
2034.18	369.334
2033.4	359.64
2032.62	340.317
2031.84	381.99
2031.07	375.508
2030.29	343.357
2029.51	375.384
2028.73	359.282
2027.95	368.844
2027.17	375.197
2026.39	362.31
2025.61	381.484
2024.83	365.395
2024.05	368.539
2023.27	378.09
2022.49	378.027
2021.71	313.903
2020.93	365.092
2020.15	374.637
2019.37	400.187
2018.59	355.307
2017.8	393.653
2017.02	348.789
2016.24	390.323
2015.46	396.656
2014.68	367.806
2013.9	361.349
2013.11	377.275
2012.33	409.18
2011.55	380.346
2010.77	361.109
2009.99	373.83
2009.2	402.519
2008.42	424.81
2007.64	373.643
2006.85	408.704
2006.07	367.134
2005.29	386.225
2004.5	379.778
2003.72	382.906
2002.94	382.842
2002.15	360.45
2001.37	373.147
2000.59	404.973
1999.8	392.152
1999.02	363.398
1998.23	353.776
1997.45	391.957
1996.66	414.194
1995.88	388.641
1995.09	394.946
1994.31	413.988
1993.52	420.287
1992.74	375.649
1991.95	381.952
1991.17	400.983
1990.38	407.28
1989.6	419.938
1988.81	416.687
1988.02	407.077
1987.24	384.751
1986.45	391.045
1985.67	425.946
1984.88	400.45
1984.09	413.094
1983.3	413.025
1982.52	422.486
1981.73	406.535
1980.94	431.872
1980.16	460.375
1979.37	396.809
1978.58	441.178
1977.79	447.451
1977.01	447.377
1976.22	421.924
1975.43	418.682
1974.64	396.413
1973.85	428.054
1973.06	450.175
1972.27	443.76
1971.49	418.333
1970.7	430.938
1969.91	453.043
1969.12	437.13
1968.33	443.391
1967.54	436.984
1966.75	414.749
1965.96	427.342
1965.17	411.446
1964.38	503.146
1963.59	468.259
1962.8	436.547
1962.01	471.266
1961.22	461.7
1960.43	433.167
1959.64	439.418
1958.85	442.505
1958.06	499.315
1957.26	442.357
1956.47	448.602
1955.68	486.431
1954.89	451.611
1954.1	404.171
1953.31	486.188
1952.51	426.132
1951.72	492.337
1950.93	441.768
1950.14	454.314
1949.34	476.319
1948.55	457.316
1947.76	457.24
1946.97	488.692
1946.17	453.935
1945.38	453.859
1944.59	497.901
1943.79	472.612
1943	447.331
1942.21	440.957
1941.41	484.972
1940.62	443.959
1939.82	506.847
1939.03	443.81
1938.24	497.236
1937.44	500.3
1936.65	475.048
1935.85	500.133
1935.06	471.745
1934.26	528.266
1933.47	465.299
1932.67	502.942
1931.88	455.715
1931.08	455.639
1930.28	505.832
1929.49	468.052
1928.69	489.959
1927.9	505.578
1927.1	502.354
1926.3	505.409
1925.51	473.938
1924.71	483.273
1923.91	542.807
1923.12	498.797
1922.32	467.348
1921.52	486.086
1920.73	507.954
1919.93	479.654
1919.13	488.977
1918.33	510.833
1917.53	488.813
1916.74	520.061
1915.94	535.635
1915.14	519.887
1914.34	482.224
1913.54	488.405
1912.74	510.235
1911.95	507.02
1911.15	531.969
1910.35	488.078
1909.55	500.509
1908.75	522.319
1907.95	512.85
1907.15	497.131
1906.35	515.804
1905.55	493.839
1904.75	496.881
1903.95	528.043
1903.15	502.963
1902.35	534.113
1901.55	471.565
1900.75	533.934
1899.95	527.601
1899.15	521.27
1898.35	518.062
1897.54	517.975
1896.74	489.81
1895.94	567.71
1895.14	517.715
1894.34	495.8
1893.54	558.072
1892.73	542.392
1891.93	517.368
1891.13	554.675
1890.33	520.31
1889.53	563.834
1888.72	545.052
1887.92	563.645
1887.12	579.118
1886.31	560.343
1885.51	532.237
1884.71	510.364
1883.9	547.616
1883.1	597.299
1882.3	556.763
1881.49	538.01
1880.69	553.467
1879.88	562.701
1879.08	540.848
1878.28	568.727
1877.47	571.739
1876.67	540.576
1875.86	549.804
1875.06	593.192
1874.25	527.883
1873.45	599.202
1872.64	580.476
1871.84	626.933
1871.03	595.797
1870.22	583.287
1869.42	589.393
1868.61	638.919
1867.81	610.902
1867	579.794
1866.19	551.797
1865.39	607.495
1864.58	548.513
1863.77	585.602
1862.97	570.014
1862.16	659.742
1861.35	569.822
1860.54	640.943
1859.74	616.068
1858.93	612.87
1858.12	603.482
1857.31	612.664
1856.51	640.404
1855.7	587.712
1854.89	637.096
1854.08	609.16
1853.27	571.957
1852.46	599.681
1851.65	602.671
1850.84	574.759
1850.04	602.468
1849.23	605.456
1848.42	630.063
1847.61	626.869
1846.8	546.488
1845.99	635.919
1845.18	574.083
1844.37	678.908
1843.56	564.633
1842.75	626.236
1841.94	610.709
1841.13	601.355
1840.31	656.754
1839.5	594.987
1838.69	631.874
1837.88	637.931
1837.07	619.336
1836.26	659.282
1835.45	625.288
1834.64	591.306
1833.82	634.315
1833.01	658.838
1832.2	606.398
1831.39	683.237
1830.57	643.12
1829.76	618.399
1828.95	645.979
1828.14	624.341
1827.32	615.011
1826.51	605.684
1825.7	611.73
1824.88	663.876
1824.07	679.129
1823.26	648.29
1822.44	663.541
1821.63	718.715
1820.81	657.175
1820	611.009
1819.19	687.653
1818.37	610.803
1817.56	675.145
1816.74	675.032
1815.93	665.714
1815.11	644.131
1814.3	729.892
1813.48	689.908
1812.67	686.726
1811.85	735.653
1811.03	649.718
1810.22	683.314
1809.4	713.835
1808.59	747.41
1807.77	664.592
1806.95	692.039
1806.14	716.415
1805.32	743.844
1804.5	633.538
1803.69	700.753
1802.87	734.289
1802.05	715.811
1801.24	691.222
1800.42	727.801
1799.6	739.909
1798.78	678.644
1797.96	721.32
1797.15	675.359
1796.33	714.966
1795.51	727.065
1794.69	708.615
1793.87	687.119
1793.05	754.176
1792.23	708.256
1791.42	692.875
1790.6	762.95
1789.78	750.616
1788.96	747.438
1788.14	668.005
1787.32	731.937
1786.5	679.976
1785.68	774.371
1784.86	728.518
1784.04	737.537
1783.22	716.083
1782.4	740.335
1781.58	737.163
1780.76	694.4
1779.93	743.004
1779.11	733.745
1778.29	727.533
1777.47	733.497
1776.65	718.158
1775.83	684.568
1775.01	763.545
1774.18	748.208
1773.36	769.369
1772.54	735.793
1771.72	702.229
1770.89	759.86
1770.07	747.576
1769.25	762.641
1768.43	771.626
1767.6	741.121
1766.78	734.922
1765.96	710.507
1765.13	780.211
1764.31	767.938
1763.49	728.355
1762.66	773.746
1761.84	749.345
1761.01	815.95
1760.19	752.124
1759.36	742.9
1758.54	824.631
1757.72	806.304
1756.89	809.198
1756.07	818.151
1755.24	754.39
1754.41	811.816
1753.59	763.22
1752.76	802.457
1751.94	784.155
1751.11	738.615
1750.29	774.809
1749.46	768.626
1748.63	759.419
1747.81	847.017
1746.98	744.039
1746.15	759.033
1745.33	752.857
1744.5	834.351
1743.67	828.164
1742.85	812.914
1742.02	797.669
1741.19	800.554
1740.36	782.296
1739.54	800.283
1738.71	824.302
1737.88	872.465
1737.05	827.041
1736.22	784.65
1735.39	802.622
1734.57	838.688
1733.74	880.774
1732.91	847.451
1732.08	835.246
1731.25	804.956
1730.42	886.205
1729.59	849.889
1728.76	822.625
1727.93	801.396
1727.1	831.383
1726.27	885.453
1725.44	816.045
1724.61	879.131
1723.78	833.829
1722.95	836.697
1722.12	854.61
1721.29	851.456
1720.46	860.336
1719.62	887.259
1718.79	869.065
1717.96	938.07
1717.13	889.813
1716.3	928.734
1715.47	868.475
1714.63	868.327
1713.8	919.249
1712.97	901.071
1712.14	897.915
1711.31	933.793
1710.47	933.634
1709.64	927.472
1708.81	885.3
1707.97	921.156
1707.14	890.999
1706.31	890.848
1705.47	944.678
1704.64	923.528
1703.81	896.389
1702.97	911.224
1702.14	977.002
1701.3	898.928
1700.47	916.751
1699.63	889.636
1698.8	952.378
1697.96	871.367
1697.13	946.066
1696.29	927.945
1695.46	894.866
1694.62	918.652
1693.79	870.626
1692.95	954.235
1692.12	882.293
1691.28	935.969
1690.44	953.748
1689.61	947.607
1688.77	962.39
1687.93	995.097
1687.1	1012.85
1686.26	970.86
1685.42	958.747
1684.59	988.447
1683.75	937.521
1682.91	1014.98
1682.07	973.018
1681.24	975.836
1680.4	939.866
1679.56	1023.23
1678.72	1067.8
1677.88	1004.99
1677.05	977.987
1676.21	977.82
1675.37	965.731
1674.53	968.546
1673.69	989.239
1672.85	995.028
1672.01	1009.75
1671.17	1018.51
1670.33	1077.89
1669.49	1027.1
1668.65	973.344
1667.81	1029.72
1666.97	1080.13
1666.13	990.697
1665.29	999.451
1664.45	1011.18
1663.61	1013.98
1662.77	1022.72
1661.93	1001.74
1661.09	1016.43
1660.25	1025.17
1659.4	1001.23
1658.56	1090.17
1657.72	1042.47
1656.88	1060.11
1656.04	1089.62
1655.19	1059.74
1654.35	1041.76
1653.51	985.196
1652.67	999.863
1651.82	1082.75
1650.98	1020.28
1650.14	1052.73
1649.3	1082.2
1648.45	1090.91
1647.61	1078.86
1646.77	1013.48
1645.92	1114.05
1645.08	1057.57
1644.23	1054.43
1643.39	1143.09
1642.54	1042.23
1641.7	1042.05
1640.86	1059.63
1640.01	1071.29
1639.17	1077.02
1638.32	1091.63
1637.48	1085.53
1636.63	1126.74
1635.78	1085.16
1634.94	1093.84
1634.09	1173.46
1633.25	1155.53
1632.4	1113.96
1631.56	1161.04
1630.71	1216.96
1629.86	1178.36
1629.02	1098.44
1628.17	1136.63
1627.32	1165.95
1626.47	1136.24
1625.63	1097.68
1624.78	1094.55
1623.93	1138.61
1623.09	1223.94
1622.24	1155.91
1621.39	1191.09
1620.54	1226.26
1619.69	1234.89
1618.84	1158.06
1618	1178.49
1617.15	1169.45
1616.3	1189.87
1615.45	1207.33
1614.6	1215.96
1613.75	1203.97
1612.9	1259.69
1612.05	1200.62
1611.2	1238.66
1610.35	1226.68
1609.5	1235.3
1608.65	1249.79
1607.8	1299.56
1606.95	1311.09
1606.1	1299.11
1605.25	1251.87
1604.4	1395.63
1603.55	1319.01
1602.7	1362.84
1601.85	1371.41
1600.99	1500.37
1600.14	1494.24
1599.29	1514.53
1598.44	1540.68
1597.59	1698.86
1596.74	1622.3
1595.88	1666.01
1595.03	1739.04
1594.18	1709.43
1593.32	1647.57
1592.47	1606.25
1591.62	1600.11
1590.77	1576.4
1589.91	1561.48
1589.06	1526.06
1588.21	1414.51
1587.35	1402.56
1586.5	1463.8
1585.64	1422.57
1584.79	1296.48
1583.93	1398.67
1583.08	1427.68
1582.23	1257.79
1581.37	1406.72
1580.52	1339.23
1579.66	1368.23
1578.81	1341.69
1577.95	1326.85
1577.09	1355.84
1576.24	1411.12
1575.38	1308.64
1574.53	1276.29
1573.67	1249.79
1572.81	1264.17
1571.96	1331.09
1571.1	1278.33
1570.24	1310.21
1569.39	1304.15
1568.53	1312.67
1567.67	1271.62
1566.82	1350.13
1565.96	1314.91
1565.1	1314.69
1564.24	1384.41
1563.39	1296.75
1562.53	1261.56
1561.67	1441.96
1560.81	1383.46
1559.95	1371.57
1559.09	1377.16
1558.23	1426.41
1557.38	1330.12
1556.52	1391
1555.66	1332.57
1554.8	1413.79
1553.94	1416.46
1553.08	1451.11
1552.22	1442.14
1551.36	1453.52
1550.5	1473.61
1549.64	1403.61
1548.78	1470.2
1547.92	1400.23
1547.06	1539.4
1546.2	1454.92
1545.34	1518.55
1544.47	1492.16
1543.61	1489
1542.75	1578.71
1541.89	1540.71
1541.03	1601.37
1540.17	1543.08
1539.3	1638.52
1538.44	1699.13
1537.58	1719.13
1536.72	1808.69
1535.85	1683.76
1534.99	1996.4
1534.13	2004.75
1533.27	2201.37
1532.4	2368.96
1531.54	2675.48
1530.68	2981.89
1529.81	3296.88
1528.95	3707.27
1528.08	3975.73
1527.22	4174.67
1526.36	3997.5
1525.49	3600.6
1524.63	3065.04
1523.76	2737.83
1522.9	2393.38
1522.03	2106.85
1521.17	1881.1
1520.3	1834.55
1519.44	1741.8
1518.57	1689.52
1517.7	1593.93
1516.84	1660.06
1515.97	1573.18
1515.11	1598.88
1514.24	1607.26
1513.37	1511.78
1512.51	1592.28
1511.64	1554.52
1510.77	1522.53
1509.91	1528.03
1509.04	1582.54
1508.17	1481.39
1507.3	1512.83
1506.44	1524.1
1505.57	1529.59
1504.7	1572.53
1503.83	1506.03
1502.96	1525.92
1502.09	1551.57
1501.23	1534.03
1500.36	1525.13
1499.49	1591.04
1498.62	1527.48
1497.75	1550.23
1496.88	1549.96
1496.01	1535.31
1495.14	1529.3
1494.27	1586.52
1493.4	1531.65
1492.53	1574.48
1491.66	1542.61
1490.79	1548.08
1489.92	1521.97
1489.05	1533.19
1488.18	1547.28
1487.31	1555.62
1486.44	1546.75
1485.56	1557.95
1484.69	1678.17
1483.82	1514.39
1482.95	1631.71
1482.08	1599.88
1481.21	1613.94
1480.33	1507.61
1479.46	1530.28
1478.59	1515.69
1477.72	1644.34
1476.84	1595.36
1475.97	1615.13
1475.1	1646.35
1474.22	1580.22
1473.35	1574.22
1472.48	1525.3
1471.6	1653.79
1470.73	1604.87
1469.85	1690.4
1468.98	1707.27
1468.11	1581.16
1467.23	1480.83
1466.36	1600.62
1465.48	1548.91
1464.61	1642.93
1463.73	1671.21
1462.86	1699.48
1461.98	1619.23
1461.11	1653.21
1460.23	1692.89
1459.35	1712.58
1458.48	1732.26
1457.6	1723.4
1456.73	1657.48
1455.85	1774.14
1454.97	1736.76
1454.1	1810.59
1453.22	1838.79
1452.34	1923.98
1451.46	2128.83
1450.59	2174.05
1449.71	2250.6
1448.83	2210.33
1447.95	2229.88
1447.08	2087.13
1446.2	1924.49
1445.32	1944.08
1444.44	1972.2
1443.56	1801.14
1442.68	1852.03
1441.81	1806.2
1440.93	1803.04
1440.05	1853.91
1439.17	1731.34
1438.29	1793.58
1437.41	1801.79
1436.53	1756.02
1435.65	1840.94
1434.77	1650.31
1433.89	1814.74
1433.01	1749.12
1432.13	1714.75
1431.25	1708.77
1430.37	1756.72
1429.48	1790.47
1428.6	1761.78
1427.72	1781.33
1426.84	1786.7
1425.96	1797.73
1425.08	1754.89
1424.19	1780.1
1423.31	1725.94
1422.43	1683.14
1421.55	1750.84
1420.67	1722.21
1419.78	1696.42
1418.9	1659.31
1418.02	1732.63
1417.13	1723.84
1416.25	1686.75
1415.37	1734.56
1414.48	1785.18
1413.6	1688.7
1412.71	1750.62
1411.83	1744.66
1410.95	1693.47
1410.06	1783.63
1409.18	1794.62
1408.29	1766.05
1407.41	1692.29
1406.52	1714.6
1405.64	1813.14
1404.75	1716.82
1403.87	1809.69
1402.98	1775.5
1402.1	1797.77
1401.21	1820.03
1400.32	1802.79
1399.44	1833.5
1398.55	1821.9
1397.66	1725.71
1396.78	1857.92
1395.89	1795.58
1395	1769.9
1394.12	1809.04
1393.23	1831.27
1392.34	1763.35
1391.45	1810.92
1390.57	1827.5
1389.68	1841.25
1388.79	1756.49
1387.9	1865.94
1387.01	1871.24
1386.12	1842.78
1385.24	1755.26
1384.35	1780.27
1383.46	1847.44
1382.57	1835.88
1381.68	1835.56
1380.79	1762.16
1379.9	1820.87
1379.01	1758.74
1378.12	1758.43
1377.23	1845.19
1376.34	1833.64
1375.45	1749.09
1374.56	1872.3
1373.67	1807.42
1372.78	1857.61
1371.89	1874.12
1370.99	1893.43
1370.1	1803.35
1369.21	1833.88
1368.32	1959.73
1367.43	1788.39
1366.54	1799.29
1365.64	1852.22
1364.75	1804.27
1363.86	1865.58
1362.97	1870.85
1362.07	1982.53
1361.18	1856.2
1360.29	1917.46
1359.39	1928.32
1358.5	1911.19
1357.61	1818.53
1356.71	1868.57
1355.82	1820.7
1354.93	1979.77
1354.03	1848.02
1353.14	1833.72
1352.24	1880.91
1351.35	1950.44
1350.45	1910.98
1349.56	1949.76
1348.66	1985.72
1347.77	2060.77
1346.87	2088.33
1345.98	2068.42
1345.08	2313.66
1344.18	2530.91
1343.29	2762.03
1342.39	2948.44
1341.5	3137.57
1340.6	3050.58
1339.7	3147.63
1338.81	3013.28
1337.91	2890.12
1337.01	2847.82
1336.11	2571.51
1335.22	2440.13
1334.32	2328.31
1333.42	2216.52
1332.52	2177.15
1331.63	2090.48
1330.73	2117.94
1329.83	1986.79
1328.93	2086.6
1328.03	2072.32
1327.13	1982.96
1326.23	2041.01
1325.33	2018.41
1324.43	2084.77
1323.53	2081.63
1322.64	1972.89
1321.74	2033.67
1320.84	2030.53
1319.94	1913.53
1319.03	1921.53
1318.13	1954.51
1317.23	1879.22
1316.33	2012.1
1315.43	1964.58
1314.53	1928.17
1313.63	1969.44
1312.73	2002.37
1311.83	2032.53
1310.92	1982.27
1310.02	2062.3
1309.12	2167.26
1308.22	2175.19
1307.32	2208.05
1306.41	2110.72
1305.51	2132.5
1304.61	2101.67
1303.71	2048.7
1302.8	2051.11
1301.9	2070.12
1301	2025.49
1300.09	2061.1
1299.19	2069.03
1298.28	2016.12
1297.38	1974.29
1296.48	2070.71
1295.57	2004
1294.67	2069.98
1293.76	2072.38
1292.86	1989.14
1291.95	1963.93
1291.05	1999.48
1290.14	1943.91
1289.24	1913.2
1288.33	1959.79
1287.42	1970.48
1286.52	1923.23
1285.61	1906.34
1284.71	1911.52
1283.8	1988.4
1282.89	1971.51
1281.99	1949.11
1281.08	1849.54
1280.17	1907.09
1279.26	1909.51
1278.36	1881.62
1277.45	1919.85
1276.54	1952.56
1275.63	1941.21
1274.72	1916.09
1273.82	1819.41
1272.91	1876.89
1272	1983.87
1271.09	1900.98
1270.18	1917.15
1269.27	1999.32
1268.36	1968.72
1267.45	1984.87
1266.54	1902.06
1265.64	1964.94
1264.73	1945.36
1263.82	2019.19
1262.91	2021.58
1261.99	1980.03
1261.08	2001.65
1260.17	2009.53
1259.26	2107.99
1258.35	1975.89
1257.44	2008.47
1256.53	1988.91
1255.62	2021.48
1254.71	1947.08
1253.79	2020.77
1252.88	1995.74
1251.97	2036.5
1251.06	1973.11
1250.15	1945.36
1249.23	1958.72
1248.32	2015.89
1247.41	1993.63
1246.49	2037.09
1245.58	1919.01
1244.67	1998.05
1243.75	2011.38
1242.84	1896.11
1241.93	1925.87
1241.01	1982.97
1240.1	1936.13
1239.18	1941.26
1238.27	1935.45
1237.35	1946.04
1236.44	1893.77
1235.53	1937.15
1234.61	1966.86
1233.69	2010.22
1232.78	1971.63
1231.86	1968.55
1230.95	1962.75
1230.03	1907.81
1229.12	1940.22
1228.2	1901.68
1227.28	2024.1
1226.37	1925.56
1225.45	1927.95
1224.53	2028.48
1223.62	2039.03
1222.7	1975.98
1221.78	2024.69
1220.86	2027.05
1219.95	2075.73
1219.03	2108.04
1218.11	2039.6
1217.19	2164.48
1216.27	2057.93
1215.35	2141.94
1214.44	2119.79
1213.52	2124.86
1212.6	2173.45
1211.68	2110.51
1210.76	2096.54
1209.84	2044.51
1208.92	2090.36
1208	2138.91
1207.08	2078.75
1206.16	2100.12
1205.24	2145.93
1204.32	2096.66
1203.4	2044.7
1202.48	2136.65
1201.56	2092.84
1200.64	2065.33
1199.71	2081.24
1198.79	2148.7
1197.87	2156.46
1196.95	2172.35
1196.03	2239.75
1195.1	2263.76
1194.18	2173.91
1193.26	2108.48
1192.34	2224.62
1191.41	2218.81
1190.49	2129.03
1189.57	2117.82
1188.65	2247.42
1187.72	2114.36
1186.8	2116.7
1185.87	2165.04
1184.95	2170.06
1184.03	2123.69
1183.1	2174.71
1182.18	2085.08
1181.25	2119.86
1180.33	2105.97
1179.4	2097.48
1178.48	2029.55
1177.55	2161.59
1176.63	1964
1175.7	2001.46
1174.78	2117.23
1173.85	2025.05
1172.92	1992.3
1172	2037.83
1171.07	2064.46
1170.15	2120.75
1169.22	2074.52
1168.29	2090.33
1167.36	2046.81
1166.44	1995.22
1165.51	2048.78
1164.58	2007.99
1163.65	2053.45
1162.73	2071.94
1161.8	2155.09
1160.87	2117
1159.94	2084.31
1159.01	2067.78
1158.08	2185.86
1157.16	2067.05
1156.23	2085.52
1155.3	2012.51
1154.37	2103.61
1153.44	2216.2
1152.51	2089.42
1151.58	2099.8
1150.65	2158.57
1149.72	2074.87
1148.79	2173.93
1147.86	2146.67
1146.93	2363.88
1146	2484.31
1145.07	2567.12
1144.13	2741.17
1143.2	2821.22
1142.27	2877.07
1141.34	2664.58
1140.41	2613.13
1139.48	2467.82
1138.54	2376.19
1137.61	2260.47
1136.68	2243.98
1135.75	2251.62
1134.81	2194.94
1133.88	2191.87
1132.95	2148.62
1132.01	2220.56
1131.08	2131.79
1130.15	2187.64
1129.21	2171.19
1128.28	2202.92
1127.35	2242.67
1126.41	2089.76
1125.48	2228.5
1124.54	2206.7
1123.61	2195.61
1122.67	2112.33
1121.74	2021.06
1120.8	2127.62
1119.87	2161.98
1118.93	2156.26
1117.99	2107.79
1117.06	2104.74
1116.12	2160.45
1115.19	2101.32
1114.25	2084.93
1113.31	2132.6
1112.38	2287
1111.44	2113.17
1110.5	2243.51
1109.56	2200.43
1108.63	2280.04
1107.69	2319.63
1106.75	2348.54
1105.81	2233.51
1104.88	2281.08
1103.94	2102.17
1103	2160.4
1102.06	2162.67
1101.12	2191.58
1100.18	2159.24
1099.24	2068.35
1098.3	2083.95
1097.36	2171.39
1096.42	2099.17
1095.49	2064.22
1094.55	2183.53
1093.6	2106.03
1092.66	2182.75
1091.72	2099.96
1090.78	2096.93
1089.84	2133.75
1088.9	2048.36
1087.96	2090.49
1087.02	2127.3
1086.08	2084.44
1085.14	2078.76
1084.19	2136.78
1083.25	2099.25
1082.31	2199.7
1081.37	2069.31
1080.43	2193.61
1079.48	2060.62
1078.54	2192.83
1077.6	2157.97
1076.65	2154.94
1075.71	2090.95
1074.77	2130.32
1073.82	2132.59
1072.88	2132.21
1071.93	2182.15
1070.99	2179.11
1070.05	2149.6
1069.1	2173.04
1068.16	2119.72
1067.21	2193.43
1066.27	2171.87
1065.32	2221.74
1064.38	2128.79
1063.43	2218.3
1062.49	2170.32
1061.54	2238.65
1060.59	2214.47
1059.65	2248.42
1058.7	2152.92
1057.75	2213.28
1056.81	2241.94
1055.86	2157.05
1054.91	2114.43
1053.97	2145.72
1053.02	2245.61
1052.07	2245.21
1051.12	2144.57
1050.18	2167.92
1049.23	2167.54
1048.28	2117.06
1047.33	2148.31
1046.38	2174.28
1045.43	2202.88
1044.48	2213.02
1043.54	2125.7
1042.59	2209.6
1041.64	2230.26
1040.69	2135.09
1039.74	2250.52
1038.79	2150.12
1037.84	2154.99
1036.89	2225.64
1035.94	2206.83
1034.99	2274.81
1034.04	2198.15
1033.08	2192.5
1032.13	2210.51
1031.18	2231.13
1030.23	2141.4
1029.28	2169.91
1028.33	2287.72
1027.37	2208.53
1026.42	2292.15
1025.47	2260.24
1024.52	2272.96
1023.57	2188.58
1022.61	2156.7
1021.66	2221.89
1020.71	2158.55
1019.75	2168.65
1018.8	2202.35
1017.85	2201.95
1016.89	2204.18
1015.94	2182.82
1014.98	2295.09
1014.03	2195.13
1013.07	2289.03
1012.12	2270.29
1011.16	2332.71
1010.21	2222.35
1009.25	2282.15
1008.3	2320.99
1007.34	2388.6
1006.39	2330.62
1005.43	2304.05
1004.48	2361.16
1003.52	2219.56
1002.56	2268.83
1001.61	2260.58
1000.65	2228.82
999.693	2309.41
998.736	2337.73
997.778	2238.07
996.821	2302.94
995.863	2310.36
994.905	2315.17
993.947	2215.58
992.989	2340.43
992.031	2251.31
991.072	2185.7
990.114	2234.86
989.155	2239.67
988.196	2257.51
987.237	2231.04
986.277	2301
985.318	2243.27
984.358	2341.86
983.398	2211.21
982.438	2268.1
981.478	2296.33
980.517	2285.51
979.557	2287.7
978.596	2362.75
977.635	2344.11
976.674	2325.48
975.713	2262.65
974.751	2215.44
973.79	2259.23
972.828	2279.62
971.866	2318.2
970.904	2193.06
969.942	2293.98
968.979	2311.75
968.017	2261.99
967.054	2349.87
966.091	2336.46
965.128	2245.2
964.164	2278.53
963.201	2355.96
962.237	2285.49
961.273	2394.02
960.309	2323.57
959.345	2424.27
958.381	2436.79
957.416	2348.23
956.451	2404.82
955.486	2601.3
954.521	2678.54
953.556	2740.22
952.591	2703.47
951.625	2708.17
950.659	2554.95
949.693	2494.96
948.727	2396.18
947.761	2429.38
946.794	2315.13
945.828	2327.64
944.861	2347.91
943.894	2347.49
942.927	2380.67
941.959	2413.84
940.992	2441.82
940.024	2441.38
939.056	2446.11
938.088	2419.84
937.12	2481.38
936.152	2336.36
935.183	2364.33
934.214	2477.45
933.246	2464.11
932.276	2368.21
931.307	2416.79
930.338	2447.3
929.368	2392.71
928.398	2461.88
927.428	2427.93
926.458	2324.42
925.488	2409.02
924.517	2467.84
923.547	2364.37
922.576	2456.64
921.605	2381.54
920.634	2435.16
919.662	2524.8
918.691	2483.18
917.719	2495.59
916.747	2387.1
915.775	2510.12
914.803	2494.24
913.831	2365.24
912.858	2395.66
911.885	2426.07
910.912	2461.6
909.939	2402.07
908.966	2519.79
907.992	2509.06
907.019	2488.07
906.045	2497.89
905.071	2397.33
904.097	2504.68
903.122	2532.46
902.148	2542.26
901.173	2469.98
900.198	2518.26
899.223	2497.29
898.248	2525.04
897.273	2504.08
896.297	2536.94
895.321	2518.55
894.345	2469.42
893.369	2566.3
892.393	2560.71
891.416	2647.3
890.44	2531.63
889.463	2482.54
888.486	2461.62
887.509	2553.28
886.531	2483.75
885.554	2513.99
884.576	2569.79
883.598	2513.08
882.62	2556.08
881.642	2586.28
880.664	2736.57
879.685	2521.48
878.706	2533.8
877.727	2561.43
876.748	2609.48
875.769	2506.89
874.789	2664.68
873.81	2536.61
872.83	2602.48
871.85	2665.79
870.87	2596.44
869.889	2567.92
868.909	2511.36
867.928	2668.95
866.947	2513
865.966	2624.67
864.985	2565.59
864.003	2636.45
863.022	2697.1
862.04	2515.81
861.058	2680.84
860.076	2693.08
859.094	2768.94
858.111	2618.32
857.128	2678.9
856.146	2752.18
855.162	2685.56
854.179	2710.5
853.196	2697.29
852.212	2856.93
851.229	2739.52
850.245	2894.01
849.261	2761.38
848.276	2849.78
847.292	2806.09
846.307	2759.88
845.322	2815.23
844.337	2779.18
843.352	2776.14
842.367	2793.4
841.381	2813.18
840.396	2794.92
839.41	2827.38
838.424	2717.84
837.437	2866.91
836.451	2838.51
835.464	2860.8
834.477	2804.54
833.49	2902.82
832.503	2950.41
831.516	2919.49
830.528	2840.48
829.541	2789.34
828.553	2829.32
827.565	2833.87
826.577	2777.7
825.588	2911.25
824.6	2751.4
823.611	2801.47
822.622	2795.9
821.633	2843.41
820.643	2749.4
819.654	2819.64
818.664	2829.23
817.674	2889.33
816.684	2858.51
815.694	2741.85
814.704	2748.92
813.713	2723.18
812.723	2783.25
811.732	2901.32
810.741	2764.58
809.749	2922.96
808.758	2884.6
807.766	2884.08
806.774	2833.14
805.782	2880.51
804.79	2776.68
803.798	2806.4
802.805	2755.52
801.812	2855.75
800.819	2767.1
799.826	2879.88
798.833	2924.66
797.84	2871.28
796.846	2827.99
795.852	2928.09
794.858	2950.19
793.864	2906.91
792.87	2916.43
791.875	2903.33
790.88	2950.56
789.885	2907.3
788.89	2846.47
787.895	3036.86
786.9	2923.29
785.904	2978
784.908	2799.21
783.912	2944.28
782.916	3036.6
781.92	3031.03
780.923	2962.74
779.926	2992.3
778.929	2989.24
777.932	2976.16
776.935	3100.96
775.938	2995.13
774.94	3012.12
773.942	3056.67
772.944	3016.03
771.946	3033.01
770.948	2989.89
769.949	2989.35
768.95	3011.33
767.951	3040.81
766.952	2990.21
765.953	3087.23
764.954	2964.1
763.954	3041.09
762.954	3030.53
761.954	3102.48
760.954	3081.92
759.954	3091.35
758.953	3030.82
757.952	2987.8
756.951	3129.62
755.95	3056.63
754.949	3096.02
753.948	3215.27
752.946	3147.3
751.944	3216.59
750.942	3458.02
749.94	3961.27
748.937	4813.52
747.935	5244.03
746.932	5115.92
745.929	4484.33
744.926	3855.47
743.923	3388.81
742.919	3375.73
741.916	3250.57
740.912	3192.7
739.908	3251.87
738.903	3174.1
737.899	3136.18
736.894	3153.03
735.89	3144.99
734.885	3119.54
733.88	3220.94
732.874	3193
731.869	3184.95
730.863	3244.03
729.857	3183.79
728.851	3250.3
727.845	3289.45
726.838	3154.71
725.832	3275.83
724.825	3272.75
723.818	3301.94
722.811	3385.73
721.804	3395.04
720.796	3369.6
719.788	3324.33
718.78	3370.85
717.772	3479.35
716.764	3446.48
715.756	3540.05
714.747	3375.81
713.738	3323.15
712.729	3282.9
711.72	3341.75
710.71	3346.09
709.701	3357.86
708.691	3347.34
707.681	3398.71
706.671	3422.84
705.661	3370.24
704.65	3466.11
703.64	3455.58
702.629	3519.25
701.618	3533.44
700.606	3411.65
699.595	3485.18
698.583	3378.27
697.572	3483.9
696.56	3478.32
695.547	3549.31
694.535	3580.76
693.523	3429.49
692.51	3557.23
691.497	3467.72
690.484	3479.42
689.471	3540.47
688.457	3497.88
687.443	3600.82
686.43	3619.89
685.416	3629.09
684.401	3776.32
683.387	3962.92
682.372	4464.86
681.358	5028.21
680.343	5138.12
679.327	4920.46
678.312	4242.44
677.297	3948.71
676.281	3748.61
675.265	3624.88
674.249	3730.01
673.233	3542.37
672.216	3699.13
671.2	3649.27
670.183	3614.17
669.166	3689.71
668.148	3566.15
667.131	3590.06
666.113	3525.53
665.096	3512.6
664.078	3575.8
663.06	3663.54
662.041	3667.78
661.023	3554.19
660.004	3676.24
658.985	3631.4
657.966	3699.42
656.947	3713.46
655.927	3639.2
654.908	3643.44
653.888	3686.89
652.868	3686.21
651.848	3658.58
650.827	3618.7
649.807	3686.63
648.786	3666.35
647.765	3606.91
646.744	3740.9
645.723	3615.37
644.701	3744.41
643.679	3782.87
642.657	3767.5
641.635	3739.9
640.613	3810.13
639.591	3828.99
638.568	3835.62
637.545	3800.69
636.522	3763.33
635.499	3765.08
634.475	3866.99
633.452	3807.66
632.428	3892.42
631.404	3764.75
630.38	3854.37
629.356	3875.62
628.331	3804.15
627.306	3888.83
626.281	3922.26
625.256	3858.13
624.231	3947.64
623.205	3932.28
622.18	3856
621.154	3972.26
620.128	4042.18
619.102	3822.19
618.075	4043.13
617.049	3969.33
616.022	3919.9
614.995	3941.08
613.968	3969.56
612.94	4085.63
611.913	4045.95
610.885	4069.53
609.857	3886.37
608.829	3917.26
607.8	4004.06
606.772	4020.34
605.743	4026.88
604.714	3975.11
603.685	4115.28
602.656	4085.37
601.626	4079.76
600.597	4253.82
599.567	4095.25
598.537	4213.41
597.507	4171.38
596.476	4265.23
595.446	4266.87
594.415	4275.78
593.384	4296.81
592.353	4300.87
591.321	4188.57
590.29	4233.84
589.258	4269.4
588.226	4193.51
587.194	4103.12
586.162	4267.04
585.129	4229.93
584.096	4108.1
583.063	4223.52
582.03	4171.92
580.997	4260.67
579.964	4182.47
578.93	4072.86
577.896	4226.87
576.862	4235.75
575.828	4278.48
574.793	4260.77
573.759	4250.31
572.724	4302.68
571.689	4137.63
570.654	4223.8
569.618	4324.43
568.583	4270.52
567.547	4228.7
566.511	4206.19
565.475	4135.44
564.438	4192.57
563.402	4324.45
562.365	4311.59
561.328	4238.46
560.291	4389.54
559.254	4273.04
558.216	4265.02
557.178	4338.91
556.141	4420
555.102	4351.75
554.064	4307.6
553.026	4265.88
551.987	4440.79
550.948	4297.99
549.909	4253.88
548.87	4467.19
547.83	4406.23
546.791	4302.01
545.751	4233.89
544.711	4302.82
543.671	4258.76
542.63	4320.44
541.59	4379.7
540.549	4455.75
539.508	4409.3
538.467	4494.92
537.425	4462.88
536.384	4560.46
535.342	4478.02
534.3	4460.39
533.258	4483.55
532.216	4465.93
531.173	4505.86
530.13	4361.17
529.088	4374.74
528.044	4318.81
527.001	4416.25
525.958	4283.66
524.914	4443.35
523.87	4507.19
522.826	4465.64
521.782	4543.82
520.737	4586.06
519.693	4544.52
518.648	4605.88
517.603	4695.93
516.557	4759.64
515.512	4701.36
514.466	4662.23
513.42	4682.88
512.374	4550.55
511.328	4709.81
510.282	4379.23
509.235	4476.35
508.188	4456.42
507.141	4469.91
506.094	4509.66
505.047	4473.02
503.999	4462.64
502.951	4495.22
501.903	4477.68
500.855	4603.26
499.807	4650.09
