3200.66	71.5685
3200.06	46.309
3199.47	58.9299
3198.87	12.6259
3198.28	42.08
3197.69	67.3179
3197.09	29.4471
3196.5	58.8853
3195.9	63.0819
3195.31	71.482
3194.71	33.6335
3194.12	46.2391
3193.52	25.2175
3192.93	37.8205
3192.33	75.6296
3191.74	37.8091
3191.14	79.8071
3190.55	29.3982
3189.95	67.1857
3189.36	92.3663
3188.76	100.748
3188.17	92.3384
3187.57	96.521
3186.97	58.743
3186.38	37.7577
3185.78	88.0879
3185.19	83.8805
3184.59	54.5141
3183.99	50.3131
3183.4	75.4582
3182.8	58.6808
3182.2	37.7177
3181.61	33.5217
3181.01	41.8958
3180.41	79.5901
3179.82	50.2598
3179.22	41.8768
3178.62	62.8057
3178.03	20.9321
3177.43	75.3441
3176.83	54.4069
3176.23	50.2142
3175.64	46.0227
3175.04	79.4817
3174.44	71.1044
3173.84	66.9117
3173.25	66.9015
3172.65	25.0843
3172.05	62.7012
3171.45	71.0506
3170.85	91.9339
3170.26	75.2072
3169.66	83.5509
3169.06	33.4153
3168.46	45.9391
3167.86	50.1078
3167.26	41.7502
3166.66	54.267
3166.06	83.475
3165.47	79.2893
3164.87	87.6222
3164.27	58.406
3163.67	62.5683
3163.07	37.5353
3162.47	45.8695
3161.87	4.16933
3161.27	79.2052
3160.67	16.6722
3160.07	54.1766
3159.47	45.8348
3158.87	37.4955
3158.27	49.9864
3157.67	58.3086
3157.07	66.6283
3156.47	54.1273
3155.87	24.978
3155.27	66.598
3154.67	74.9114
3154.07	54.0945
3153.46	41.6048
3152.86	37.4387
3152.26	45.7514
3151.66	33.2687
3151.06	66.5273
3150.46	74.8319
3149.86	78.9773
3149.26	66.4971
3148.65	54.0207
3148.05	29.0836
3147.45	41.5417
3146.85	66.4567
3146.25	45.6821
3145.64	41.5228
3145.04	49.8198
3144.44	33.2082
3143.84	62.2559
3143.24	53.9469
3142.63	66.3861
3142.03	45.6335
3141.43	41.4787
3140.82	16.589
3140.22	41.4661
3139.62	16.5839
3139.02	70.471
3138.41	41.4473
3137.81	49.7292
3137.21	70.4389
3136.6	49.714
3136	53.8487
3135.4	66.2653
3134.79	86.9599
3134.19	57.9645
3133.58	62.0954
3132.98	37.2516
3132.38	53.7996
3131.77	62.0671
3131.17	49.6461
3130.56	33.0924
3129.96	28.9514
3129.35	37.2176
3128.75	41.3466
3128.14	45.4744
3127.54	74.4013
3126.93	95.0539
3126.33	41.3215
3125.72	70.2359
3125.12	111.534
3124.51	57.8237
3123.91	70.2038
3123.3	53.6771
3122.7	45.4122
3122.09	82.5551
3121.49	66.034
3120.88	82.53
3120.27	37.1328
3119.67	45.3777
3119.06	53.62
3118.46	37.1159
3117.85	65.9738
3117.24	57.7183
3116.64	49.4653
3116.03	45.3363
3115.42	61.8128
3114.82	82.4045
3114.21	20.598
3113.6	28.8328
3113	57.6568
3112.39	78.2366
3111.78	57.6393
3111.17	57.6305
3110.57	49.3901
3109.96	82.3042
3109.35	111.094
3108.74	74.0513
3108.14	86.38
3107.53	82.2541
3106.92	41.1208
3106.31	61.6718
3105.7	24.665
3105.1	36.9918
3104.49	65.7532
3103.88	20.5448
3103.27	41.0833
3102.66	41.077
3102.05	49.2849
3101.44	41.0645
3100.84	12.3175
3100.23	61.578
3099.62	32.8366
3099.01	65.6632
3098.4	41.0332
3097.79	28.7189
3097.18	57.429
3096.57	45.1159
3095.96	61.5123
3095.35	20.501
3094.74	36.8962
3094.13	57.3853
3093.52	53.2782
3092.91	77.8563
3092.3	24.5824
3091.69	49.1574
3091.08	36.8624
3090.47	45.0472
3089.86	73.7024
3089.25	69.5972
3088.64	61.3999
3088.03	24.5562
3087.42	20.4604
3086.81	32.7316
3086.19	28.6358
3085.58	77.714
3084.97	32.7167
3084.36	57.2455
3083.75	40.8834
3083.14	65.4034
3082.53	81.7418
3081.91	61.297
3081.3	69.4593
3080.69	53.1079
3080.08	57.1844
3079.47	65.3436
3078.85	93.9171
3078.24	97.9855
3077.63	85.7242
3077.02	44.8963
3076.4	48.9703
3075.79	57.1233
3075.18	28.5573
3074.57	44.8689
3073.95	73.4106
3073.34	20.3887
3072.73	61.1568
3072.11	44.8415
3071.5	48.9105
3070.89	48.9031
3070.27	44.821
3069.66	40.7401
3069.05	20.3669
3068.43	61.0915
3067.82	73.2986
3067.2	61.0729
3066.59	73.2762
3065.98	69.1948
3065.36	40.6966
3064.75	85.4498
3064.13	48.821
3063.52	28.4746
3062.9	32.5374
3062.29	40.6655
3061.67	56.923
3061.06	60.9796
3060.44	73.1644
3059.83	44.7047
3059.21	48.7613
3058.6	56.8795
3057.98	52.8086
3057.37	73.1085
3056.75	40.6096
3056.14	56.8448
3055.52	52.7764
3054.9	24.3546
3054.29	20.2924
3053.67	60.8679
3053.06	73.0303
3052.44	60.8493
3051.82	52.728
3051.21	52.7199
3050.59	77.0404
3049.97	56.7579
3049.36	64.8563
3048.74	28.3703
3048.12	44.5751
3047.51	48.6199
3046.89	48.6125
3046.27	76.9579
3045.65	64.7968
3045.04	52.6393
3044.42	48.5827
3043.8	72.8629
3043.18	32.3786
3042.57	36.4203
3041.95	84.9677
3041.33	44.5001
3040.71	80.8969
3040.09	97.0614
3039.48	97.0465
3038.86	72.7738
3038.24	64.6779
3037.62	40.4175
3037	96.9871
3036.38	80.8102
3035.76	32.3191
3035.14	28.2749
3034.53	72.6958
3033.91	68.6466
3033.29	64.5987
3032.67	96.8832
3032.05	36.3257
3031.43	84.7469
3030.81	56.4893
3030.19	76.6523
3029.57	88.7416
3028.95	44.364
3028.33	60.4871
3027.71	76.6053
3027.09	80.6248
3026.47	48.3675
3025.85	44.3301
3025.23	76.5584
3024.61	44.3165
3023.99	68.4786
3023.37	92.6333
3022.75	68.4576
3022.13	60.3945
3021.5	40.2568
3020.88	48.3008
3020.26	112.685
3019.64	84.5005
3019.02	68.3947
3018.4	72.4068
3017.78	48.2638
3017.15	28.1496
3016.53	52.2697
3015.91	72.3624
3015.29	48.2342
3014.67	68.3213
3014.04	40.1828
3013.42	76.3357
3012.8	48.2046
3012.18	48.1972
3011.56	40.1582
3010.93	56.2128
3010.31	64.2334
3009.69	52.1816
3009.06	72.2404
3008.44	80.2548
3007.82	60.1819
3007.19	60.1726
3006.57	80.2179
3005.95	92.2364
3005.32	16.0386
3004.7	76.1719
3004.08	80.1686
3003.45	100.195
3002.83	88.1584
3002.21	104.171
3001.58	76.1134
3000.96	68.091
3000.33	72.0853
2999.71	76.0784
2999.08	96.0843
2998.46	56.0405
2997.84	68.0388
2997.21	28.0117
2996.59	36.0095
2995.96	68.0074
2995.34	35.9984
2994.71	63.9873
2994.09	63.9775
2993.46	79.9596
2992.83	111.926
2992.21	91.9253
2991.58	83.9189
2990.96	71.9194
2990.33	71.9084
2989.71	63.9087
2989.08	51.9179
2988.45	19.9653
2987.83	87.834
2987.2	71.8532
2986.58	75.8333
2985.95	91.7841
2985.32	115.71
2984.7	91.7559
2984.07	55.8428
2983.44	15.9526
2982.82	47.8506
2982.19	47.8432
2981.56	47.8359
2980.93	63.7714
2980.31	75.7168
2979.68	63.7517
2979.05	99.5968
2978.42	79.6652
2977.8	51.7744
2977.17	63.7125
2976.54	51.7585
2975.91	79.6162
2975.28	59.7029
2974.66	47.755
2974.03	71.6215
2973.4	71.6105
2972.77	111.377
2972.14	67.6113
2971.51	115.319
2970.88	87.47
2970.26	51.6789
2969.63	87.4431
2969	95.3778
2968.37	75.4958
2967.74	43.7014
2967.11	51.6391
2966.48	95.3191
2965.85	47.6522
2965.22	91.3194
2964.59	87.3355
2963.96	71.4453
2963.33	91.2772
2962.7	115.071
2962.07	75.3797
2961.44	63.4678
2960.81	103.119
2960.18	79.3104
2959.55	103.088
2958.92	87.2145
2958.29	91.1648
2957.66	99.0769
2957.03	83.2118
2956.4	106.97
2955.76	95.0699
2955.13	95.0552
2954.5	79.2005
2953.87	59.3912
2953.24	150.435
2952.61	122.704
2951.98	83.1092
2951.34	146.408
2950.71	102.865
2950.08	83.0708
2949.45	87.0132
2948.82	130.5
2948.18	102.802
2947.55	126.506
2946.92	98.8176
2946.29	118.563
2945.65	126.448
2945.02	134.33
2944.39	130.359
2943.76	157.986
2943.12	130.319
2942.49	142.144
2941.86	102.644
2941.22	177.625
2940.59	177.598
2939.96	185.462
2939.32	284.069
2938.69	224.853
2938.05	205.097
2937.42	216.896
2936.79	165.604
2936.15	220.772
2935.52	240.446
2934.88	256.174
2934.25	181.264
2933.61	252.155
2932.98	267.873
2932.34	244.2
2931.71	255.976
2931.08	244.124
2930.44	263.771
2929.81	220.431
2929.17	271.561
2928.53	271.519
2927.9	330.494
2927.26	271.435
2926.63	279.26
2925.99	314.61
2925.36	322.426
2924.72	314.513
2924.08	341.98
2923.45	290.835
2922.81	330.086
2922.18	275.029
2921.54	302.485
2920.9	302.438
2920.27	270.974
2919.63	290.565
2918.99	266.965
2918.36	298.326
2917.72	266.882
2917.08	357.096
2916.44	266.8
2915.81	294.219
2915.17	329.474
2914.53	345.11
2913.9	305.846
2913.26	341.083
2912.62	360.629
2911.98	317.462
2911.34	313.494
2910.71	317.363
2910.07	332.984
2909.43	313.348
2908.79	309.384
2908.15	383.733
2907.51	379.759
2906.88	356.213
2906.24	446.176
2905.6	360.016
2904.96	371.699
2904.32	410.761
2903.68	371.584
2903.04	410.634
2902.4	449.673
2901.76	402.688
2901.12	429.989
2900.48	406.472
2899.84	476.749
2899.2	414.16
2898.56	476.601
2897.92	410.126
2897.28	499.886
2896.64	437.332
2896	468.498
2895.36	456.715
2894.72	460.547
2894.08	503.401
2893.44	495.52
2892.8	530.553
2892.16	487.565
2891.52	553.789
2890.88	530.307
2890.24	541.921
2889.59	541.837
2888.95	623.601
2888.31	600.123
2887.67	584.445
2887.03	619.415
2886.39	619.319
2885.74	599.751
2885.1	677.536
2884.46	720.257
2883.82	638.399
2883.18	681.113
2882.53	754.945
2881.89	789.846
2881.25	863.639
2880.6	991.864
2879.96	941.152
2879.32	1061.55
2878.68	1026.39
2878.03	1018.46
2877.39	866.722
2876.75	819.955
2876.1	695.494
2875.46	664.308
2874.82	640.899
2874.17	582.545
2873.53	586.338
2872.88	586.247
2872.24	492.992
2871.6	485.153
2870.95	496.72
2870.31	500.523
2869.66	523.722
2869.02	461.579
2868.37	434.36
2867.73	504.09
2867.08	523.397
2866.44	496.181
2865.79	441.842
2865.15	461.15
2864.5	476.577
2863.86	461.007
2863.21	453.188
2862.57	534.447
2861.92	456.92
2861.28	518.795
2860.63	561.295
2859.98	510.893
2859.34	464.376
2858.69	526.211
2858.05	622.844
2857.4	580.199
2856.75	607.181
2856.11	630.288
2855.46	634.056
2854.81	676.479
2854.17	711.159
2853.52	645.354
2852.87	691.619
2852.23	660.606
2851.58	772.519
2850.93	803.295
2850.28	741.387
2849.64	791.463
2848.99	914.866
2848.34	802.795
2847.69	906.863
2847.05	875.855
2846.4	945.16
2845.75	918.012
2845.1	979.575
2844.45	879.167
2843.8	994.692
2843.16	929.006
2842.51	874.903
2841.86	855.499
2841.21	866.925
2840.56	789.742
2839.91	704.88
2839.26	681.663
2838.61	631.499
2837.96	666.051
2837.31	577.411
2836.66	565.775
2836.01	557.99
2835.36	415.542
2834.72	357.772
2834.07	338.484
2833.42	384.581
2832.76	311.463
2832.11	299.88
2831.46	292.145
2830.81	265.196
2830.16	211.355
2829.51	184.427
2828.86	203.606
2828.21	188.21
2827.56	234.266
2826.91	153.593
2826.26	195.801
2825.61	134.352
2824.96	161.198
2824.3	184.197
2823.65	168.821
2823	168.795
2822.35	122.741
2821.7	199.423
2821.04	134.206
2820.39	118.85
2819.74	122.664
2819.09	88.1513
2818.44	134.122
2817.78	118.776
2817.13	160.897
2816.48	141.72
2815.83	134.039
2815.17	99.5562
2814.52	118.683
2813.87	126.32
2813.21	110.992
2812.56	187.508
2811.91	164.522
2811.25	130.067
2810.6	126.222
2809.95	87.9592
2809.29	141.478
2808.64	95.578
2807.98	87.9181
2807.33	80.2605
2806.68	114.64
2806.02	122.264
2805.37	137.525
2804.71	106.947
2804.06	91.6548
2803.4	87.8222
2802.75	114.533
2802.09	133.601
2801.44	152.663
2800.78	129.743
2800.13	110.646
2799.47	118.258
2798.82	91.5405
2798.16	80.0855
2797.51	80.073
2796.85	133.434
2796.19	91.4834
2795.54	91.4691
2794.88	72.4018
2794.23	106.681
2793.57	72.3792
2792.91	91.412
2792.26	133.288
2791.6	91.3835
2790.94	98.9834
2790.29	76.1292
2789.63	64.6997
2788.97	87.5212
2788.32	68.4842
2787.66	79.8857
2787	129.319
2786.34	133.101
2785.69	102.662
2785.03	140.663
2784.37	133.039
2783.71	136.819
2783.06	83.5983
2782.4	102.582
2781.74	129.157
2781.08	132.935
2780.42	148.104
2779.76	117.706
2779.11	113.891
2778.45	113.873
2777.79	68.3132
2777.13	94.8646
2776.47	87.2618
2775.81	75.868
2775.15	68.2705
2774.49	94.8053
2773.83	109.957
2773.17	140.268
2772.51	102.342
2771.86	102.326
2771.2	94.7312
2770.54	102.294
2769.88	117.43
2769.22	109.837
2768.56	87.0982
2767.9	124.948
2767.23	128.714
2766.57	102.198
2765.91	94.6128
2765.25	117.302
2764.59	109.717
2763.93	113.482
2763.27	105.9
2762.61	105.883
2761.95	132.334
2761.29	109.631
2760.63	105.834
2759.96	90.7005
2759.3	94.4649
2758.64	102.006
2757.98	90.6579
2757.32	90.6437
2756.65	98.182
2755.99	120.82
2755.33	117.026
2754.67	143.429
2754.01	154.729
2753.34	135.838
2752.68	113.181
2752.02	124.479
2751.35	98.0591
2750.69	71.6473
2750.03	113.11
2749.37	113.092
2748.7	146.996
2748.04	105.519
2747.38	120.575
2746.71	105.486
2746.05	113.003
2745.38	180.777
2744.72	143.093
2744.06	150.6
2743.39	124.226
2742.73	135.498
2742.06	143.003
2741.4	116.642
2740.73	116.624
2740.07	142.936
2739.41	94.022
2738.74	109.048
2738.08	56.3955
2737.41	127.81
2736.75	139.065
2736.08	161.591
2735.41	150.294
2734.75	101.432
2734.08	123.954
2733.42	86.3783
2732.75	165.22
2732.09	131.404
2731.42	157.66
2730.75	191.414
2730.09	165.116
2729.42	146.33
2728.76	153.81
2728.09	161.287
2727.42	150.011
2726.76	164.986
2726.09	138.717
2725.42	176.18
2724.75	236.119
2724.09	172.378
2723.42	202.325
2722.75	187.308
2722.09	176.042
2721.42	146.054
2720.75	194.709
2720.08	202.166
2719.41	153.472
2718.75	220.815
2718.08	217.039
2717.41	198.297
2716.74	160.858
2716.07	198.235
2715.41	164.547
2714.74	149.564
2714.07	160.756
2713.4	179.421
2712.73	134.545
2712.06	108.366
2711.39	171.864
2710.72	138.217
2710.05	141.93
2709.38	156.845
2708.71	138.152
2708.04	182.929
2707.37	171.702
2706.7	138.086
2706.03	130.602
2705.36	190.276
2704.69	111.909
2704.02	134.27
2703.35	152.895
2702.68	126.771
2702.01	152.846
2701.34	149.095
2700.67	171.432
2700	134.143
2699.33	137.848
2698.66	145.276
2697.99	141.529
2697.32	119.164
2696.64	145.208
2695.97	130.294
2695.3	137.718
2694.63	130.253
2693.96	119.07
2693.29	104.17
2692.61	111.593
2691.94	133.89
2691.27	152.462
2690.6	118.976
2689.92	193.306
2689.25	144.957
2688.58	144.934
2687.91	152.342
2687.23	115.168
2686.56	111.435
2685.89	81.7061
2685.21	163.386
2684.54	118.808
2683.87	122.501
2683.19	148.463
2682.52	137.307
2681.85	111.312
2681.17	126.134
2680.5	81.6032
2679.82	137.22
2679.15	129.782
2678.48	137.177
2677.8	148.276
2677.13	126.015
2676.45	174.17
2675.78	111.155
2675.1	144.478
2674.43	122.231
2673.75	140.729
2673.08	159.221
2672.4	148.089
2671.73	111.049
2671.05	99.9288
2670.37	107.314
2669.7	129.496
2669.02	99.8815
2668.35	118.359
2667.67	129.435
2667	140.508
2666.32	136.788
2665.64	129.374
2664.97	121.962
2664.29	114.552
2663.61	144.091
2662.94	132.987
2662.26	144.046
2661.58	158.795
2660.91	166.155
2660.23	114.444
2659.55	129.191
2658.87	140.242
2658.2	118.08
2657.52	147.576
2656.84	151.242
2656.16	147.53
2655.49	132.756
2654.81	121.674
2654.13	129.028
2653.45	147.437
2652.77	136.358
2652.09	154.76
2651.42	147.367
2650.74	128.926
2650.06	143.637
2649.38	121.52
2648.7	95.7281
2648.02	103.076
2647.34	114.101
2646.66	106.723
2645.98	125.104
2645.3	125.084
2644.62	143.456
2643.94	143.433
2643.26	139.734
2642.58	143.388
2641.9	128.661
2641.22	121.29
2640.54	117.596
2639.86	102.88
2639.18	95.5166
2638.5	139.579
2637.82	157.92
2637.14	128.519
2636.46	117.485
2635.78	124.808
2635.1	139.469
2634.42	102.75
2633.73	139.425
2633.05	110.055
2632.37	146.717
2631.69	110.02
2631.01	117.336
2630.33	109.985
2629.64	102.637
2628.96	98.9554
2628.28	128.255
2627.6	102.588
2626.91	150.194
2626.23	106.218
2625.55	146.485
2624.87	146.462
2624.18	197.692
2623.5	98.8303
2622.82	106.134
2622.13	106.117
2621.45	102.442
2620.77	120.716
2620.08	135.327
2619.4	109.707
2618.72	117.003
2618.03	131.607
2617.35	164.483
2616.67	160.802
2615.98	127.891
2615.3	124.217
2614.61	149.767
2613.93	168.005
2613.24	153.371
2612.56	182.556
2611.87	120.468
2611.19	109.499
2610.5	102.183
2609.82	105.816
2609.13	164.171
2608.45	175.087
2607.76	160.471
2607.08	153.153
2606.39	116.67
2605.71	102.07
2605.02	105.698
2604.33	94.749
2603.65	149.388
2602.96	116.577
2602.27	138.413
2601.59	94.6889
2600.9	101.957
2600.21	112.863
2599.53	134.686
2598.84	72.7915
2598.15	127.365
2597.47	145.537
2596.78	163.703
2596.09	181.863
2595.41	149.104
2594.72	123.628
2594.03	119.973
2593.34	116.319
2592.65	174.45
2591.97	87.2114
2591.28	152.596
2590.59	94.449
2589.9	138.019
2589.21	130.734
2588.52	145.237
2587.84	163.366
2587.15	134.302
2586.46	130.651
2585.77	174.174
2585.08	152.378
2584.39	126.961
2583.7	155.956
2583.01	148.679
2582.32	152.281
2581.63	145.007
2580.94	123.236
2580.25	130.465
2579.56	130.444
2578.87	119.555
2578.18	112.291
2577.49	115.895
2576.8	101.392
2576.11	133.961
2575.42	112.22
2574.73	137.538
2574.04	123.041
2573.35	141.112
2572.66	148.325
2571.97	133.833
2571.28	97.6467
2570.58	130.175
2569.89	119.308
2569.2	155.437
2568.51	140.956
2567.82	162.615
2567.13	166.202
2566.43	126.438
2565.74	115.582
2565.05	130.01
2564.36	111.935
2563.66	119.138
2562.97	101.07
2562.28	126.318
2561.59	129.906
2560.89	119.062
2560.2	126.258
2559.51	140.665
2558.81	158.673
2558.12	133.409
2557.43	173.043
2556.73	129.762
2556.04	111.721
2555.35	90.0836
2554.65	75.6582
2553.96	140.486
2553.26	108.049
2552.57	136.84
2551.88	118.816
2551.18	122.397
2550.49	129.576
2549.79	161.944
2549.1	129.535
2548.4	100.733
2547.71	93.5231
2547.01	125.877
2546.32	71.918
2545.62	154.599
2544.93	165.359
2544.23	150.956
2543.53	168.9
2542.84	118.57
2542.14	147.291
2541.45	140.084
2540.75	104.148
2540.05	143.63
2539.36	114.886
2538.66	122.047
2537.97	107.671
2537.27	100.477
2536.57	136.34
2535.88	136.318
2535.18	118.363
2534.48	125.516
2533.78	114.739
2533.09	154.156
2532.39	125.456
2531.69	121.852
2530.99	118.25
2530.3	85.986
2529.6	132.541
2528.9	136.101
2528.2	111.012
2527.5	146.799
2526.81	175.415
2526.11	164.649
2525.41	146.729
2524.71	168.175
2524.01	125.216
2523.31	114.465
2522.61	157.365
2521.91	153.764
2521.21	153.739
2520.52	164.439
2519.82	171.561
2519.12	160.813
2518.42	85.7532
2517.72	189.341
2517.02	157.164
2516.32	121.426
2515.62	135.689
2514.92	110.676
2514.22	157.064
2513.52	128.486
2512.82	132.034
2512.11	114.174
2511.41	117.723
2510.71	121.271
2510.01	110.553
2509.31	139.06
2508.61	124.778
2507.91	153.274
2507.21	138.994
2506.5	128.281
2505.8	156.763
2505.1	131.803
2504.4	103.288
2503.7	142.444
2503	121.058
2502.29	138.838
2501.59	145.935
2500.89	167.264
2500.19	124.539
2499.48	103.173
2498.78	138.727
2498.08	117.366
2497.37	170.687
2496.67	138.661
2495.97	120.865
2495.26	163.497
2494.56	117.272
2493.86	124.36
2493.15	120.787
2492.45	142.08
2491.75	149.16
2491.04	138.484
2490.34	156.213
2489.63	141.989
2488.93	131.319
2488.22	131.298
2487.52	149.017
2486.81	127.709
2486.11	131.235
2485.41	138.307
2484.7	124.102
2483.99	148.898
2483.29	113.428
2482.58	138.218
2481.88	148.827
2481.17	131.088
2480.47	116.898
2479.76	152.297
2479.06	145.19
2478.35	187.655
2477.64	162.844
2476.94	180.516
2476.23	130.941
2475.52	148.612
2474.82	130.899
2474.11	123.804
2473.4	137.931
2472.7	176.806
2471.99	113.138
2471.28	116.655
2470.57	95.4295
2469.87	123.685
2469.16	127.199
2468.45	162.506
2467.74	123.626
2467.04	176.58
2466.33	144.772
2465.62	116.505
2464.91	141.196
2464.2	123.527
2463.5	123.507
2462.79	148.185
2462.08	130.523
2461.37	134.029
2460.66	144.587
2459.95	109.304
2459.24	144.54
2458.53	151.567
2457.82	151.543
2457.11	144.471
2456.4	193.771
2455.69	119.767
2454.99	147.924
2454.28	133.814
2453.57	137.314
2452.85	126.731
2452.14	140.789
2451.43	175.958
2450.72	105.558
2450.01	140.721
2449.3	175.874
2448.59	168.812
2447.88	105.49
2447.17	175.789
2446.46	140.609
2445.75	154.645
2445.04	140.564
2444.32	126.487
2443.61	119.441
2442.9	129.959
2442.19	147.497
2441.48	140.451
2440.76	143.939
2440.05	105.304
2439.34	168.46
2438.63	171.942
2437.92	178.931
2437.2	157.855
2436.49	164.844
2435.78	157.804
2435.06	154.273
2434.35	147.237
2433.64	140.203
2432.92	101.631
2432.21	175.197
2431.5	164.659
2430.78	189.152
2430.07	178.615
2429.36	140.068
2428.64	108.535
2427.93	126.021
2427.21	161
2426.5	153.976
2425.78	181.942
2425.07	150.428
2424.35	129.417
2423.64	136.391
2422.92	136.369
2422.21	164.315
2421.49	167.785
2420.78	143.293
2420.06	188.697
2419.35	202.642
2418.63	171.17
2417.92	171.142
2417.2	199.052
2416.48	157.121
2415.77	139.641
2415.05	118.676
2414.34	115.167
2413.62	143.063
2412.9	156.995
2412.19	174.411
2411.47	142.994
2410.75	156.919
2410.04	163.867
2409.32	177.784
2408.6	153.358
2407.88	170.757
2407.17	142.856
2406.45	156.768
2405.73	208.99
2405.01	198.508
2404.29	194.994
2403.58	153.185
2402.86	142.718
2402.14	160.097
2401.42	153.111
2400.7	208.754
2399.98	173.934
2399.27	177.384
2398.55	100.849
2397.83	159.942
2397.11	139.058
2396.39	152.939
2395.67	145.963
2394.95	142.465
2394.23	159.813
2393.51	163.261
2392.79	145.869
2392.07	166.681
2391.35	152.766
2390.63	156.213
2389.91	135.363
2389.19	149.222
2388.47	145.728
2387.75	180.397
2387.03	128.338
2386.31	145.658
2385.59	128.297
2384.87	145.611
2384.14	149.054
2383.42	169.825
2382.7	194.054
2381.98	148.982
2381.26	180.135
2380.54	173.179
2379.82	159.299
2379.09	141.961
2378.37	135.014
2377.65	148.838
2376.93	166.118
2376.2	148.79
2375.48	124.548
2374.76	172.955
2374.04	145.259
2373.31	148.694
2372.59	176.329
2371.87	141.732
2371.14	134.796
2370.42	127.863
2369.7	162.395
2368.97	114.003
2368.25	162.342
2367.52	138.141
2366.8	183.007
2366.08	196.788
2365.35	182.948
2364.63	158.76
2363.9	182.889
2363.18	148.358
2362.45	158.683
2361.73	162.106
2361	141.389
2360.28	144.814
2359.55	189.607
2358.83	151.661
2358.1	158.529
2357.38	151.612
2356.65	127.471
2355.93	158.452
2355.2	182.535
2354.47	144.627
2353.75	148.047
2353.02	148.023
2352.3	161.766
2351.57	172.064
2350.84	209.884
2350.12	199.529
2349.39	206.376
2348.66	137.562
2347.94	182.24
2347.21	175.335
2346.48	189.056
2345.75	151.22
2345.03	161.505
2344.3	168.35
2343.57	144.277
2342.84	168.296
2342.11	161.4
2341.39	137.34
2340.66	161.348
2339.93	157.89
2339.2	161.296
2338.47	157.839
2337.74	144.09
2337.02	161.218
2336.29	209.206
2335.56	161.165
2334.83	243.423
2334.1	205.676
2333.37	167.942
2332.64	167.915
2331.91	154.182
2331.18	126.752
2330.45	154.133
2329.72	174.655
2328.99	174.627
2328.26	205.41
2327.53	147.187
2326.8	171.12
2326.07	181.358
2325.34	191.592
2324.61	143.671
2323.88	167.589
2323.14	208.597
2322.41	140.182
2321.68	143.578
2320.95	177.734
2320.22	170.87
2319.49	187.927
2318.76	198.145
2318.02	167.372
2317.29	187.836
2316.56	174.147
2315.83	153.634
2315.1	197.985
2314.36	163.823
2313.63	136.497
2312.9	177.417
2312.16	187.623
2311.43	173.949
2310.7	173.921
2309.97	187.531
2309.23	184.092
2308.5	149.976
2307.76	166.992
2307.03	187.41
2306.3	163.531
2305.56	163.504
2304.83	129.42
2304.1	163.451
2303.36	153.211
2302.63	149.782
2301.89	183.793
2301.16	224.6
2300.42	197.344
2299.69	132.675
2298.95	146.259
2298.22	173.442
2297.48	190.415
2296.75	156.387
2296.01	159.761
2295.28	122.35
2294.54	193.689
2293.8	163.08
2293.07	176.642
2292.33	196.991
2291.6	163.001
2290.86	173.16
2290.12	162.948
2289.39	173.104
2288.65	162.895
2287.91	176.441
2287.18	159.45
2286.44	156.032
2285.7	183.138
2284.97	172.935
2284.23	176.298
2283.49	166.1
2282.75	149.126
2282.01	206.71
2281.28	199.9
2280.54	182.93
2279.8	206.609
2279.06	237.054
2278.32	165.911
2277.59	162.498
2276.85	192.935
2276.11	196.288
2275.37	196.256
2274.63	179.309
2273.89	182.662
2273.15	182.632
2272.41	223.181
2271.67	213.002
2270.93	182.543
2270.19	189.273
2269.45	196.001
2268.71	192.591
2267.97	222.963
2267.23	192.528
2266.49	182.365
2265.75	158.699
2265.01	212.69
2264.27	219.406
2263.53	199.121
2262.79	215.961
2262.05	229.421
2261.31	209.144
2260.57	165.264
2259.83	212.448
2259.09	219.157
2258.34	212.379
2257.6	229.197
2256.86	192.09
2256.12	171.842
2255.38	198.765
2254.63	198.732
2253.89	245.849
2253.15	208.769
2252.41	185.168
2251.66	215.434
2250.92	212.033
2250.18	198.538
2249.43	188.412
2248.69	178.29
2247.95	195.078
2247.21	191.683
2246.46	191.652
2245.72	211.791
2244.97	184.867
2244.23	184.837
2243.49	201.607
2242.74	208.294
2242	238.491
2241.25	204.867
2240.51	174.612
2239.76	164.512
2239.02	174.555
2238.27	201.377
2237.53	187.921
2236.78	197.956
2236.04	191.215
2235.29	191.184
2234.55	194.506
2233.8	254.828
2233.06	194.442
2232.31	181.003
2231.57	207.784
2230.82	224.505
2230.07	214.417
2229.33	187.584
2228.58	190.903
2227.83	187.523
2227.09	177.448
2226.34	167.377
2225.59	150.614
2224.85	224.212
2224.1	210.791
2223.35	230.829
2222.6	224.102
2221.86	207.344
2221.11	180.56
2220.36	207.276
2219.61	193.872
2218.87	233.945
2218.12	217.199
2217.37	213.823
2216.62	230.49
2215.87	237.132
2215.12	220.397
2214.37	217.022
2213.63	200.295
2212.88	213.613
2212.13	183.544
2211.38	223.553
2210.63	196.828
2209.88	210.138
2209.13	203.434
2208.38	190.063
2207.63	190.032
2206.88	196.667
2206.13	166.64
2205.38	186.606
2204.63	186.576
2203.88	189.876
2203.13	226.482
2202.38	169.834
2201.63	226.408
2200.88	183.094
2200.12	223.006
2199.37	189.69
2198.62	186.332
2197.87	189.628
2197.12	212.881
2196.37	196.217
2195.62	219.462
2194.86	255.997
2194.11	229.362
2193.36	196.089
2192.61	219.318
2191.85	249.184
2191.1	229.212
2190.35	182.675
2189.6	172.683
2188.84	179.295
2188.09	229.062
2187.34	258.897
2186.58	219.031
2185.83	215.677
2185.08	218.959
2184.32	215.606
2183.57	232.153
2182.82	208.904
2182.06	261.916
2181.31	215.465
2180.55	215.43
2179.8	275.042
2179.04	255.118
2178.29	288.203
2177.53	268.283
2176.78	278.173
2176.02	231.773
2175.27	235.046
2174.51	248.247
2173.76	221.731
2173	188.606
2172.25	205.117
2171.49	258.008
2170.74	238.122
2169.98	214.936
2169.22	204.982
2168.47	204.948
2167.71	218.135
2166.95	241.231
2166.2	274.231
2165.44	280.793
2164.68	217.992
2163.93	227.863
2163.17	194.808
2162.41	221.186
2161.65	204.646
2160.9	174.911
2160.14	204.579
2159.38	227.639
2158.62	214.407
2157.87	214.372
2157.11	201.147
2156.35	197.817
2155.59	207.674
2154.83	263.67
2154.07	210.901
2153.31	263.583
2152.56	266.834
2151.8	220.678
2151.04	246.987
2150.28	233.776
2149.52	181.065
2148.76	260.032
2148	227.079
2147.24	220.461
2146.48	207.265
2145.72	240.125
2144.96	194.042
2144.2	233.469
2143.44	223.568
2142.68	207.095
2141.92	200.487
2141.16	216.885
2140.4	252.991
2139.64	197.103
2138.87	223.347
2138.11	216.743
2137.35	229.841
2136.59	226.52
2135.83	229.765
2135.07	269.109
2134.31	265.784
2133.54	252.617
2132.78	219.773
2132.02	216.458
2131.26	203.305
2130.49	216.386
2129.73	275.356
2128.97	232.703
2128.21	235.941
2127.44	232.626
2126.68	285.002
2125.92	278.404
2125.15	229.237
2124.39	248.844
2123.63	238.982
2122.86	212.757
2122.1	268.357
2121.33	219.232
2120.57	251.911
2119.81	248.599
2119.04	219.123
2118.28	245.247
2117.51	215.782
2116.75	254.973
2115.98	245.126
2115.22	235.282
2114.45	241.778
2113.69	310.339
2112.92	290.691
2112.16	257.987
2111.39	254.679
2110.62	261.166
2109.86	251.331
2109.09	248.026
2108.33	267.563
2107.56	215.32
2106.79	215.285
2106.03	260.908
2105.26	211.953
2104.49	244.521
2103.73	283.597
2102.96	338.957
2102.19	306.314
2101.42	270.425
2100.66	250.834
2099.89	244.279
2099.12	257.265
2098.35	270.246
2097.59	289.734
2096.82	260.392
2096.05	279.876
2095.28	253.799
2094.51	328.583
2093.74	253.715
2092.98	302.457
2092.21	305.658
2091.44	247.087
2090.67	234.044
2089.9	276.256
2089.13	246.965
2088.36	266.418
2087.59	246.883
2086.82	279.322
2086.05	237.06
2085.28	269.489
2084.51	253.213
2083.74	262.909
2082.97	275.846
2082.2	292.024
2081.43	298.464
2080.66	240.03
2079.89	272.421
2079.12	265.891
2078.35	256.121
2077.57	226.905
2076.8	262.518
2076.03	249.513
2075.26	262.431
2074.49	285.064
2073.72	268.822
2072.94	265.54
2072.17	255.782
2071.4	288.112
2070.63	268.645
2069.86	239.475
2069.08	268.556
2068.31	291.157
2067.54	287.874
2066.76	297.529
2065.99	252.211
2065.22	303.896
2064.44	274.754
2063.67	326.419
2062.9	332.828
2062.12	271.387
2061.35	264.882
2060.58	261.608
2059.8	264.794
2059.03	274.436
2058.25	255.022
2057.48	309.849
2056.7	348.523
2055.93	412.996
2055.15	287.113
2054.38	341.899
2053.6	270.894
2052.83	261.176
2052.05	319.162
2051.28	344.896
2050.5	325.502
2049.72	354.448
2048.95	309.286
2048.17	293.128
2047.4	302.742
2046.62	341.333
2045.84	260.787
2045.07	263.963
2044.29	296.104
2043.51	305.709
2042.74	292.789
2041.96	292.74
2041.18	328.072
2040.4	273.348
2039.63	279.734
2038.85	279.687
2038.07	321.426
2037.29	263.526
2036.52	330.959
2035.74	298.778
2034.96	263.395
2034.18	260.14
2033.4	292.207
2032.62	298.58
2031.84	365.94
2031.07	336.995
2030.29	314.476
2029.51	346.508
2028.73	304.748
2027.95	378.467
2027.17	333.508
2026.39	307.803
2025.61	314.163
2024.83	320.522
2024.05	394.176
2023.27	368.478
2022.49	349.195
2021.71	345.934
2020.93	368.294
2020.15	349.021
2019.37	336.157
2018.59	358.508
2017.8	332.845
2017.02	383.988
2016.24	361.529
2015.46	419.048
2014.68	396.59
2013.9	322.976
2013.11	396.459
2012.33	377.213
2011.55	357.973
2010.77	415.435
2009.99	373.83
2009.2	376.962
2008.42	335.377
2007.64	354.482
2006.85	379.967
2006.07	392.674
2005.29	347.922
2004.5	386.161
2003.72	405.242
2002.94	376.461
2002.15	350.88
2001.37	341.254
2000.59	395.406
1999.8	433.599
1999.02	382.524
1998.23	443.017
1997.45	356.904
1996.66	360.031
1995.88	398.198
1995.09	398.132
1994.31	353.482
1993.52	369.343
1992.74	346.998
1991.95	404.233
1991.17	369.159
1990.38	350.006
1989.6	353.129
1988.81	400.783
1988.02	403.897
1987.24	416.548
1986.45	432.375
1985.67	403.695
1984.88	403.628
1984.09	397.205
1983.3	400.316
1982.52	432.016
1981.73	444.648
1980.94	435.047
1980.16	412.75
1979.37	406.332
1978.58	472.918
1977.79	393.503
1977.01	444.204
1976.22	431.441
1975.43	450.4
1974.64	447.154
1973.85	431.225
1973.06	431.153
1972.27	459.609
1971.49	434.179
1970.7	481.637
1969.91	487.893
1969.12	503.649
1968.33	440.224
1967.54	484.482
1966.75	440.077
1965.96	405.183
1965.17	458.92
1964.38	452.515
1963.59	474.587
1962.8	531.449
1962.01	518.709
1961.22	474.35
1960.43	528.021
1959.64	483.675
1958.85	502.559
1958.06	492.995
1957.26	502.392
1956.47	518.104
1955.68	492.748
1954.89	473.717
1954.1	483.111
1953.31	489.345
1952.51	517.672
1951.72	517.585
1950.93	511.188
1950.14	533.188
1949.34	536.253
1948.55	533.01
1947.76	444.626
1946.97	532.832
1946.17	453.935
1945.38	510.591
1944.59	548.321
1943.79	567.134
1943	519.786
1942.21	522.849
1941.41	554.254
1940.62	519.526
1939.82	503.699
1939.03	519.353
1938.24	497.236
1937.44	604.136
1936.65	534.823
1935.85	509.569
1935.06	540.934
1934.26	578.577
1933.47	525.034
1932.67	578.383
1931.88	528.001
1931.08	553.051
1930.28	584.377
1929.49	518.312
1928.69	540.211
1927.9	536.981
1927.1	524.332
1926.3	505.409
1925.51	564.959
1924.71	542.898
1923.91	539.67
1923.12	602.321
1922.32	580.265
1921.52	551.943
1920.73	548.715
1919.93	532.949
1919.13	579.876
1918.33	611.119
1917.53	532.681
1916.74	579.586
1915.94	573.224
1915.14	554.337
1914.34	579.295
1913.54	591.721
1912.74	535.277
1911.95	575.874
1911.15	563.261
1910.35	563.167
1909.55	606.867
1908.75	569.233
1907.95	637.935
1907.15	590.929
1906.35	578.326
1905.55	550.099
1904.75	575.007
1903.95	596.783
1903.15	559.195
1902.35	640.311
1901.55	602.729
1900.75	621.362
1899.95	583.795
1899.15	621.154
1898.35	633.533
1897.54	608.465
1896.74	611.483
1895.94	636.334
1895.14	642.465
1894.34	626.766
1893.54	611.073
1892.73	651.494
1891.93	629.568
1891.13	616.998
1890.33	626.241
1889.53	641.712
1888.72	638.49
1887.92	669.523
1887.12	635.162
1886.31	631.943
1885.51	703.424
1884.71	644.179
1883.9	656.516
1883.1	687.516
1882.3	612.75
1881.49	575.329
1880.69	634.31
1879.88	621.769
1879.08	618.556
1878.28	633.991
1877.47	643.207
1876.67	667.953
1875.86	683.372
1875.06	611.826
1874.25	680.037
1873.45	620.935
1872.64	667.393
1871.84	648.659
1871.03	651.653
1870.22	688.775
1869.42	663.842
1868.61	645.122
1867.81	672.923
1867	654.207
1866.19	678.897
1865.39	644.688
1864.58	607.393
1863.77	666.161
1862.97	684.636
1862.16	700.008
1861.35	613.179
1860.54	644.039
1859.74	650.122
1858.93	668.585
1858.12	705.61
1857.31	659.077
1856.51	649.685
1855.7	720.72
1854.89	640.189
1854.08	596.791
1853.27	704.899
1852.46	748.056
1851.65	710.843
1850.84	639.651
1850.04	633.364
1849.23	682.683
1848.42	645.505
1847.61	719.509
1846.8	707.038
1845.99	734.702
1845.18	672.849
1844.37	709.768
1843.56	654.111
1842.75	641.661
1841.94	690.903
1841.13	663.032
1840.31	690.671
1839.5	690.554
1838.69	705.85
1837.88	761.203
1837.07	693.287
1836.26	699.332
1835.45	689.973
1834.64	692.937
1833.82	686.662
1833.01	664.996
1832.2	698.743
1831.39	698.626
1830.57	649.274
1829.76	707.62
1828.95	645.979
1828.14	679.702
1827.32	654.987
1826.51	676.398
1825.7	713.172
1824.88	648.509
1824.07	765.173
1823.26	765.044
1822.44	728.052
1821.63	807.786
1820.81	700.168
1820	690.839
1819.19	736.771
1818.37	650.704
1817.56	711.972
1816.74	678.1
1815.93	733.206
1815.11	696.275
1814.3	696.158
1813.48	656.179
1812.67	723.514
1811.85	643.697
1811.03	720.206
1810.22	753.79
1809.4	723.026
1808.59	744.347
1807.77	707.469
1806.95	670.605
1806.14	670.491
1805.32	719.356
1804.5	694.75
1803.69	676.272
1802.87	679.218
1802.05	633.218
1801.24	691.222
1800.42	703.338
1799.6	703.219
1798.78	700.043
1797.96	785.505
1797.15	727.31
1796.33	739.409
1795.51	730.119
1794.69	781.921
1793.87	693.226
1793.05	741.963
1792.23	778.472
1791.42	668.457
1790.6	741.587
1789.78	710.949
1788.96	732.184
1788.14	677.156
1787.32	698.39
1786.5	744.01
1785.68	689.007
1784.86	643.168
1784.04	707.061
1783.22	719.13
1782.4	722.055
1781.58	688.425
1780.76	715.72
1779.93	715.599
1779.11	745.923
1778.29	739.709
1777.47	690.887
1776.65	702.942
1775.83	730.206
1775.01	702.705
1774.18	714.752
1773.36	690.303
1772.54	747.955
1771.72	705.269
1770.89	750.742
1770.07	732.381
1769.25	738.334
1768.43	710.868
1767.6	692.523
1766.78	731.885
1765.96	719.616
1765.13	743.781
1764.31	716.337
1763.49	758.703
1762.66	710.026
1761.84	782.717
1761.01	773.484
1760.19	733.927
1759.36	800.513
1758.54	733.679
1757.72	721.43
1756.89	772.83
1756.07	745.427
1755.24	760.449
1754.41	739.116
1753.59	793.507
1752.76	732.809
1751.94	787.182
1751.11	744.669
1750.29	735.463
1749.46	686.921
1748.63	704.958
1747.81	780.466
1746.98	771.26
1746.15	743.913
1745.33	731.692
1744.5	795.051
1743.67	788.872
1742.85	767.584
1742.02	794.647
1741.19	794.512
1740.36	818.541
1739.54	791.223
1738.71	736.739
1737.88	778.879
1737.05	775.728
1736.22	775.597
1735.39	745.291
1734.57	829.637
1733.74	832.513
1732.91	811.261
1732.08	820.169
1731.25	792.896
1730.42	837.976
1729.59	861.944
1728.76	822.625
1727.93	816.46
1727.1	780.175
1726.27	810.16
1725.44	767.865
1724.61	809.885
1723.78	818.778
1722.95	806.6
1722.12	824.518
1721.29	779.248
1720.46	800.173
1719.62	781.991
1718.79	760.808
1717.96	778.718
1717.13	766.562
1716.3	787.471
1715.47	829.408
1714.63	823.258
1713.8	784.065
1712.97	792.943
1712.14	831.848
1711.31	828.704
1710.47	846.575
1709.64	834.425
1708.81	870.295
1707.97	840.142
1707.14	765
1706.31	785.866
1705.47	851.71
1704.64	914.533
1703.81	746.492
1702.97	809.311
1702.14	848.133
1701.3	782.068
1700.47	835.861
1699.63	766.825
1698.8	892.48
1697.96	871.367
1697.13	883.195
1696.29	912.978
1695.46	903.844
1694.62	879.751
1693.79	804.806
1692.95	858.513
1692.12	876.311
1691.28	873.172
1690.44	768.38
1689.61	842.982
1688.77	833.872
1687.93	842.695
1687.1	848.527
1686.26	869.293
1685.42	866.158
1684.59	866.011
1683.75	859.892
1682.91	853.775
1682.07	871.538
1681.24	886.31
1680.4	865.273
1679.56	960.588
1678.72	888.84
1677.88	876.76
1677.05	858.72
1676.21	852.612
1675.37	837.563
1674.53	873.182
1673.69	902.829
1672.85	902.675
1672.01	899.543
1671.17	875.565
1670.33	839.684
1669.49	869.312
1668.65	898.93
1667.81	907.704
1666.97	827.209
1666.13	886.569
1665.29	934.011
1664.45	933.852
1663.61	939.64
1662.77	912.722
1661.93	960.127
1661.09	965.907
1660.25	936.027
1659.4	923.983
1658.56	935.707
1657.72	914.758
1656.88	929.449
1656.04	982.732
1655.19	908.352
1654.35	905.229
1653.51	899.14
1652.67	958.325
1651.82	925.531
1650.98	916.475
1650.14	913.353
1649.3	919.127
1648.45	954.543
1647.61	844.715
1646.77	951.253
1645.92	954.054
1645.08	962.778
1644.23	1045.55
1643.39	956.526
1642.54	944.519
1641.7	926.596
1640.86	967.875
1640.01	952.913
1639.17	967.544
1638.32	1029.5
1637.48	911.015
1636.63	961.134
1635.78	907.746
1634.94	996.281
1634.09	901.524
1633.25	927.968
1632.4	1037.14
1631.56	977.874
1630.71	974.753
1629.86	965.726
1629.02	956.703
1628.17	909.302
1627.32	974.086
1626.47	938.504
1625.63	988.506
1624.78	955.884
1623.93	1026.51
1623.09	943.76
1622.24	1011.42
1621.39	1005.35
1620.54	990.44
1619.69	949.009
1618.84	966.527
1618	1001.72
1617.15	975.033
1616.3	1016.1
1615.45	1036.54
1614.6	1033.42
1613.75	1012.63
1612.9	947.709
1612.05	988.745
1611.2	1068.01
1610.35	1073.71
1609.5	994.119
1608.65	988.067
1607.8	1002.6
1606.95	1034.76
1606.1	1011.07
1605.25	1069.67
1604.4	946.087
1603.55	960.613
1602.7	1033.88
1601.85	963.22
1600.99	948.375
1600.14	1001.05
1599.29	1027.3
1598.44	1035.93
1597.59	1012.28
1596.74	1047.31
1595.88	1047.13
1595.03	997.091
1594.18	1014.51
1593.32	1011.41
1592.47	1043.48
1591.62	975.893
1590.77	1028.47
1589.91	1031.22
1589.06	1001.75
1588.21	1098.22
1587.35	1039.47
1586.5	1021.73
1585.64	1006.92
1584.79	1012.6
1583.93	1047.54
1583.08	1032.73
1582.23	1047.18
1581.37	1082.09
1580.52	1105.3
1579.66	1017.4
1578.81	1075.69
1577.95	1087.2
1577.09	1060.71
1576.24	1080.98
1575.38	1118.77
1574.53	1045.56
1573.67	1054.14
1572.81	1036.44
1571.96	983.723
1571.1	1053.6
1570.24	1079.68
1569.39	1079.49
1568.53	1079.31
1567.67	1128.71
1566.82	1076.02
1565.96	1104.99
1565.1	1063.99
1564.24	1151.25
1563.39	1130.65
1562.53	1072.18
1561.67	1115.7
1560.81	1106.77
1559.95	1150.26
1559.09	1036.51
1558.23	1062.53
1557.38	1073.99
1556.52	1126.18
1555.66	1070.71
1554.8	1076.34
1553.94	1070.34
1553.08	1105.05
1552.22	1186.27
1551.36	1127.93
1550.5	1087.04
1549.64	1121.73
1548.78	1109.91
1547.92	1112.63
1547.06	1042.73
1546.2	1115.15
1545.34	1161.41
1544.47	1146.7
1543.61	1068.13
1542.75	1160.81
1541.89	1105.48
1541.03	1084.99
1540.17	1110.9
1539.3	1090.41
1538.44	1096.02
1537.58	1090.04
1536.72	1130.43
1535.85	1101.25
1534.99	1106.86
1534.13	1040.04
1533.27	1149.93
1532.4	1172.9
1531.54	1219.02
1530.68	1085.64
1529.81	1169.4
1528.95	1157.62
1528.08	1154.52
1527.22	1108.04
1526.36	1136.77
1525.49	1156.82
1524.63	1191.32
1523.76	1170.88
1522.9	1153.33
1522.03	1179.14
1521.17	1225.17
1520.3	1184.51
1519.44	1129.43
1518.57	1111.9
1517.7	1146.36
1516.84	1128.84
1515.97	1140.19
1515.11	1134.22
1514.24	1116.72
1513.37	1139.6
1512.51	1130.75
1511.64	1121.91
1510.77	1095.76
1509.91	1153.23
1509.04	1170.33
1508.17	1213.36
1507.3	1155.52
1506.44	1181.25
1505.57	1212.73
1504.7	1157.8
1503.83	1174.88
1502.96	1217.86
1502.09	1211.89
1501.23	1151.24
1500.36	1151.04
1499.49	1211.26
1498.62	1205.3
1497.75	1147.57
1496.88	1150.25
1496.01	1147.17
1495.14	1204.47
1494.27	1218.63
1493.4	1189.68
1492.53	1218.21
1491.66	1229.49
1490.79	1214.92
1489.92	1269.27
1489.05	1297.76
1488.18	1257.35
1487.31	1271.48
1486.44	1245.43
1485.56	1253.82
1484.69	1282.29
1483.82	1236.18
1482.95	1215.89
1482.08	1301.7
1481.21	1330.14
1480.33	1281.18
1479.46	1381.26
1478.59	1300.8
1477.72	1309.17
1476.84	1328.99
1475.97	1302.99
1475.1	1325.67
1474.22	1425.63
1473.35	1454.01
1472.48	1376.49
1471.6	1404.86
1470.73	1416.06
1469.85	1455.86
1468.98	1549.98
1468.11	1606.9
1467.23	1518
1466.36	1577.76
1465.48	1568.91
1464.61	1634.36
1463.73	1596.93
1462.86	1659.5
1461.98	1727.75
1461.11	1673.2
1460.23	1789.95
1459.35	1672.62
1458.48	1792.19
1457.6	1763.34
1456.73	1674.6
1455.85	1717.09
1454.97	1773.83
1454.1	1779.23
1453.22	1770.37
1452.34	1809.97
1451.46	1687.11
1450.59	1740.95
1449.71	1743.5
1448.83	1811.56
1447.95	1694.48
1447.08	1716.97
1446.2	1833.39
1445.32	1818.84
1444.44	1832.75
1443.56	1917.8
1442.68	1889.02
1441.81	1968.33
1440.93	1999.27
1440.05	2149.63
1439.17	2140.73
1438.29	2185.83
1437.41	2179.77
1436.53	2170.87
1435.65	2022.76
1434.77	1985.48
1433.89	2013.54
1433.01	2016.03
1432.13	1899.28
1431.25	1870.57
1430.37	1850.37
1429.48	1691.15
1428.6	1724.9
1427.72	1741.62
1426.84	1633.55
1425.96	1741.02
1425.08	1567.78
1424.19	1661.04
1423.31	1638.08
1422.43	1753.97
1421.55	1609.18
1420.67	1631.56
1419.78	1659.6
1418.9	1732.93
1418.02	1777.93
1417.13	1820.08
1416.25	1848.07
1415.37	1992.05
1414.48	1957.76
1413.6	1861.24
1412.71	1674.26
1411.83	1606.11
1410.95	1687.82
1410.06	1611.2
1409.18	1543.09
1408.29	1528.7
1407.41	1514.31
1406.52	1460.37
1405.64	1502.48
1404.75	1521.99
1403.87	1473.73
1402.98	1493.23
1402.1	1476.04
1401.21	1484.24
1400.32	1472.7
1399.44	1588.1
1398.55	1477.83
1397.66	1477.57
1396.78	1522.42
1395.89	1431.95
1395	1417.61
1394.12	1451.18
1393.23	1448.11
1392.34	1439.41
1391.45	1487.04
1390.57	1571.25
1389.68	1587.87
1388.79	1649.52
1387.9	1553.54
1387.01	1477.3
1386.12	1485.48
1385.24	1549.92
1384.35	1560.9
1383.46	1546.57
1382.57	1596.9
1381.68	1571.33
1380.79	1526.08
1379.9	1424.66
1379.01	1491.84
1378.12	1530.9
1377.23	1488.51
1376.34	1617.42
1375.45	1594.68
1374.56	1510.19
1373.67	1585.7
1372.78	1487.21
1371.89	1481.34
1370.99	1554.02
1370.1	1559.35
1369.21	1536.65
1368.32	1558.81
1367.43	1499.67
1366.54	1552.66
1365.64	1566.4
1364.75	1510.09
1363.86	1568.65
1362.97	1509.57
1362.07	1534.5
1361.18	1427.85
1360.29	1422
1359.39	1460.93
1358.5	1438.29
1357.61	1482.8
1356.71	1479.75
1355.82	1409.57
1354.93	1426.1
1354.03	1378.32
1353.14	1372.49
1352.24	1372.25
1351.35	1380.4
1350.45	1355.01
1349.56	1393.88
1348.66	1354.54
1347.77	1340.34
1346.87	1368.02
1345.98	1337.08
1345.08	1317.31
1344.18	1328.24
1343.29	1400.55
1342.39	1341.72
1341.5	1383.32
1340.6	1321.73
1339.7	1329.87
1338.81	1349.15
1337.91	1337.76
1337.01	1312.45
1336.11	1317.79
1335.22	1211.71
1334.32	1228.21
1333.42	1208.5
1332.52	1194.37
1331.63	1238.7
1330.73	1283.01
1329.83	1224.35
1328.93	1218.57
1328.03	1223.92
1327.13	1218.15
1326.23	1215.15
1325.33	1220.5
1324.43	1225.85
1323.53	1200.62
1322.64	1128.16
1321.74	1202.98
1320.84	1205.54
1319.94	1144.23
1319.03	1105.16
1318.13	1093.86
1317.23	1107.55
1316.33	1160.08
1315.43	1129.36
1314.53	1098.64
1313.63	1142.83
1312.73	1131.54
1311.83	1164.61
1310.92	1164.41
1310.02	1252.9
1309.12	1183.4
1308.22	1172.11
1307.32	1171.9
1306.41	1213.25
1305.51	1224.11
1304.61	1174.06
1303.71	1162.78
1302.8	1220.7
1301.9	1195.58
1301	1253.48
1300.09	1161.96
1299.19	1233.67
1298.28	1341.32
1297.38	1468.28
1296.48	1664.31
1295.57	1954.25
1294.67	2216.45
1293.76	2356.99
1292.86	2118.98
1291.95	1850.68
1291.05	1513.42
1290.14	1253.6
1289.24	1118.1
1288.33	1101.35
1287.42	1004.56
1286.52	968.513
1285.61	993.172
1284.71	890.939
1283.8	879.751
1282.89	940.259
1281.99	854.63
1281.08	887.557
1280.17	892.913
1279.26	878.979
1278.36	895.354
1277.45	897.951
1276.54	864.746
1275.63	806.771
1274.72	911.243
1273.82	905.577
1272.91	886.154
1272	828.216
1271.09	841.825
1270.18	849.929
1269.27	808.528
1268.36	758.893
1267.45	805.495
1266.54	758.626
1265.64	780.478
1264.73	810.565
1263.82	826.906
1262.91	807.533
1261.99	774.436
1261.08	818.232
1260.17	763.183
1259.26	795.986
1258.35	782.124
1257.44	754.548
1256.53	795.566
1255.62	789.94
1254.71	784.316
1253.79	726.598
1252.88	773.074
1251.97	715.379
1251.06	731.696
1250.15	717.867
1249.23	750.614
1248.32	742.265
1247.41	744.873
1246.49	717.361
1245.58	711.76
1244.67	717.109
1243.75	744.348
1242.84	694.967
1241.93	719.465
1241.01	722.074
1240.1	765.701
1239.18	713.617
1238.27	697.089
1237.35	664.167
1236.44	705.041
1235.53	669.398
1234.61	669.28
1233.69	704.668
1232.78	669.044
1231.86	679.847
1230.95	687.916
1230.03	682.336
1229.12	684.945
1228.2	668.454
1227.28	660.152
1226.37	695.492
1225.45	668.1
1224.53	717.058
1223.62	765.999
1222.7	733.158
1221.78	686.704
1220.86	664.786
1219.95	631.98
1219.03	705.405
1218.11	629.034
1217.19	669.762
1216.27	675.088
1215.35	680.412
1214.44	683.013
1213.52	631.2
1212.6	658.29
1211.68	641.856
1210.76	663.496
1209.84	660.66
1208.92	606.178
1208	646.838
1207.08	614.116
1206.16	575.971
1205.24	630.197
1204.32	613.79
1203.4	638.12
1202.48	627.148
1201.56	659.61
1200.64	648.638
1199.71	613.248
1198.79	626.704
1197.87	632.019
1196.95	653.603
1196.03	569.429
1195.1	601.861
1194.18	599.044
1193.26	585.388
1192.34	639.477
1191.41	628.527
1190.49	636.542
1189.57	612.056
1188.65	633.609
1187.72	622.668
1186.8	614.438
1185.87	587.266
1184.95	627.749
1184.03	619.522
1183.1	624.822
1182.18	608.485
1181.25	648.936
1180.33	586.643
1179.4	629.786
1178.48	624.269
1177.55	651.179
1176.63	624.048
1175.7	623.938
1174.78	575.217
1173.85	556.215
1172.92	564.215
1172	631.593
1171.07	696.248
1170.15	639.464
1169.22	658.234
1168.29	658.118
1167.36	658.001
1166.44	647.099
1165.51	590.373
1164.58	603.745
1163.65	587.469
1162.73	625.086
1161.8	608.812
1160.87	646.411
1159.94	578.974
1159.01	581.564
1158.08	613.764
1157.16	546.369
1156.23	535.508
1155.3	567.699
1154.37	581.048
1153.44	570.187
1152.51	570.086
1151.58	588.805
1150.65	583.324
1149.72	626.223
1148.79	588.492
1147.86	626.001
1146.93	639.321
1146	590.864
1145.07	622.982
1144.13	601.393
1143.2	603.971
1142.27	579.709
1141.34	566.189
1140.41	603.649
1139.48	555.259
1138.54	598.071
1137.61	662.32
1136.68	702.417
1135.75	721.055
1134.81	672.687
1133.88	779.749
1132.95	755.499
1132.01	945.545
1131.08	1090
1130.15	1285.27
1129.21	1469.77
1128.28	1456.12
1127.35	1410.37
1126.41	1300.41
1125.48	1230.62
1124.54	1016.42
1123.61	917.291
1122.67	834.238
1121.74	737.849
1120.8	713.662
1119.87	662.759
1118.93	646.609
1117.99	614.437
1117.06	616.998
1116.12	654.276
1115.19	547.358
1114.25	592.643
1113.31	528.48
1112.38	597.769
1111.44	597.663
1110.5	517.527
1109.56	570.778
1108.63	512.009
1107.69	514.584
1106.75	535.819
1105.81	522.397
1104.88	548.952
1103.94	530.204
1103	572.731
1102.06	588.61
1101.12	484.651
1100.18	540.476
1099.24	524.408
1098.3	484.392
1097.36	518.899
1096.42	532.109
1095.49	518.714
1094.55	515.962
1093.6	542.461
1092.66	558.317
1091.72	587.457
1090.78	539.514
1089.84	581.933
1088.9	539.321
1087.96	533.913
1087.02	570.999
1086.08	549.654
1085.14	565.485
1084.19	637.053
1083.25	581.207
1082.31	562.529
1081.37	546.511
1080.43	607.421
1079.48	623.225
1078.54	649.629
1077.6	657.467
1076.65	567.229
1075.71	553.877
1074.77	569.676
1073.82	545.732
1072.88	572.121
1071.93	558.778
1070.99	550.735
1070.05	664.47
1069.1	622.002
1068.16	661.587
1067.21	693.219
1066.27	804.202
1065.32	931.015
1064.38	1126.54
1063.43	1139.56
1062.49	1313.83
1061.54	1128.58
1060.59	1075.52
1059.65	1011.92
1058.7	832.111
1057.75	755.369
1056.81	681.295
1055.86	623.089
1054.91	575.462
1053.97	541.049
1053.02	538.314
1052.07	522.387
1051.12	511.743
1050.18	458.904
1049.23	469.369
1048.28	442.921
1047.33	408.574
1046.38	482.295
1045.43	537.544
1044.48	482.122
1043.54	429.355
1042.59	505.652
1041.64	542.426
1040.69	471.247
1039.74	413.254
1038.79	434.234
1037.84	402.581
1036.89	436.709
1035.94	397.177
1034.99	420.774
1034.04	415.44
1033.08	425.881
1032.13	407.406
1031.18	423.101
1030.23	402.005
1029.28	420.322
1028.33	467.525
1027.37	420.172
1026.42	414.845
1025.47	401.645
1024.52	425.195
1023.57	440.864
1022.61	443.409
1021.66	372.502
1020.71	388.172
1019.75	382.857
1018.8	377.545
1017.85	448.254
1016.89	398.377
1015.94	421.889
1014.98	366.795
1014.03	398.163
1013.07	395.472
1012.12	421.587
1011.16	421.511
1010.21	408.348
1009.25	405.657
1008.3	444.835
1007.34	447.371
1006.39	374.05
1005.43	371.368
1004.48	394.834
1003.52	358.163
1002.56	365.94
1001.61	394.622
1000.65	405.003
999.693	399.705
998.736	402.245
997.778	347.331
996.821	381.213
995.863	430.745
994.905	383.686
993.947	394.056
992.989	357.456
992.031	422.61
991.072	380.802
990.114	365.087
989.155	380.665
988.196	411.879
987.237	372.71
986.277	401.307
985.318	411.657
984.358	408.978
983.398	414.114
982.438	390.603
981.478	382.722
980.517	325.385
979.557	392.995
978.596	400.731
977.635	426.676
976.674	426.599
975.713	395.313
974.751	397.842
973.79	400.371
972.828	369.107
971.866	361.244
970.904	345.588
969.942	348.124
968.979	335.074
968.017	368.775
967.054	376.498
966.091	350.47
965.128	407.51
964.164	368.509
963.201	428.12
962.237	459.174
961.273	422.779
960.309	344.905
959.345	355.214
958.381	399.22
957.416	370.637
956.451	437.947
955.486	427.504
954.521	424.837
953.556	367.78
952.591	344.408
951.625	349.524
950.659	385.702
949.693	372.692
948.727	419.203
947.761	393.255
946.794	429.398
945.828	429.321
944.861	429.244
943.894	403.313
942.927	400.655
941.959	356.648
940.992	382.423
940.024	397.855
939.056	384.868
938.088	364.139
937.12	407.968
936.152	387.242
935.183	420.727
934.214	425.812
933.246	384.452
932.276	420.499
931.307	464.271
930.338	379.087
929.368	428.007
928.398	427.93
927.428	412.388
926.458	414.89
925.488	347.827
924.517	386.404
923.547	437.846
922.576	430.042
921.605	355.3
920.634	401.57
919.662	427.235
918.691	424.585
917.719	367.907
916.747	419.287
915.775	442.358
914.803	429.421
913.831	406.205
912.858	382.997
911.885	367.508
910.912	408.554
909.939	403.342
908.966	403.269
907.992	410.901
907.019	439.071
906.045	382.513
905.071	410.678
904.097	351.58
903.122	415.661
902.148	392.498
901.173	412.946
900.198	402.614
899.223	387.157
898.248	397.341
897.273	399.832
896.297	427.948
895.321	420.185
894.345	407.3
893.369	404.666
892.393	419.957
891.416	419.881
890.44	401.886
889.463	401.813
888.486	411.976
887.509	373.526
886.531	411.827
885.554	383.62
884.576	378.437
883.598	406.49
882.62	380.856
881.642	426.788
880.664	424.156
879.685	416.415
878.706	395.906
877.727	416.264
876.748	403.422
875.769	426.325
874.789	421.143
873.81	405.755
872.83	489.879
871.85	650.503
870.87	550.914
869.889	469.212
868.909	433.433
867.928	405.314
866.947	331.329
865.966	387.329
864.985	379.616
864.003	473.797
863.022	478.805
862.04	468.532
861.058	414.983
860.076	447.999
859.094	437.738
858.111	384.223
857.128	450.299
856.146	401.889
855.162	373.842
854.179	386.487
853.196	439.804
852.212	414.306
851.229	459.974
850.245	409.074
849.261	421.702
848.276	414.005
847.292	436.785
846.307	416.394
845.322	375.702
844.337	413.705
843.352	411.092
842.367	474.446
841.381	456.603
840.396	476.81
839.41	436.151
838.424	428.466
837.437	375.157
836.451	402.967
835.464	369.952
834.477	390.153
833.49	374.884
832.503	425.467
831.516	405.133
830.528	432.907
829.541	453.077
828.553	460.587
827.565	513.638
826.577	526.194
825.588	515.981
824.6	467.839
823.611	422.243
822.622	384.247
821.633	399.342
820.643	462.445
819.654	414.356
818.664	416.807
817.674	399.051
816.684	449.482
815.694	444.351
814.704	426.6
813.713	449.237
812.723	421.398
811.732	401.139
810.741	401.066
809.749	441.344
808.758	375.705
807.766	398.326
806.774	357.924
805.782	347.778
804.79	488.816
803.798	486.208
802.805	408.038
801.812	397.89
800.819	412.925
799.826	420.402
798.833	495.833
797.84	515.874
796.846	576.164
795.852	480.469
794.858	470.321
793.864	460.176
792.87	472.663
791.875	512.797
790.88	449.872
789.885	424.662
788.89	427.097
787.895	459.673
786.9	424.43
785.904	366.6
784.908	374.065
783.912	386.547
782.916	376.438
781.92	361.315
780.923	393.861
779.926	366.199
778.929	383.687
777.932	423.733
776.935	403.601
775.938	378.464
774.94	353.336
773.942	420.919
772.944	413.327
771.946	415.756
770.948	418.184
769.949	368.035
768.95	438.057
767.951	518.064
766.952	460.417
765.953	492.857
764.954	492.767
763.954	422.652
762.954	395.07
761.954	382.497
760.954	387.427
759.954	394.853
758.953	354.803
757.952	382.218
756.951	392.139
755.95	354.609
754.949	406.976
753.948	394.42
752.946	424.299
751.944	439.194
750.942	494.002
749.94	541.308
748.937	496.316
747.935	389.001
746.932	383.943
745.929	396.336
744.926	393.772
743.923	448.518
742.919	381.171
741.916	443.373
740.912	465.705
739.908	420.801
738.903	398.318
737.899	403.224
736.894	413.104
735.89	447.862
734.885	460.219
733.88	450.186
732.874	489.891
731.869	487.315
730.863	502.141
729.857	472.224
728.851	427.409
727.845	457.145
726.838	506.741
725.832	486.78
724.825	429.579
723.818	454.327
722.811	439.351
721.804	409.489
720.796	426.783
719.788	419.262
718.78	550.646
717.772	495.987
716.764	396.717
715.756	423.913
714.747	404.007
713.738	344.458
712.729	384.037
711.72	411.216
710.71	433.432
709.701	450.686
708.691	410.99
707.681	415.865
706.671	383.615
705.661	408.289
704.65	425.533
703.64	371.036
702.629	403.119
701.618	407.99
700.606	395.554
699.595	479.521
698.583	479.433
697.572	412.632
696.56	417.497
695.547	419.89
694.535	429.691
693.523	432.081
692.51	451.751
691.497	394.901
690.484	399.764
689.471	379.952
688.457	392.217
687.443	416.808
686.43	419.197
685.416	436.378
684.401	483.132
683.387	426.359
682.372	428.745
681.358	492.72
680.343	561.597
679.327	549.181
678.312	509.684
677.297	411.119
676.281	423.35
675.265	364.211
674.249	376.446
673.233	440.336
672.216	425.498
671.2	418.043
670.183	395.838
669.166	412.972
668.148	398.15
667.131	402.991
666.113	405.374
665.096	397.93
664.078	380.666
663.06	375.685
662.041	427.171
661.023	468.82
660.004	419.651
658.985	434.296
657.966	439.122
656.947	436.589
655.927	394.819
654.908	446.235
653.888	421.639
652.868	416.66
651.848	438.637
650.827	374.856
649.807	399.282
648.786	389.412
647.765	396.687
646.744	416.199
645.723	469.974
644.701	447.861
643.679	506.504
642.657	447.696
641.635	388.91
640.613	366.829
639.591	530.581
638.568	476.702
637.545	437.507
636.522	430.095
635.499	452.005
634.475	439.708
633.452	459.166
632.428	407.801
631.404	419.933
630.38	410.091
629.356	475.911
628.331	466.063
627.306	461.097
626.281	407.35
625.256	443.856
624.231	421.829
623.205	421.751
622.18	377.8
621.154	438.654
620.128	465.375
619.102	448.237
618.075	409.184
617.049	460.247
616.022	391.99
614.995	411.392
613.968	533.007
612.94	528.041
611.913	476.853
610.885	452.44
609.857	418.308
608.829	444.978
607.8	418.153
606.772	435.091
605.743	374.255
604.714	420.351
603.685	461.572
602.656	476.06
601.626	429.832
600.597	454.032
599.567	551.05
598.537	538.812
597.507	446.501
596.476	453.697
595.446	414.801
594.415	429.276
593.384	429.196
592.353	458.21
591.321	416.918
590.29	499.24
589.258	566.992
588.226	579.001
587.194	506.229
586.162	435.906
585.129	430.983
584.096	409.116
583.063	399.359
582.03	416.224
580.997	452.439
579.964	498.316
578.93	510.317
577.896	473.951
576.862	466.61
575.828	507.616
574.793	502.689
573.759	519.51
572.724	466.264
571.689	468.593
570.654	473.336
569.618	453.932
568.583	453.848
567.547	400.664
566.511	448.854
565.475	439.12
564.438	463.161
563.402	506.489
562.365	571.502
561.328	559.342
560.291	544.775
559.254	539.854
558.216	645.777
557.178	631.202
556.141	578.093
555.102	561.128
554.064	556.208
553.026	536.846
551.987	558.409
550.948	510.175
549.909	538.953
548.87	536.448
547.83	591.666
546.791	562.7
545.751	531.34
544.711	471.147
543.671	425.395
542.63	535.85
541.59	473.287
540.549	554.868
539.508	566.772
538.467	542.656
537.425	465.733
536.384	542.454
535.342	539.954
534.3	671.818
533.258	575.737
532.216	508.473
531.173	513.174
530.13	582.608
529.088	515.381
528.044	536.855
527.001	553.529
525.958	481.552
524.914	476.672
523.87	467.004
522.826	536.356
521.782	550.62
520.737	548.125
519.693	586.312
518.648	660.376
517.603	626.762
516.557	564.459
515.512	614.572
514.466	569.031
513.42	571.316
512.374	652.469
511.328	695.36
510.282	587.72
509.235	463.401
508.188	437.044
507.141	484.718
506.094	525.212
505.047	589.561
503.999	489.22
502.951	477.199
501.903	500.966
500.855	555.73
499.807	534.165
