3200.66	25.2595
3200.06	29.4694
3199.47	25.2557
3198.87	50.5037
3198.28	16.832
3197.69	25.2442
3197.09	-8.41346
3196.5	21.0305
3195.9	0
3195.31	29.4338
3194.71	33.6335
3194.12	33.6284
3193.52	46.2321
3192.93	4.20228
3192.33	25.2099
3191.74	29.4071
3191.14	21.0019
3190.55	29.3982
3189.95	46.1901
3189.36	20.9923
3188.76	58.7697
3188.17	-8.3944
3187.57	8.39313
3186.97	20.9796
3186.38	41.9529
3185.78	20.9733
3185.19	20.9701
3184.59	25.1603
3183.99	4.19276
3183.4	8.38424
3182.8	33.5319
3182.2	-12.5726
3181.61	4.19022
3181.01	37.7063
3180.41	29.3227
3179.82	37.6948
3179.22	37.6891
3178.62	-20.9352
3178.03	41.8641
3177.43	58.6009
3176.83	41.8515
3176.23	20.9226
3175.64	20.9194
3175.04	20.9162
3174.44	12.5478
3173.84	37.6378
3173.25	20.9067
3172.65	37.6264
3172.05	54.341
3171.45	0
3170.85	33.4305
3170.26	33.4254
3169.66	4.17755
3169.06	12.5307
3168.46	12.5288
3167.86	41.7565
3167.26	12.525
3166.66	25.0463
3166.06	29.2163
3165.47	29.2118
3164.87	25.0349
3164.27	50.0622
3163.67	29.1986
3163.07	-8.34118
3162.47	8.33991
3161.87	29.1853
3161.27	8.33739
3160.67	8.33612
3160.07	20.8371
3159.47	0
3158.87	24.997
3158.27	0
3157.67	-8.3298
3157.07	-8.32854
3156.47	-12.4909
3155.87	20.815
3155.27	12.4871
3154.67	4.16175
3154.07	-4.16111
3153.46	16.6419
3152.86	20.7993
3152.26	16.6369
3151.66	33.2687
3151.06	12.4739
3150.46	12.472
3149.86	37.4103
3149.26	8.31213
3148.65	33.2435
3148.05	16.6192
3147.45	-20.7709
3146.85	0
3146.25	4.15291
3145.64	53.9797
3145.04	24.9099
3144.44	12.4531
3143.84	0
3143.24	-29.0483
3142.63	12.4474
3142.03	53.9305
3141.43	4.14787
3140.82	12.4417
3140.22	0
3139.62	24.8759
3139.02	16.5814
3138.41	8.28945
3137.81	20.7205
3137.21	29.0043
3136.6	49.714
3136	24.8532
3135.4	24.8495
3134.79	24.8457
3134.19	20.7016
3133.58	0
3132.98	16.5563
3132.38	4.13843
3131.77	37.2402
3131.17	28.9602
3130.56	4.13655
3129.96	4.13592
3129.35	4.13529
3128.75	4.13466
3128.14	24.8042
3127.54	20.667
3126.93	33.0622
3126.33	16.5286
3125.72	8.26304
3125.12	20.6545
3124.51	12.3908
3123.91	53.6853
3123.3	24.7741
3122.7	24.7703
3122.09	-4.12775
3121.49	16.5085
3120.88	28.8855
3120.27	24.7552
3119.67	24.7515
3119.06	24.7477
3118.46	20.6199
3117.85	45.357
3117.24	32.9819
3116.64	-12.3663
3116.03	32.9718
3115.42	20.6043
3114.82	-4.12023
3114.21	8.2392
3113.6	20.5949
3113	53.5385
3112.39	24.7063
3111.78	24.7026
3111.17	37.0482
3110.57	-12.3475
3109.96	8.23042
3109.35	32.9167
3108.74	41.1396
3108.14	28.7933
3107.53	4.11271
3106.92	32.8966
3106.31	37.0031
3105.7	12.3325
3105.1	-4.1102
3104.49	28.767
3103.88	0
3103.27	8.21665
3102.66	41.077
3102.05	28.7495
3101.44	16.4258
3100.84	0
3100.23	16.4208
3099.62	-8.20915
3099.01	41.0395
3098.4	45.1365
3097.79	12.3081
3097.18	-20.5104
3096.57	49.2174
3095.96	16.4033
3095.35	20.501
3094.74	4.09957
3094.13	-28.6926
3093.52	40.9832
3092.91	0
3092.3	24.5824
3091.69	49.1574
3091.08	28.6708
3090.47	20.476
3089.86	-4.09458
3089.25	24.5637
3088.64	8.18666
3088.03	12.2781
3087.42	0
3086.81	53.1889
3086.19	12.2725
3085.58	0
3084.97	24.5375
3084.36	4.08896
3083.75	4.08834
3083.14	16.3509
3082.53	16.3484
3081.91	0
3081.3	8.17169
3080.69	16.3409
3080.08	28.5922
3079.47	36.7558
3078.85	32.6668
3078.24	24.4964
3077.63	44.9031
3077.02	36.7333
3076.4	28.566
3075.79	28.5617
3075.18	36.7165
3074.57	36.7109
3073.95	20.3918
3073.34	40.7775
3072.73	20.3856
3072.11	40.765
3071.5	24.4553
3070.89	28.5268
3070.27	8.14927
3069.66	36.6661
3069.05	16.2936
3068.43	-12.2183
3067.82	20.3607
3067.2	20.3576
3066.59	20.3545
3065.98	12.2108
3065.36	20.3483
3064.75	16.2761
3064.13	32.5473
3063.52	24.4068
3062.9	20.3359
3062.29	4.06655
3061.67	36.5934
3061.06	36.5878
3060.44	0
3059.83	4.06407
3059.21	24.3807
3058.6	40.6282
3057.98	28.4354
3057.37	12.1847
3056.75	8.12192
3056.14	32.4827
3055.52	12.1792
3054.9	4.0591
3054.29	12.1754
3053.67	28.405
3053.06	8.11448
3052.44	0
3051.82	40.56
3051.21	32.443
3050.59	24.3285
3049.97	-4.05414
3049.36	16.2141
3048.74	-16.2116
3048.12	-4.05228
3047.51	40.5166
3046.89	36.4593
3046.27	12.1513
3045.65	36.4482
3045.04	20.2459
3044.42	20.2428
3043.8	20.2397
3043.18	8.09464
3042.57	20.2335
3041.95	4.04608
3041.33	44.5001
3040.71	28.3139
3040.09	20.2211
3039.48	4.04361
3038.86	16.1719
3038.24	-8.08474
3037.62	24.2505
3037	32.329
3036.38	4.04051
3035.76	32.3191
3035.14	12.1178
3034.53	16.1546
3033.91	16.1522
3033.29	24.2245
3032.67	56.5152
3032.05	16.1447
3031.43	0
3030.81	44.3844
3030.19	16.1373
3029.57	32.2697
3028.95	32.2647
3028.33	24.1949
3027.71	4.03186
3027.09	40.3124
3026.47	16.1225
3025.85	56.4201
3025.23	-12.0882
3024.61	24.1726
3023.99	24.1689
3023.37	8.05507
3022.75	44.2961
3022.13	40.263
3021.5	20.1284
3020.88	4.02507
3020.26	8.0489
3019.64	48.286
3019.02	0
3018.4	8.0452
3017.78	24.1319
3017.15	-4.02137
3016.53	52.2697
3015.91	12.0604
3015.29	40.1952
3014.67	28.1323
3014.04	12.0549
3013.42	24.106
3012.8	20.0853
3012.18	36.1479
3011.56	32.1266
3010.93	24.0912
3010.31	16.0583
3009.69	20.0699
3009.06	24.0801
3008.44	28.0892
3007.82	8.02425
3007.19	16.046
3006.57	-8.02179
3005.95	40.1028
3005.32	0
3004.7	24.0543
3004.08	4.00843
3003.45	32.0625
3002.83	40.072
3002.21	8.01317
3001.58	48.0716
3000.96	40.0536
3000.33	40.0474
2999.71	40.0413
2999.08	0
2998.46	36.0261
2997.84	24.0137
2997.21	12.005
2996.59	4.00105
2995.96	20.0022
2995.34	35.9984
2994.71	31.9937
2994.09	3.99859
2993.46	11.9939
2992.83	27.9816
2992.21	31.974
2991.58	35.9652
2990.96	7.99105
2990.33	15.9796
2989.71	0
2989.08	3.99368
2988.45	19.9653
2987.83	31.9396
2987.2	35.9266
2986.58	19.9561
2985.95	31.9249
2985.32	55.86
2984.7	31.9151
2984.07	19.9439
2983.44	35.8935
2982.82	3.98755
2982.19	35.8824
2981.56	35.8769
2980.93	3.98571
2980.31	3.9851
2979.68	11.9535
2979.05	19.9194
2978.42	19.9163
2977.8	11.9479
2977.17	-7.96407
2976.54	27.8699
2975.91	23.8848
2975.28	15.9208
2974.66	31.8367
2974.03	39.7897
2973.4	23.8702
2972.77	55.6885
2972.14	31.8171
2971.51	27.8357
2970.88	15.9036
2970.26	31.8024
2969.63	31.7975
2969	15.8963
2968.37	51.655
2967.74	31.7828
2967.11	35.7502
2966.48	55.6028
2965.85	55.5943
2965.22	31.7633
2964.59	23.8188
2963.96	19.8459
2963.33	31.7486
2962.7	39.6796
2962.07	39.6735
2961.44	39.6674
2960.81	39.6613
2960.18	59.4828
2959.55	55.5087
2958.92	27.7501
2958.29	31.7095
2957.66	47.5569
2957.03	27.7373
2956.4	23.7711
2955.76	23.7675
2955.13	7.92127
2954.5	23.7601
2953.87	23.7565
2953.24	47.5056
2952.61	35.6237
2951.98	51.4486
2951.34	27.6988
2950.71	27.6945
2950.08	23.7345
2949.45	35.5963
2948.82	51.4089
2948.18	47.4471
2947.55	31.6265
2946.92	59.2906
2946.29	-19.7605
2945.65	55.3208
2945.02	47.4105
2944.39	31.6021
2943.76	63.1945
2943.12	27.6433
2942.49	31.5875
2941.86	47.374
2941.22	59.2083
2940.59	31.5729
2939.96	55.2441
2939.32	47.3448
2938.69	51.2822
2938.05	39.4418
2937.42	23.6614
2936.79	27.6007
2936.15	43.3659
2935.52	43.3592
2934.88	63.0582
2934.25	78.8106
2933.61	74.8585
2932.98	74.8469
2932.34	51.2032
2931.71	55.1333
2931.08	78.7498
2930.44	31.495
2929.81	78.7254
2929.17	39.3566
2928.53	51.1557
2927.9	51.1478
2927.26	55.0738
2926.63	74.7315
2925.99	51.1241
2925.36	43.2522
2924.72	35.3827
2924.08	43.2389
2923.45	43.2322
2922.81	31.4367
2922.18	86.4376
2921.54	51.0689
2920.9	58.9165
2920.27	62.8346
2919.63	43.1921
2918.99	15.7038
2918.36	51.0295
2917.72	54.9463
2917.08	74.5585
2916.44	58.8528
2915.81	35.3063
2915.17	47.0677
2914.53	58.8256
2913.9	58.8165
2913.26	27.4434
2912.62	23.5193
2911.98	39.1928
2911.34	70.5361
2910.71	50.9349
2910.07	66.5969
2909.43	62.6697
2908.79	74.4088
2908.15	58.7347
2907.51	46.9805
2906.88	66.5454
2906.24	46.9659
2905.6	58.6983
2904.96	62.6019
2904.32	86.0643
2903.68	39.1141
2903.04	31.2864
2902.4	66.4733
2901.76	50.8247
2901.12	58.6348
2900.48	66.4425
2899.84	74.2478
2899.2	54.7004
2898.56	50.7854
2897.92	66.4014
2897.28	62.4857
2896.64	27.3333
2896	66.3705
2895.36	58.5532
2894.72	62.447
2894.08	74.1444
2893.44	39.0173
2892.8	70.2203
2892.16	54.6073
2891.52	81.8983
2890.88	46.7918
2890.24	101.367
2889.59	35.083
2888.95	85.7451
2888.31	66.2473
2887.67	77.9259
2887.03	62.3311
2886.39	62.3214
2885.74	97.3622
2885.1	97.3471
2884.46	73.9723
2883.82	85.6389
2883.18	50.597
2882.53	27.2403
2881.89	77.8173
2881.25	70.0248
2880.6	66.1242
2879.96	105.005
2879.32	62.2153
2878.68	104.972
2878.03	66.0832
2877.39	85.5062
2876.75	66.0628
2876.1	27.1981
2875.46	89.3513
2874.82	62.1478
2874.17	38.8363
2873.53	46.5964
2872.88	58.2365
2872.24	65.9911
2871.6	50.4559
2870.95	69.8512
2870.31	42.6802
2869.66	69.8296
2869.02	73.6976
2868.37	89.199
2867.73	50.409
2867.08	77.5403
2866.44	38.7641
2865.79	77.5162
2865.15	85.2546
2864.5	85.2414
2863.86	65.8581
2863.21	54.2277
2862.57	65.8377
2861.92	73.5719
2861.28	61.9456
2860.63	69.678
2859.98	69.6672
2859.34	85.1356
2858.69	81.2532
2858.05	73.5033
2857.4	108.304
2856.75	81.2153
2856.11	85.0695
2855.46	88.9225
2854.81	88.9087
2854.17	96.6248
2853.52	112.067
2852.87	88.8672
2852.23	104.306
2851.58	65.6641
2850.93	81.1019
2850.28	92.6734
2849.64	92.659
2848.99	77.2039
2848.34	38.5959
2847.69	84.8979
2847.05	84.8847
2846.4	100.303
2845.75	104.144
2845.1	69.4187
2844.45	65.5519
2843.8	65.5417
2843.16	96.3699
2842.51	84.7923
2841.86	100.194
2841.21	77.06
2840.56	57.786
2839.91	80.8878
2839.26	77.024
2838.61	69.3109
2837.96	53.9001
2837.31	73.1387
2836.66	50.0345
2836.01	34.6339
2835.36	73.1046
2834.72	69.2462
2834.07	38.4641
2833.42	73.0705
2832.76	53.833
2832.11	49.98
2831.46	65.3483
2830.81	49.9645
2830.16	26.8998
2829.51	53.7912
2828.86	49.9412
2828.21	19.2051
2827.56	46.0852
2826.91	53.7577
2826.26	46.0708
2825.61	34.5477
2824.96	61.4087
2824.3	42.2119
2823.65	26.8579
2823	19.1812
2822.35	49.8635
2821.7	34.5155
2821.04	49.8479
2820.39	34.5047
2819.74	26.8328
2819.09	30.6613
2818.44	53.649
2817.78	57.4721
2817.13	42.1396
2816.48	11.4908
2815.83	49.7859
2815.17	45.949
2814.52	38.2849
2813.87	34.451
2813.21	49.7548
2812.56	65.0539
2811.91	49.7393
2811.25	19.1275
2810.6	45.8989
2809.95	42.0674
2809.29	34.4135
2808.64	22.9387
2807.98	30.5802
2807.33	19.1096
2806.68	15.2853
2806.02	49.6696
2805.37	45.8417
2804.71	30.5564
2804.06	61.1032
2803.4	30.5468
2802.75	22.9066
2802.09	53.4403
2801.44	34.3491
2800.78	57.2396
2800.13	34.3384
2799.47	22.8887
2798.82	30.5135
2798.16	53.3903
2797.51	61.008
2796.85	3.8124
2796.19	45.7417
2795.54	41.9234
2794.88	41.9168
2794.23	45.7203
2793.57	57.1414
2792.91	15.2353
2792.26	11.4247
2791.6	38.0765
2790.94	60.9128
2790.29	49.4839
2789.63	34.2528
2788.97	34.2474
2788.32	22.8281
2787.66	26.6286
2787	49.4453
2786.34	53.2405
2785.69	45.6276
2785.03	68.4307
2784.37	45.6133
2783.71	60.8083
2783.06	22.7995
2782.4	41.7926
2781.74	26.5912
2781.08	26.587
2780.42	45.5706
2779.76	41.7665
2779.11	41.76
2778.45	18.9789
2777.79	56.9277
2777.13	45.535
2776.47	15.176
2775.81	37.934
2775.15	18.964
2774.49	15.1689
2773.83	37.9162
2773.17	64.4475
2772.51	7.58087
2771.86	41.6883
2771.2	60.628
2770.54	30.3093
2769.88	56.821
2769.22	64.387
2768.56	18.9344
2767.9	30.2903
2767.23	56.7854
2766.57	34.0659
2765.91	49.1987
2765.25	34.0553
2764.59	3.78333
2763.93	45.3928
2763.27	37.8214
2762.61	37.8155
2761.95	41.5906
2761.29	7.56074
2760.63	37.7978
2759.96	49.1294
2759.3	56.6789
2758.64	30.224
2757.98	3.77741
2757.32	52.8755
2756.65	37.7623
2755.99	37.7564
2755.33	41.5255
2754.67	18.8723
2754.01	64.1557
2753.34	86.7853
2752.68	49.0449
2752.02	60.3535
2751.35	64.1155
2750.69	60.3346
2750.03	52.7845
2749.37	41.467
2748.7	52.768
2748.04	64.0654
2747.38	26.3757
2746.71	45.2084
2746.05	33.901
2745.38	52.7267
2744.72	79.0776
2744.06	48.9451
2743.39	18.8221
2742.73	45.166
2742.06	37.6324
2741.4	71.4904
2740.73	41.3827
2740.07	11.2844
2739.41	60.1741
2738.74	41.3632
2738.08	56.3955
2737.41	67.664
2736.75	18.7926
2736.08	48.8531
2735.41	22.5441
2734.75	60.1081
2734.08	52.5863
2733.42	33.8002
2732.75	26.2849
2732.09	41.2984
2731.42	60.061
2730.75	71.3112
2730.09	52.5369
2729.42	48.7766
2728.76	22.5087
2728.09	48.7613
2727.42	56.2542
2726.76	63.7447
2726.09	29.9928
2725.42	67.4733
2724.75	63.7147
2724.09	52.4627
2723.42	14.987
2722.75	14.9846
2722.09	74.9115
2721.42	56.1748
2720.75	44.9328
2720.08	44.9257
2719.41	48.6619
2718.75	37.4264
2718.08	56.1307
2717.41	41.1561
2716.74	18.7044
2716.07	26.182
2715.41	48.6161
2714.74	63.5649
2714.07	71.0319
2713.4	56.069
2712.73	41.1108
2712.06	56.0514
2711.39	59.7788
2710.72	14.9424
2710.05	14.94
2709.38	33.6097
2708.71	56.0074
2708.04	52.2654
2707.37	33.5939
2706.7	44.7848
2706.03	41.0463
2705.36	37.3089
2704.69	74.6062
2704.02	41.0269
2703.35	55.937
2702.68	26.0998
2702.01	48.4635
2701.34	48.4559
2700.67	40.9947
2700	48.4407
2699.33	44.7074
2698.66	63.3256
2697.99	67.0401
2697.32	29.7909
2696.64	59.5724
2695.97	44.6723
2695.3	52.1095
2694.63	70.7089
2693.96	48.3721
2693.29	18.6017
2692.61	40.9174
2691.94	59.5069
2691.27	26.0302
2690.6	44.6161
2689.92	59.4788
2689.25	55.7526
2688.58	48.3113
2687.91	33.441
2687.23	59.4413
2686.56	37.145
2685.89	63.1365
2685.21	77.9799
2684.54	25.9892
2683.87	51.9702
2683.19	59.3852
2682.52	40.8209
2681.85	66.7873
2681.17	18.5491
2680.5	48.2201
2679.82	25.9606
2679.15	48.2049
2678.48	44.4898
2677.8	48.1897
2677.13	44.4758
2676.45	48.1745
2675.78	44.4618
2675.1	37.0457
2674.43	59.2637
2673.75	70.3646
2673.08	48.1366
2672.4	29.6179
2671.73	29.6132
2671.05	48.1139
2670.37	48.1063
2669.7	62.8983
2669.02	51.7904
2668.35	66.5772
2667.67	36.9815
2667	51.7659
2666.32	33.2729
2665.64	48.0532
2664.97	55.4373
2664.29	70.2095
2663.61	44.3358
2662.94	66.4933
2662.26	33.2414
2661.58	73.8581
2660.91	48.0002
2660.23	44.3009
2659.55	40.6027
2658.87	44.2869
2658.2	55.3499
2657.52	70.0988
2656.84	47.9548
2656.16	36.8825
2655.49	29.5013
2654.81	40.5579
2654.13	40.5515
2653.45	40.5451
2652.77	40.5387
2652.09	44.2171
2651.42	58.9468
2650.74	62.6211
2650.06	47.8792
2649.38	47.8716
2648.7	77.3188
2648.02	40.4939
2647.34	33.1262
2646.66	47.8414
2645.98	62.5519
2645.3	40.4684
2644.62	44.1404
2643.94	66.2001
2643.26	25.7404
2642.58	62.5025
2641.9	36.7604
2641.22	62.4828
2640.54	58.798
2639.86	58.7888
2639.18	47.7583
2638.5	55.097
2637.82	44.0707
2637.14	47.7357
2636.46	47.7281
2635.78	44.0498
2635.1	51.3833
2634.42	58.7145
2633.73	62.3743
2633.05	33.0165
2632.37	51.3508
2631.69	29.3387
2631.01	62.3348
2630.33	32.9956
2629.64	73.3119
2628.96	36.6502
2628.28	73.2887
2627.6	58.6217
2626.91	54.9492
2626.23	58.6032
2625.55	62.256
2624.87	87.877
2624.18	58.5754
2623.5	43.9246
2622.82	65.8764
2622.13	51.2291
2621.45	36.5864
2620.77	40.2387
2620.08	36.5749
2619.4	73.1382
2618.72	65.8139
2618.03	80.4265
2617.35	54.8276
2616.67	54.8189
2615.98	65.7723
2615.3	51.1481
2614.61	87.6686
2613.93	32.8705
2613.24	62.0789
2612.56	65.7202
2611.87	87.6131
2611.19	51.0995
2610.5	40.1433
2609.82	87.5715
2609.13	32.8341
2608.45	47.4195
2607.76	43.7649
2607.08	54.6975
2606.39	43.7511
2605.71	51.0348
2605.02	32.8029
2604.33	72.8838
2603.65	32.7925
2602.96	51.0025
2602.27	47.352
2601.59	43.7026
2600.9	72.8261
2600.21	72.8145
2599.53	40.0417
2598.84	29.1166
2598.15	58.2239
2597.47	50.9379
2596.78	72.7569
2596.09	65.4708
2595.41	54.5503
2594.72	29.0889
2594.03	69.0752
2593.34	47.2545
2592.65	54.5157
2591.97	54.5071
2591.28	79.9311
2590.59	79.9184
2589.9	43.5849
2589.21	58.104
2588.52	47.202
2587.84	58.0856
2587.15	68.9657
2586.46	65.3256
2585.77	61.6866
2585.08	58.0487
2584.39	79.8044
2583.7	50.7765
2583.01	43.5158
2582.32	47.1347
2581.63	58.0027
2580.94	47.1197
2580.25	54.3603
2579.56	57.9751
2578.87	61.5887
2578.18	79.6904
2577.49	39.8389
2576.8	39.8326
2576.11	50.6879
2575.42	25.3399
2574.73	39.8136
2574.04	54.2826
2573.35	83.2202
2572.66	61.5008
2571.97	75.9595
2571.28	57.8647
2570.58	57.8555
2569.89	65.0771
2569.2	43.3778
2568.51	90.3562
2567.82	68.6598
2567.13	72.262
2566.43	25.2877
2565.74	50.5673
2565.05	50.5593
2564.36	75.8268
2563.66	75.8148
2562.97	57.7545
2562.28	83.0088
2561.59	57.7361
2560.89	50.5111
2560.2	72.1472
2559.51	50.495
2558.81	57.6994
2558.12	61.2959
2557.43	54.076
2556.73	50.4629
2556.04	57.6627
2555.35	43.2401
2554.65	82.8638
2553.96	46.8286
2553.26	54.0244
2552.57	64.819
2551.88	50.4067
2551.18	46.7988
2550.49	43.192
2549.79	50.3827
2549.1	46.7765
2548.4	97.1356
2547.71	82.732
2547.01	53.9471
2546.32	61.1303
2545.62	46.7392
2544.93	53.9213
2544.23	50.3186
2543.53	43.1233
2542.84	75.4538
2542.14	75.4418
2541.45	57.4703
2540.75	61.0525
2540.05	50.2705
2539.36	53.8527
2538.66	78.9713
2537.97	43.0684
2537.27	100.477
2536.57	71.7578
2535.88	50.2225
2535.18	78.9085
2534.48	57.3788
2533.78	60.9553
2533.09	43.0204
2532.39	82.4427
2531.69	43.0067
2530.99	64.4998
2530.3	100.317
2529.6	71.6436
2528.9	39.3977
2528.2	39.3914
2527.5	68.0289
2526.81	75.1778
2526.11	100.221
2525.41	35.7875
2524.71	57.2509
2524.01	39.3537
2523.31	71.5408
2522.61	67.953
2521.91	82.2457
2521.21	67.9313
2520.52	67.9205
2519.82	39.3161
2519.12	75.046
2518.42	78.6071
2517.72	82.1671
2517.02	75.0101
2516.32	39.2848
2515.62	57.1323
2514.92	103.536
2514.22	35.6963
2513.52	82.0884
2512.82	67.8014
2512.11	57.0868
2511.41	42.8082
2510.71	74.9025
2510.01	64.1919
2509.31	74.8786
2508.61	32.0857
2507.91	49.9031
2507.21	85.5345
2506.5	99.7743
2505.8	42.7536
2505.1	92.618
2504.4	85.4799
2503.7	60.5386
2503	85.4526
2502.29	88.9989
2501.59	56.9502
2500.89	99.6469
2500.19	99.631
2499.48	28.4615
2498.78	56.9138
2498.08	88.9136
2497.37	92.4554
2496.67	81.7744
2495.97	71.0968
2495.26	81.7483
2494.56	78.1815
2493.86	63.9565
2493.15	60.3937
2492.45	71.04
2491.75	85.2344
2491.04	88.7716
2490.34	95.858
2489.63	35.4973
2488.93	74.5324
2488.22	110.006
2487.52	92.2487
2486.81	81.5916
2486.11	78.0316
2485.41	39.0096
2484.7	74.4609
2483.99	70.9038
2483.29	56.714
2482.58	81.5133
2481.88	74.4133
2481.17	81.4872
2480.47	81.4742
2479.76	60.2104
2479.06	63.742
2478.35	67.2725
2477.64	53.1013
2476.94	106.186
2476.23	53.0843
2475.52	60.1526
2474.82	81.3699
2474.11	67.2079
2473.4	74.2705
2472.7	42.4335
2471.99	60.1045
2471.28	67.1649
2470.57	77.7574
2469.87	81.2788
2469.16	81.2658
2468.45	84.7855
2467.74	74.1754
2467.04	63.5687
2466.33	84.7448
2465.62	63.5484
2464.91	63.5382
2464.2	74.116
2463.5	52.9315
2462.79	81.1487
2462.08	56.4422
2461.37	63.4873
2460.66	74.0567
2459.95	66.9929
2459.24	77.5583
2458.53	109.269
2457.82	56.388
2457.11	63.4263
2456.4	81.0317
2455.69	66.9285
2454.99	77.4837
2454.28	52.8214
2453.57	77.4589
2452.85	45.7638
2452.14	77.4341
2451.43	35.1917
2450.72	56.2976
2450.01	52.7706
2449.3	105.524
2448.59	87.9227
2447.88	101.974
2447.17	94.9261
2446.46	35.1522
2445.75	59.7491
2445.04	56.2254
2444.32	84.3246
2443.61	70.2592
2442.9	52.686
2442.19	80.7722
2441.48	98.3155
2440.76	63.1927
2440.05	73.713
2439.34	52.6437
2438.63	66.6713
2437.92	70.169
2437.2	73.6657
2436.49	73.6538
2435.78	45.5879
2435.06	59.6054
2434.35	56.0902
2433.64	73.6065
2432.92	101.631
2432.21	84.0947
2431.5	49.0474
2430.78	98.079
2430.07	45.5294
2429.36	70.0339
2428.64	66.5216
2427.93	87.5143
2427.21	80.5002
2426.5	66.4895
2425.78	76.9755
2425.07	94.4547
2424.35	80.4485
2423.64	59.4524
2422.92	73.4294
2422.21	69.9215
2421.49	69.9102
2420.78	59.4141
2420.06	55.9102
2419.35	66.3827
2418.63	69.8653
2417.92	59.3759
2417.2	87.3035
2416.48	76.8148
2415.77	62.8383
2415.05	62.8282
2414.34	80.2676
2413.62	62.808
2412.9	66.2867
2412.19	94.1817
2411.47	69.753
2410.75	83.6901
2410.04	62.7575
2409.32	87.1492
2408.6	73.1935
2407.88	59.2424
2407.17	87.1071
2406.45	69.6745
2405.73	73.1464
2405.01	111.443
2404.29	87.051
2403.58	80.0741
2402.86	55.6947
2402.14	69.6072
2401.42	62.6364
2400.7	97.4187
2399.98	59.1376
2399.27	97.3873
2398.55	62.5961
2397.83	100.833
2397.11	41.7173
2396.39	100.8
2395.67	59.0804
2394.95	69.4952
2394.23	76.4324
2393.51	107.683
2392.79	59.0424
2392.07	76.3955
2391.35	90.271
2390.63	97.1992
2389.91	93.7127
2389.19	76.3462
2388.47	100.622
2387.75	93.6674
2387.03	72.8407
2386.31	83.2331
2385.59	107.492
2384.87	69.3386
2384.14	124.789
2383.42	72.782
2382.7	76.2355
2381.98	72.7585
2381.26	76.2109
2380.54	93.5165
2379.82	76.1864
2379.09	65.7867
2378.37	79.6237
2377.65	76.1495
2376.93	79.598
2376.2	79.5852
2375.48	76.1127
2374.76	76.1004
2374.04	93.3808
2373.31	76.0758
2372.59	79.521
2371.87	72.5944
2371.14	79.4953
2370.42	62.2037
2369.7	103.656
2368.97	82.9115
2368.25	75.9899
2367.52	100.152
2366.8	75.9654
2366.08	103.572
2365.35	100.104
2364.63	110.442
2363.9	79.3671
2363.18	89.7048
2362.45	100.039
2361.73	68.9814
2361	65.5218
2360.28	72.4071
2359.55	86.185
2358.83	75.8305
2358.1	82.7108
2357.38	75.806
2356.65	79.239
2355.93	99.8938
2355.2	58.549
2354.47	79.2005
2353.75	86.0736
2353.02	89.5021
2352.3	72.2785
2351.57	75.7081
2350.84	113.544
2350.12	141.047
2349.39	85.9902
2348.66	92.8544
2347.94	82.5239
2347.21	61.8829
2346.48	92.8094
2345.75	68.7366
2345.03	92.7793
2344.3	54.9715
2343.57	79.0087
2342.84	89.2997
2342.11	61.8129
2341.39	106.438
2340.66	85.8235
2339.93	61.7829
2339.2	116.682
2338.47	78.9193
2337.74	78.9065
2337.02	89.1842
2336.29	96.029
2335.56	113.159
2334.83	82.2839
2334.1	102.838
2333.37	85.6847
2332.64	99.3781
2331.91	78.8044
2331.18	95.9202
2330.45	68.5034
2329.72	75.3415
2328.99	95.8736
2328.26	78.7406
2327.53	109.534
2326.8	92.4047
2326.07	82.1242
2325.34	92.3747
2324.61	78.6768
2323.88	78.6641
2323.14	85.4906
2322.41	99.153
2321.68	85.4629
2320.95	88.867
2320.22	99.1048
2319.49	99.0888
2318.76	119.571
2318.02	95.6409
2317.29	105.871
2316.56	109.268
2315.83	85.3522
2315.1	61.4436
2314.36	71.6726
2313.63	75.0734
2312.9	68.2375
2312.16	88.6943
2311.43	98.9122
2310.7	126.178
2309.97	109.109
2309.23	98.8641
2308.5	74.9882
2307.76	47.712
2307.03	95.4086
2306.3	78.3586
2305.56	74.9396
2304.83	91.9563
2304.1	68.1048
2303.36	115.759
2302.63	71.4868
2301.89	81.6859
2301.16	102.091
2300.42	95.2693
2299.69	71.4404
2298.95	91.837
2298.22	91.8221
2297.48	88.4069
2296.75	91.7923
2296.01	74.7816
2295.28	67.9722
2294.54	61.1651
2293.8	71.3477
2293.07	91.7178
2292.33	105.289
2291.6	61.1254
2290.86	84.8825
2290.12	108.632
2289.39	74.6724
2288.65	88.2348
2287.91	105.186
2287.18	81.4211
2286.44	94.9758
2285.7	111.918
2284.97	101.727
2284.23	91.5392
2283.49	91.5243
2282.75	105.066
2282.01	88.1059
2281.28	71.1509
2280.54	101.628
2279.8	98.224
2279.06	77.8891
2278.32	138.823
2277.59	67.7077
2276.85	88.0056
2276.11	98.1442
2275.37	108.279
2274.63	77.8132
2273.89	108.244
2273.15	135.283
2272.41	87.9198
2271.67	94.6675
2270.93	77.7499
2270.19	101.396
2269.45	121.656
2268.71	74.3332
2267.97	104.725
2267.23	111.463
2266.49	70.9198
2265.75	101.297
2265.01	124.913
2264.27	104.64
2263.53	87.7483
2262.79	128.227
2262.05	104.589
2261.31	111.318
2260.57	101.182
2259.83	121.399
2259.09	97.7775
2258.34	94.3905
2257.6	97.7457
2256.86	64.0298
2256.12	121.3
2255.38	101.067
2254.63	107.787
2253.89	107.769
2253.15	107.752
2252.41	90.9009
2251.66	107.717
2250.92	77.4089
2250.18	134.602
2249.43	111.029
2248.69	94.1908
2247.95	84.0852
2247.21	90.7972
2246.46	114.319
2245.72	97.4912
2244.97	104.198
2244.23	131.066
2243.49	117.604
2242.74	100.787
2242	80.6166
2241.25	104.113
2240.51	117.528
2239.76	90.6493
2239.02	107.419
2238.27	100.689
2237.53	97.3165
2236.78	107.366
2236.04	110.703
2235.29	120.748
2234.55	110.667
2233.8	127.414
2233.06	103.926
2232.31	127.373
2231.57	97.1895
2230.82	127.331
2230.07	120.61
2229.33	100.492
2228.58	123.919
2227.83	90.413
2227.09	103.791
2226.34	100.426
2225.59	120.492
2224.85	123.818
2224.1	123.798
2223.35	100.36
2222.6	110.379
2221.86	80.2622
2221.11	96.9676
2220.36	100.295
2219.61	110.306
2218.87	147.051
2218.12	90.2212
2217.37	106.911
2216.62	110.234
2215.87	113.556
2215.12	93.5016
2214.37	116.858
2213.63	110.162
2212.88	93.4558
2212.13	123.475
2211.38	100.098
2210.63	113.426
2209.88	113.408
2209.13	96.7144
2208.38	76.692
2207.63	103.351
2206.88	116.667
2206.13	139.978
2205.38	113.297
2204.63	133.268
2203.88	79.9479
2203.13	89.9267
2202.38	116.553
2201.63	136.511
2200.88	96.5406
2200.12	99.8532
2199.37	89.8532
2198.62	93.1659
2197.87	109.785
2197.12	96.4616
2196.37	106.423
2195.62	123.031
2194.86	86.4404
2194.11	89.7503
2193.36	132.942
2192.61	116.305
2191.85	116.286
2191.1	106.301
2190.35	76.3914
2189.6	126.191
2188.84	86.3273
2188.09	99.5921
2187.34	136.087
2186.58	82.9662
2185.83	129.406
2185.08	109.48
2184.32	102.828
2183.57	96.1778
2182.82	112.742
2182.06	135.931
2181.31	145.853
2180.55	132.572
2179.8	125.923
2179.04	119.276
2178.29	102.693
2177.53	102.676
2176.78	105.971
2176.02	99.3313
2175.27	112.557
2174.51	115.849
2173.76	115.83
2173	102.575
2172.25	102.558
2171.49	119.08
2170.74	125.675
2169.98	125.655
2169.22	119.022
2168.47	76.0293
2167.71	122.288
2166.95	112.354
2166.2	122.248
2165.44	151.959
2164.68	115.602
2163.93	108.978
2163.17	125.469
2162.41	108.942
2161.65	138.631
2160.9	118.807
2160.14	168.283
2159.38	141.862
2158.62	131.943
2157.87	118.729
2157.11	115.412
2156.35	105.502
2155.59	105.485
2154.83	128.539
2154.07	121.927
2153.31	115.318
2152.56	118.593
2151.8	95.5175
2151.04	138.313
2150.28	121.827
2149.52	134.975
2148.76	141.536
2148	95.439
2147.24	95.4234
2146.48	111.857
2145.72	124.996
2144.96	121.687
2144.2	111.802
2143.44	111.784
2142.68	105.191
2141.92	115.034
2141.16	108.443
2140.4	105.139
2139.64	124.832
2138.87	111.674
2138.11	114.939
2137.35	121.487
2136.59	121.467
2135.83	108.318
2135.07	127.991
2134.31	111.563
2133.54	104.984
2132.78	108.247
2132.02	147.585
2131.26	95.0945
2130.49	127.865
2129.73	101.619
2128.97	127.823
2128.21	111.417
2127.44	121.228
2126.68	163.794
2125.92	144.115
2125.15	104.794
2124.39	121.148
2123.63	117.854
2122.86	127.654
2122.1	121.088
2121.33	117.796
2120.57	127.591
2119.81	143.926
2119.04	140.631
2118.28	130.798
2117.51	130.777
2116.75	130.755
2115.98	137.27
2115.22	137.248
2114.45	124.156
2113.69	124.136
2112.92	117.583
2112.16	146.954
2111.39	137.135
2110.62	156.7
2109.86	133.826
2109.09	124.013
2108.33	169.674
2107.56	123.972
2106.79	120.69
2106.03	169.59
2105.26	153.258
2104.49	163.014
2103.73	117.351
2102.96	123.85
2102.19	140.123
2101.42	101.002
2100.66	140.076
2099.89	123.768
2099.12	113.978
2098.35	146.519
2097.59	153.006
2096.82	126.941
2096.05	143.192
2095.28	120.392
2094.51	152.905
2093.74	152.88
2092.98	133.341
2092.21	107.306
2091.44	146.302
2090.67	133.275
2089.9	136.503
2089.13	136.481
2088.36	139.707
2087.59	133.187
2086.82	136.413
2086.05	149.38
2085.28	113.64
2084.51	126.607
2083.74	133.077
2082.97	139.546
2082.2	142.767
2081.43	116.79
2080.66	116.771
2079.89	126.481
2079.12	165.371
2078.35	126.439
2077.57	116.694
2076.8	136.121
2076.03	149.06
2075.26	145.795
2074.49	149.01
2073.72	165.18
2072.94	168.391
2072.17	139.223
2071.4	123.014
2070.63	129.467
2069.86	126.21
2069.08	129.425
2068.31	129.403
2067.54	152.024
2066.76	145.53
2065.99	151.973
2065.22	122.852
2064.44	126.064
2063.67	126.043
2062.9	161.567
2062.12	129.232
2061.35	161.513
2060.58	174.406
2059.8	171.148
2059.03	148.519
2058.25	142.038
2057.48	164.607
2056.7	164.58
2055.93	135.514
2055.15	119.362
2054.38	167.724
2053.6	154.796
2052.83	138.649
2052.05	157.969
2051.28	145.05
2050.5	148.248
2049.72	164.335
2048.95	112.76
2048.17	167.502
2047.4	141.709
2046.62	122.365
2045.84	167.419
2045.07	151.296
2044.29	160.926
2043.51	131.938
2042.74	141.568
2041.96	151.196
2041.18	131.872
2040.4	135.066
2039.63	135.044
2038.85	154.31
2038.07	112.499
2037.29	151.045
2036.52	173.513
2035.74	147.783
2034.96	131.697
2034.18	141.31
2033.4	192.664
2032.62	170.158
2031.84	141.24
2031.07	163.683
2030.29	154.029
2029.51	163.629
2028.73	163.602
2027.95	160.367
2027.17	157.134
2026.39	176.345
2025.61	137.847
2024.83	189.108
2024.05	173.053
2023.27	169.82
2022.49	160.181
2021.71	188.982
2020.93	153.723
2020.15	147.293
2019.37	188.888
2018.59	169.651
2017.8	188.826
2017.02	201.594
2016.24	163.168
2015.46	156.743
2014.68	163.114
2013.9	179.076
2013.11	195.032
2012.33	191.803
2011.55	175.79
2010.77	143.804
2009.99	188.512
2009.2	159.73
2008.42	159.703
2007.64	191.612
2006.85	166.036
2006.07	185.163
2005.29	175.557
2004.5	162.762
2003.72	178.689
2002.94	194.611
2002.15	153.111
2001.37	172.222
2000.59	207.269
1999.8	175.353
1999.02	210.388
1998.23	162.546
1997.45	172.079
1996.66	175.236
1995.88	178.393
1995.09	184.733
1994.31	171.964
1993.52	178.304
1992.74	191.008
1991.95	213.257
1991.17	225.951
1990.38	111.366
1989.6	184.518
1988.81	149.498
1988.02	190.817
1987.24	197.145
1986.45	235.263
1985.67	184.365
1984.88	168.443
1984.09	212.902
1983.3	187.45
1982.52	193.772
1981.73	200.092
1980.94	219.111
1980.16	200.025
1979.37	190.468
1978.58	215.828
1977.79	206.272
1977.01	199.892
1976.22	206.203
1975.43	177.622
1974.64	218.82
1973.85	221.954
1973.06	209.236
1972.27	234.559
1971.49	212.336
1970.7	174.276
1969.91	202.761
1969.12	221.732
1968.33	231.197
1967.54	180.493
1966.75	215.29
1965.96	237.412
1965.17	183.568
1964.38	199.36
1963.59	186.671
1962.8	196.13
1962.01	234.052
1961.22	199.227
1960.43	189.708
1959.64	218.128
1958.85	205.449
1958.06	214.895
1957.26	173.783
1956.47	192.709
1955.68	208.47
1954.89	170.538
1954.1	208.401
1953.31	176.795
1952.51	233.584
1951.72	265.105
1950.93	239.817
1950.14	214.537
1949.34	201.884
1948.55	255.466
1947.76	211.276
1946.97	201.782
1946.17	179.683
1945.38	242.688
1944.59	211.135
1943.79	223.703
1943	214.215
1942.21	229.928
1941.41	214.143
1940.62	229.851
1939.82	251.849
1939.03	232.922
1938.24	223.442
1937.44	220.258
1936.65	232.805
1935.85	223.33
1935.06	261.032
1934.26	273.566
1933.47	264.089
1932.67	232.611
1931.88	242
1931.08	226.248
1930.28	276.48
1929.49	235.597
1928.69	232.416
1927.9	232.378
1927.1	260.596
1926.3	282.527
1925.51	251.093
1924.71	232.222
1923.91	207.083
1923.12	279.201
1922.32	225.833
1921.52	257.155
1920.73	250.841
1919.93	235.124
1919.13	235.085
1918.33	278.921
1917.53	244.407
1916.74	253.764
1915.94	247.457
1915.14	259.943
1914.34	269.294
1913.54	247.333
1912.74	256.683
1911.95	240.991
1911.15	228.434
1910.35	234.653
1909.55	234.613
1908.75	234.574
1907.95	250.171
1907.15	281.395
1906.35	265.717
1905.55	218.789
1904.75	268.753
1903.95	262.459
1903.15	259.291
1902.35	265.495
1901.55	284.188
1900.75	262.284
1899.95	240.386
1899.15	246.589
1898.35	268.393
1897.54	283.95
1896.74	274.543
1895.94	252.662
1895.14	265.095
1894.34	243.223
1893.54	274.359
1892.73	255.61
1891.93	255.567
1891.13	258.641
1890.33	258.597
1889.53	274.129
1888.72	249.167
1887.92	292.722
1887.12	320.695
1886.31	267.72
1885.51	295.687
1884.71	264.518
1883.9	298.699
1883.1	342.202
1882.3	279.937
1881.49	239.461
1880.69	307.827
1879.88	226.946
1879.08	279.749
1878.28	267.271
1877.47	264.119
1876.67	285.822
1875.86	267.136
1875.06	301.254
1874.25	310.519
1873.45	239.06
1872.64	257.645
1871.84	266.912
1871.03	294.795
1870.22	285.438
1869.42	235.757
1868.61	310.155
1867.81	285.294
1867	300.749
1866.19	272.799
1865.39	269.653
1864.58	291.301
1863.77	272.661
1862.97	278.811
1862.16	288.056
1861.35	312.783
1860.54	291.056
1859.74	309.582
1858.93	294.054
1858.12	284.72
1857.31	312.52
1856.51	296.999
1855.7	284.576
1854.89	303.085
1854.08	290.665
1853.27	275.158
1852.46	302.932
1851.65	309.062
1850.84	296.65
1850.04	284.242
1849.23	271.837
1848.42	318.12
1847.61	318.066
1846.8	259.35
1845.99	333.394
1845.18	277.782
1844.37	280.821
1843.56	323.97
1842.75	330.085
1841.94	314.608
1841.13	286.8
1840.31	339.169
1839.5	295.952
1838.69	320.561
1837.88	302.016
1837.07	301.965
1836.26	283.43
1835.45	292.623
1834.64	292.573
1833.82	301.762
1833.01	301.711
1832.2	347.833
1831.39	326.231
1830.57	313.867
1829.76	310.738
1828.95	289.153
1828.14	292.179
1827.32	301.355
1826.51	301.305
1825.7	344.29
1824.88	279.689
1824.07	279.642
1823.26	322.609
1822.44	304.123
1821.63	340.929
1820.81	325.517
1820	297.828
1819.19	328.477
1818.37	325.352
1817.56	294.609
1816.74	309.901
1815.93	236.221
1815.11	297.527
1814.3	309.744
1813.48	272.897
1812.67	291.245
1811.85	337.174
1811.03	294.212
1810.22	315.611
1809.4	343.131
1808.59	297.126
1807.77	312.389
1806.95	355.206
1806.14	333.715
1805.32	315.292
1804.5	296.875
1803.69	290.705
1802.87	296.775
1802.05	263.076
1801.24	266.09
1800.42	278.277
1799.6	351.609
1798.78	376.006
1797.96	351.491
1797.15	323.928
1796.33	339.15
1795.51	305.489
1794.69	311.546
1793.87	323.709
1793.05	317.548
1792.23	317.494
1791.42	344.911
1790.6	296.024
1789.78	320.385
1788.96	332.534
1788.14	308.075
1787.32	365.968
1786.5	341.513
1785.68	350.601
1784.86	310.915
1784.04	347.435
1783.22	371.754
1782.4	335.131
1781.58	322.89
1780.76	325.881
1779.93	316.69
1779.11	316.637
1778.29	319.627
1777.47	346.965
1776.65	343.864
1775.83	359.018
1775.01	331.579
1774.18	364.98
1773.36	334.508
1772.54	331.411
1771.72	307.035
1770.89	364.733
1770.07	322.126
1769.25	376.763
1768.43	331.131
1767.6	364.486
1766.78	355.314
1765.96	312.745
1765.13	358.229
1764.31	336.921
1763.49	339.899
1762.66	336.807
1761.84	324.615
1761.01	345.793
1760.19	376.062
1759.36	363.869
1758.54	327.427
1757.72	309.184
1756.89	363.684
1756.07	363.623
1755.24	354.472
1754.41	384.704
1753.59	345.266
1752.76	320.983
1751.94	339.094
1751.11	339.037
1750.29	351.085
1749.46	338.922
1748.63	350.966
1747.81	329.732
1746.98	356.897
1746.15	317.524
1745.33	353.752
1744.5	341.6
1743.67	371.767
1742.85	356.594
1742.02	380.705
1741.19	395.746
1740.36	341.311
1739.54	350.312
1738.71	350.253
1737.88	410.572
1737.05	359.189
1736.22	377.236
1735.39	392.259
1734.57	289.619
1733.74	371.011
1732.91	355.869
1732.08	334.701
1731.25	328.615
1730.42	376.788
1729.59	370.696
1728.76	352.554
1727.93	331.405
1727.1	361.471
1726.27	370.445
1725.44	340.269
1724.61	370.319
1723.78	337.144
1722.95	331.067
1722.12	346.057
1721.29	364.05
1720.46	385.045
1719.62	351.896
1718.79	357.85
1717.96	405.896
1717.13	372.759
1716.3	348.651
1715.47	372.633
1714.63	375.574
1713.8	357.486
1712.97	372.443
1712.14	381.389
1711.31	372.316
1710.47	405.275
1709.64	423.216
1708.81	432.147
1707.97	351.059
1707.14	384
1706.31	395.932
1705.47	380.87
1704.64	353.819
1703.81	389.735
1702.97	371.684
1702.14	359.633
1701.3	401.521
1700.47	386.473
1699.63	374.426
1698.8	365.378
1697.96	383.282
1697.13	431.119
1696.29	395.125
1695.46	398.051
1694.62	397.983
1693.79	430.825
1692.95	382.891
1692.12	391.798
1691.28	376.78
1690.44	373.726
1689.61	379.641
1688.77	430.385
1687.93	397.441
1687.1	406.337
1686.26	409.255
1685.42	376.331
1684.59	403.143
1683.75	409.046
1682.91	408.976
1682.07	385.029
1681.24	399.884
1680.4	364.011
1679.56	381.849
1678.72	405.645
1677.88	396.629
1677.05	381.653
1676.21	375.626
1675.37	414.31
1674.53	408.28
1673.69	420.129
1672.85	363.453
1672.01	372.327
1671.17	405.023
1670.33	416.864
1669.49	422.748
1668.65	375.05
1667.81	422.603
1666.97	374.922
1666.13	377.833
1665.29	398.591
1664.45	452.056
1663.61	383.587
1662.77	425.144
1661.93	401.291
1661.09	422.027
1660.25	448.699
1659.4	436.738
1658.56	454.486
1657.72	442.529
1656.88	400.881
1656.04	442.378
1655.19	403.712
1654.35	433.323
1653.51	370.932
1652.67	439.109
1651.82	427.168
1650.98	406.334
1650.14	358.817
1649.3	423.984
1648.45	391.303
1647.61	420.876
1646.77	435.621
1645.92	417.769
1645.08	432.509
1644.23	420.588
1643.39	396.825
1642.54	396.757
1641.7	467.738
1640.86	455.819
1640.01	426.147
1639.17	423.116
1638.32	411.21
1637.48	440.718
1636.63	476.131
1635.78	419.87
1634.94	467.099
1634.09	449.284
1633.25	407.833
1632.4	413.673
1631.56	422.465
1630.71	434.208
1629.86	451.854
1629.02	404.532
1628.17	431.033
1627.32	410.297
1626.47	424.983
1625.63	430.812
1624.78	407.136
1623.93	457.212
1623.09	424.692
1622.24	468.851
1621.39	471.719
1620.54	427.422
1619.69	445.032
1618.84	427.275
1618	444.88
1617.15	379.998
1616.3	462.399
1615.45	435.817
1614.6	444.575
1613.75	470.992
1612.9	435.593
1612.05	456.117
1611.2	473.692
1610.35	497.145
1609.5	502.942
1608.65	461.686
1607.8	429.265
1606.95	455.649
1606.1	455.571
1605.25	461.37
1604.4	428.971
1603.55	420.085
1602.7	452.321
1601.85	446.37
1600.99	460.975
1600.14	487.316
1599.29	434.4
1598.44	457.803
1597.59	445.988
1596.74	445.911
1595.88	463.434
1595.03	460.422
1594.18	413.429
1593.32	483.717
1592.47	521.738
1591.62	395.632
1590.77	445.376
1589.91	421.863
1589.06	410.074
1588.21	468.576
1587.35	459.711
1586.5	436.211
1585.64	433.209
1584.79	500.447
1583.93	453.543
1583.08	503.2
1582.23	465.088
1581.37	432.838
1580.52	476.625
1579.66	470.696
1578.81	461.846
1577.95	496.837
1577.09	455.843
1576.24	464.529
1575.38	455.686
1574.53	443.926
1573.67	414.649
1572.81	443.773
1571.96	461.211
1571.1	484.48
1570.24	478.561
1569.39	475.561
1568.53	490.065
1567.67	481.231
1566.82	469.484
1565.96	419.839
1565.1	428.512
1564.24	451.755
1563.39	483.731
1562.53	474.908
1561.67	489.391
1560.81	457.269
1559.95	556.2
1559.09	489.139
1558.23	518.165
1557.38	454.044
1556.52	465.606
1555.66	445.159
1554.8	491.627
1553.94	465.366
1553.08	503.09
1552.22	491.373
1551.36	444.776
1550.5	459.232
1549.64	491.12
1548.78	482.319
1547.92	493.856
1547.06	499.58
1546.2	496.59
1545.34	487.794
1544.47	449.97
1543.61	487.626
1542.75	473.032
1541.89	467.147
1541.03	449.66
1540.17	481.489
1539.3	481.406
1538.44	475.524
1537.58	449.351
1536.72	466.664
1535.85	489.768
1534.99	504.172
1534.13	454.835
1533.27	460.55
1532.4	486.535
1531.54	498.033
1530.68	477.682
1529.81	509.44
1528.95	500.67
1528.08	471.648
1527.22	465.78
1526.36	497.518
1525.49	494.54
1524.63	442.407
1523.76	479.915
1522.9	494.285
1522.03	479.749
1521.17	462.329
1520.3	531.587
1519.44	485.278
1518.57	433.209
1517.7	464.897
1516.84	479.253
1515.97	522.468
1515.11	427.138
1514.24	479.005
1513.37	467.382
1512.51	455.763
1511.64	467.22
1510.77	495.975
1509.91	464.176
1509.04	461.213
1508.17	452.487
1507.3	521.567
1506.44	472.499
1505.57	466.656
1504.7	544.338
1503.83	521.207
1502.96	515.359
1502.09	492.241
1501.23	472.009
1500.36	466.172
1499.49	457.46
1498.62	483.271
1497.75	488.94
1496.88	506.109
1496.01	485.896
1495.14	488.686
1494.27	479.979
1493.4	465.528
1492.53	525.784
1491.66	494.094
1490.79	448.054
1489.92	479.565
1489.05	516.807
1488.18	459.304
1487.31	462.095
1486.44	545.235
1485.56	530.795
1484.69	539.309
1483.82	473.248
1482.95	513.313
1482.08	490.287
1481.21	464.402
1480.33	498.716
1479.46	530.152
1478.59	518.6
1477.72	521.375
1476.84	527.013
1475.97	498.285
1475.1	443.797
1474.22	489.524
1473.35	495.164
1472.48	540.866
1471.6	517.882
1470.73	497.767
1469.85	491.961
1468.98	543.351
1468.11	534.679
1467.23	546.021
1466.36	543.068
1465.48	500.108
1464.61	551.452
1463.73	548.5
1462.86	502.704
1461.98	534.031
1461.11	565.346
1460.23	536.701
1459.35	542.316
1458.48	599.298
1457.6	519.302
1456.73	522.064
1455.85	559.054
1454.97	587.475
1454.1	595.928
1453.22	524.553
1452.34	567.217
1451.46	532.921
1450.59	521.431
1449.71	538.434
1448.83	606.701
1447.95	569.574
1447.08	541.001
1446.2	518.132
1445.32	523.735
1444.44	523.644
1443.56	554.853
1442.68	546.222
1441.81	551.816
1440.93	560.252
1440.05	545.937
1439.17	571.429
1438.29	520.166
1437.41	585.44
1436.53	565.448
1435.65	556.827
1434.77	579.454
1433.89	536.754
1433.01	587.772
1432.13	556.441
1431.25	570.537
1430.37	485.298
1429.48	567.501
1428.6	570.239
1427.72	578.65
1426.84	536.009
1425.96	567.107
1425.08	561.338
1424.19	581.082
1423.31	549.807
1422.43	586.547
1421.55	560.948
1420.67	572.181
1419.78	557.921
1418.9	552.16
1418.02	512.429
1417.13	543.477
1416.25	523.571
1415.37	582.902
1414.48	492.269
1413.6	602.5
1412.71	503.41
1411.83	531.599
1410.95	562.605
1410.06	537.068
1409.18	573.714
1408.29	531.229
1407.41	522.661
1406.52	542.343
1405.64	528.128
1404.75	502.622
1403.87	550.53
1402.98	556.079
1402.1	533.405
1401.21	505.094
1400.32	502.185
1399.44	533.126
1398.55	521.752
1397.66	561.138
1396.78	504.655
1395.89	546.849
1395	541.117
1394.12	586.108
1393.23	518.39
1392.34	566.186
1391.45	599.884
1390.57	560.357
1389.68	543.367
1388.79	515.124
1387.9	506.591
1387.01	498.061
1386.12	562.682
1385.24	568.21
1384.35	565.299
1383.46	601.755
1382.57	545.421
1381.68	550.948
1380.79	531.179
1379.9	539.516
1379.01	542.231
1378.12	528.092
1377.23	502.723
1376.34	522.292
1375.45	589.581
1374.56	578.25
1373.67	507.986
1372.78	552.794
1371.89	614.42
1370.99	544.186
1370.1	577.746
1369.21	574.841
1368.32	591.562
1367.43	583.05
1366.54	571.737
1365.64	591.253
1364.75	540.72
1363.86	554.631
1362.97	557.335
1362.07	621.642
1361.18	540.342
1360.29	531.85
1359.39	528.958
1358.5	565.243
1357.61	590.324
1356.71	534.276
1355.82	562.15
1354.93	590.015
1354.03	578.729
1353.14	533.903
1352.24	581.321
1351.35	522.539
1350.45	530.829
1349.56	527.943
1348.66	541.815
1347.77	566.851
1346.87	552.793
1345.98	508.034
1345.08	524.691
1344.18	513.437
1343.29	504.978
1342.39	541.152
1341.5	515.957
1340.6	504.713
1339.7	560.384
1338.81	560.286
1337.91	582.484
1337.01	512.719
1336.11	540.49
1335.22	501.398
1334.32	479.029
1333.42	492.868
1332.52	556.816
1331.63	528.883
1330.73	526.007
1329.83	509.219
1328.93	481.309
1328.03	478.443
1327.13	536.763
1326.23	522.766
1325.33	480.972
1324.43	466.989
1323.53	489.141
1322.64	500.17
1321.74	486.191
1320.84	488.884
1319.94	469.357
1319.03	519.257
1318.13	491.403
1317.23	521.851
1316.33	455.152
1315.43	493.92
1314.53	463.316
1313.63	438.27
1312.73	477.02
1311.83	465.845
1310.92	443.584
1310.02	462.91
1309.12	448.971
1308.22	479.373
1307.32	429.421
1306.41	448.735
1305.51	448.656
1304.61	490.113
1303.71	442.962
1302.8	481.637
1301.9	456.644
1301	500.837
1300.09	437.118
1299.19	495.129
1298.28	472.918
1297.38	439.653
1296.48	458.929
1295.57	458.848
1294.67	461.531
1293.76	494.608
1292.86	419.929
1291.95	439.19
1291.05	419.781
1290.14	427.991
1289.24	394.787
1288.33	402.999
1287.42	441.565
1286.52	449.765
1285.61	427.616
1284.71	399.957
1283.8	402.645
1282.89	432.905
1281.99	372.178
1281.08	407.945
1280.17	391.338
1279.26	380.248
1278.36	344.367
1277.45	366.342
1276.54	385.555
1275.63	382.734
1274.72	401.938
1273.82	374.342
1272.91	390.788
1272	382.465
1271.09	365.891
1270.18	365.827
1269.27	341.012
1268.36	368.448
1267.45	351.888
1266.54	360.073
1265.64	349.017
1264.73	390.17
1263.82	359.883
1262.91	351.579
1261.99	384.472
1261.08	354.201
1260.17	409.044
1259.26	354.076
1258.35	343.037
1257.44	359.439
1256.53	331.943
1255.62	389.484
1254.71	340.053
1253.79	315.316
1252.88	375.572
1251.97	361.801
1251.06	367.218
1250.15	334.274
1249.23	367.089
1248.32	364.285
1247.41	345.051
1246.49	372.371
1245.58	385.993
1244.67	317.498
1243.75	331.125
1242.84	342.011
1241.93	355.629
1241.01	388.388
1240.1	347.3
1239.18	311.695
1238.27	333.509
1237.35	306.118
1236.44	349.788
1235.53	325.136
1234.61	363.323
1233.69	311.365
1232.78	341.349
1231.86	357.67
1230.95	333.039
1230.03	341.168
1229.12	335.65
1228.2	343.776
1227.28	335.532
1226.37	302.744
1225.45	349.048
1224.53	365.345
1223.62	338.021
1222.7	302.53
1221.78	340.627
1220.86	307.872
1219.95	299.646
1219.03	348.617
1218.11	362.171
1217.19	274.984
1216.27	340.266
1215.35	345.649
1214.44	353.752
1213.52	326.483
1212.6	326.425
1211.68	331.807
1210.76	304.556
1209.84	337.127
1208.92	328.913
1208	320.701
1207.08	317.927
1206.16	290.702
1205.24	315.098
1204.32	328.622
1203.4	331.279
1202.48	317.646
1201.56	325.733
1200.64	328.39
1199.71	344.613
1198.79	309.283
1197.87	341.778
1196.95	298.325
1196.03	338.946
1195.1	309.064
1194.18	363.221
1193.26	306.245
1192.34	325.158
1191.41	308.845
1190.49	295.247
1189.57	327.694
1188.65	311.389
1187.72	303.212
1186.8	319.399
1185.87	278.748
1184.95	303.051
1184.03	332.756
1183.1	281.305
1182.18	302.89
1181.25	321.764
1180.33	310.893
1179.4	302.73
1178.48	318.891
1177.55	310.728
1176.63	313.375
1175.7	278.206
1174.78	356.473
1173.85	307.808
1172.92	326.651
1172	310.398
1171.07	283.357
1170.15	342.666
1169.22	302.14
1168.29	337.15
1167.36	320.91
1166.44	326.246
1165.51	296.535
1164.58	293.787
1163.65	304.514
1162.73	296.377
1161.8	323.263
1160.87	342.059
1159.94	317.763
1159.01	282.705
1158.08	296.114
1157.16	282.604
1156.23	279.863
1155.3	279.814
1154.37	285.144
1153.44	309.3
1152.51	333.446
1151.58	290.37
1150.65	346.769
1149.72	287.579
1148.79	284.841
1147.86	306.284
1146.93	300.857
1146	327.661
1145.07	335.659
1144.13	289.958
1143.2	287.222
1142.27	335.48
1141.34	324.687
1140.41	279.02
1139.48	276.288
1138.54	295.013
1137.61	289.597
1136.68	294.908
1135.75	302.897
1134.81	265.323
1133.88	321.546
1132.95	286.661
1132.01	297.324
1131.08	278.525
1130.15	270.442
1129.21	321.261
1128.28	294.436
1127.35	363.966
1126.41	307.711
1125.48	318.357
1124.54	315.625
1123.61	312.895
1122.67	323.535
1121.74	307.437
1120.8	272.635
1119.87	264.569
1118.93	309.945
1117.99	280.504
1117.06	301.822
1116.12	269.722
1115.19	277.684
1114.25	293.652
1113.31	264.24
1112.38	258.856
1111.44	293.495
1110.5	317.452
1109.56	277.388
1108.63	285.338
1107.69	261.291
1106.75	279.905
1105.81	279.855
1104.88	309.119
1103.94	290.413
1103	293.025
1102.06	287.646
1101.12	266.292
1100.18	282.219
1099.24	271.521
1098.3	263.488
1097.36	279.407
1096.42	303.302
1095.49	287.288
1094.55	279.258
1093.6	260.594
1092.66	281.817
1091.72	284.425
1090.78	255.139
1089.84	281.666
1088.9	281.616
1087.96	260.316
1087.02	286.827
1086.08	260.223
1085.14	281.415
1084.19	273.402
1083.25	244.16
1082.31	294.532
1081.37	281.215
1080.43	294.427
1079.48	291.722
1078.54	259.852
1077.6	318.129
1076.65	302.169
1075.71	278.264
1074.77	264.966
1073.82	304.656
1072.88	259.574
1071.93	270.12
1070.99	285.959
1070.05	275.318
1069.1	304.384
1068.16	238.171
1067.21	280.463
1066.27	259.249
1065.32	269.783
1064.38	280.312
1063.43	274.974
1062.49	277.569
1061.54	301.307
1060.59	285.397
1059.65	266.852
1058.7	266.804
1057.75	264.115
1056.81	285.193
1055.86	261.381
1054.91	263.974
1053.97	266.566
1053.02	240.13
1052.07	292.854
1051.12	258.509
1050.18	279.562
1049.23	308.518
1048.28	255.734
1047.33	250.416
1046.38	289.904
1045.43	252.962
1044.48	260.82
1043.54	218.628
1042.59	237.024
1041.64	297.544
1040.69	255.368
1039.74	268.484
1038.79	289.489
1037.84	249.969
1036.89	239.401
1035.94	270.922
1034.99	268.243
1034.04	249.79
1033.08	273.405
1032.13	281.242
1031.18	289.075
1030.23	249.611
1029.28	257.447
1028.33	281.04
1027.37	210.086
1026.42	280.939
1025.47	204.76
1024.52	249.343
1023.57	246.674
1022.61	254.501
1021.66	259.702
1020.71	312.111
1019.75	259.609
1018.8	254.319
1017.85	267.38
1016.89	199.189
1015.94	272.525
1014.98	256.756
1014.03	282.905
1013.07	277.616
1012.12	243.525
1011.16	248.718
1010.21	243.438
1009.25	232.926
1008.3	269.518
1007.34	261.621
1006.39	258.958
1005.43	243.22
1004.48	243.176
1003.52	261.433
1002.56	258.772
1001.61	237.819
1000.65	248.228
999.693	269.083
998.736	242.914
997.778	255.928
996.821	253.271
995.863	234.952
994.905	261.011
993.947	237.477
992.989	281.79
992.031	255.653
991.072	260.823
990.114	206.013
989.155	205.976
988.196	247.649
987.237	268.455
986.277	239.742
985.318	255.332
984.358	260.496
983.398	270.867
982.438	257.798
981.478	260.355
980.517	257.705
979.557	275.877
978.596	265.419
977.635	252.363
976.674	273.127
975.713	265.276
974.751	249.627
973.79	265.181
972.828	270.332
971.866	249.492
970.904	262.439
969.942	241.608
968.979	280.527
968.017	249.313
967.054	254.461
966.091	218.07
965.128	243.987
964.164	228.372
963.201	249.088
962.237	259.42
961.273	230.842
960.309	225.614
959.345	238.538
958.381	277.38
957.416	261.779
956.451	225.452
955.486	259.093
954.521	238.323
953.556	238.28
952.591	292.617
951.625	240.783
950.659	253.683
949.693	263.99
948.727	232.89
947.761	253.546
946.794	214.699
945.828	279.317
944.861	235.308
943.894	255.949
942.927	237.808
941.959	261.025
940.992	253.226
940.024	273.848
939.056	258.301
938.088	253.089
937.12	209.148
936.152	245.253
935.183	252.952
934.214	232.261
933.246	258.022
932.276	229.598
931.307	268.246
930.338	244.988
929.368	239.787
928.398	250.055
927.428	265.475
926.458	224.195
925.488	226.731
924.517	247.299
923.547	236.952
922.576	283.261
921.605	265.187
920.634	239.398
919.662	236.781
918.691	270.19
917.719	270.141
916.747	213.502
915.775	262.328
914.803	236.567
913.831	298.226
912.858	249.334
911.885	264.709
910.912	251.813
909.939	305.718
908.966	269.703
907.992	249.109
907.019	241.361
906.045	277.258
905.071	266.941
904.097	220.7
903.122	318.161
902.148	274.492
901.173	271.878
900.198	271.828
899.223	264.087
898.248	281.984
897.273	261.429
896.297	253.694
895.321	228.027
894.345	258.725
893.369	274.046
892.393	256.071
891.416	296.989
890.44	266.218
889.463	273.847
888.486	250.768
887.509	230.256
886.531	283.93
885.554	268.534
884.576	258.258
883.598	270.994
882.62	296.505
881.642	291.34
880.664	293.843
879.685	260.579
878.706	252.869
877.727	278.361
876.748	329.376
875.769	273.154
874.789	270.552
873.81	247.536
872.83	290.866
871.85	257.65
870.87	329.018
869.889	306.008
868.909	239.663
867.928	252.365
866.947	293.098
865.966	270.111
864.985	272.61
864.003	280.202
863.022	272.511
862.04	246.998
861.058	302.963
860.076	269.817
859.094	264.679
858.111	279.898
857.128	274.759
856.146	274.709
855.162	295.004
854.179	279.695
853.196	256.764
852.212	254.176
851.229	274.46
850.245	269.328
849.261	307.385
848.276	241.292
847.292	279.339
846.307	274.211
845.322	297.008
844.337	302.03
843.352	271.524
842.367	284.16
841.381	289.182
840.396	268.84
839.41	286.541
838.424	283.954
837.437	283.902
836.451	266.11
835.464	278.731
834.477	309.082
833.49	288.762
832.503	270.982
831.516	260.804
830.528	275.946
829.541	286.021
828.553	308.745
827.565	290.977
826.577	270.686
825.588	285.813
824.6	303.463
823.611	283.181
822.622	298.297
821.633	305.825
820.643	320.931
819.654	265.289
818.664	275.345
817.674	257.615
816.684	318.173
815.694	318.115
814.704	272.62
813.713	317.999
812.723	315.418
811.732	269.949
810.741	305.213
809.749	307.68
808.758	305.102
807.766	269.752
806.774	277.265
805.782	267.134
804.79	292.282
803.798	289.709
802.805	277.063
801.812	229.165
800.819	287.033
799.826	289.498
798.833	309.581
797.84	271.778
796.846	309.468
795.852	264.132
794.858	289.235
793.864	309.299
792.87	263.988
791.875	279.022
790.88	294.05
789.885	288.971
788.89	276.357
787.895	291.378
786.9	291.325
785.904	306.337
784.908	286.197
783.912	256.025
782.916	288.602
781.92	270.986
780.923	258.393
779.926	263.362
778.929	250.776
777.932	290.847
776.935	268.232
775.938	273.196
774.94	273.146
773.942	288.129
772.944	258.016
771.946	267.987
770.948	318.02
769.949	295.429
768.95	292.872
767.951	277.802
766.952	265.24
765.953	272.697
764.954	310.168
763.954	287.603
762.954	260.046
761.954	254.998
760.954	277.447
759.954	282.395
758.953	252.36
757.952	267.303
756.951	289.733
755.95	289.68
754.949	247.182
753.948	267.107
752.946	284.53
751.944	291.964
750.942	324.345
749.94	326.78
748.937	301.78
747.935	274.295
746.932	309.149
745.929	271.702
744.926	301.559
743.923	271.603
742.919	269.062
741.916	286.449
740.912	286.396
739.908	281.364
738.903	281.312
737.899	288.728
736.894	283.698
735.89	293.599
734.885	310.959
733.88	318.363
732.874	303.384
731.869	300.843
730.863	265.986
729.857	323.101
728.851	320.557
727.845	275.777
726.838	265.791
725.832	285.611
724.825	317.839
723.818	302.885
722.811	312.758
721.804	265.547
720.796	295.274
719.788	320.029
718.78	315.009
717.772	265.353
716.764	300.017
715.756	297.483
714.747	282.557
713.738	322.155
712.729	314.663
711.72	299.742
710.71	287.303
709.701	326.871
708.691	324.336
707.681	304.473
706.671	287.093
705.661	284.565
704.65	336.468
703.64	324.038
702.629	289.355
701.618	321.447
700.606	309.027
699.595	299.083
698.583	294.085
697.572	289.09
696.56	321.152
695.547	291.453
694.535	281.522
693.523	301.223
692.51	278.95
691.497	308.516
690.484	286.251
689.471	291.132
688.457	293.546
687.443	315.689
686.43	256.45
685.416	283.522
684.401	285.935
683.387	315.457
682.372	283.366
681.358	310.414
680.343	278.336
679.327	320.15
678.312	302.856
677.297	260.95
676.281	290.438
675.265	258.393
674.249	322.316
673.233	327.177
672.216	295.143
671.2	272.957
670.183	304.869
669.166	277.773
668.148	282.637
667.131	321.902
666.113	312.015
665.096	277.569
664.078	321.724
663.06	292.199
662.041	331.426
661.023	297.001
660.004	309.217
658.985	299.345
657.966	291.931
656.947	309.046
655.927	313.894
654.908	284.414
653.888	279.459
652.868	311.269
651.848	264.653
650.827	311.155
649.807	296.4
648.786	288.998
647.765	298.739
646.744	298.684
645.723	342.689
644.701	332.837
643.679	313.2
642.657	322.928
641.635	288.625
640.613	313.027
639.591	293.409
638.568	315.357
637.545	276.192
636.522	303.022
635.499	312.739
634.475	293.139
633.452	307.739
632.428	293.03
631.404	312.508
630.38	310.01
629.356	305.071
628.331	319.656
627.306	317.157
626.281	336.612
625.256	312.162
624.231	351.118
623.205	324.237
622.18	319.302
621.154	321.68
620.128	314.311
619.102	311.817
618.075	326.373
617.049	292.22
616.022	289.732
614.995	321.324
613.968	328.566
612.94	318.772
611.913	330.877
610.885	323.519
609.857	330.755
608.829	316.105
607.8	335.495
606.772	333.002
605.743	267.325
604.714	291.573
603.685	313.383
602.656	315.754
601.626	308.41
600.597	322.921
599.567	305.869
598.537	303.385
597.507	349.435
596.476	344.518
595.446	315.346
594.415	354.092
593.384	341.902
592.353	300.624
591.321	332.08
590.29	300.513
589.258	334.38
588.226	319.783
587.194	331.834
586.162	312.399
585.129	292.971
584.096	300.18
583.063	319.487
582.03	329.107
580.997	329.046
579.964	299.957
578.93	370.04
577.896	311.937
576.862	403.75
575.828	323.907
574.793	323.847
573.759	297.208
572.724	321.312
571.689	333.329
570.654	330.852
569.618	318.718
568.583	325.902
567.547	289.637
566.511	308.889
565.475	306.419
564.438	335.309
563.402	320.776
562.365	323.128
561.328	325.479
560.291	344.703
559.254	327.768
558.216	344.575
557.178	334.874
556.141	337.221
555.102	354.016
554.064	332.28
553.026	310.552
551.987	324.936
550.948	346.534
549.909	358.5
548.87	339.189
547.83	355.962
546.791	348.682
545.751	346.213
544.711	329.322
543.671	350.891
542.63	324.394
541.59	355.566
540.549	379.52
539.508	326.615
538.467	355.368
537.425	345.699
536.384	357.636
535.342	347.97
534.3	359.902
533.258	359.835
532.216	366.964
531.173	359.702
530.13	335.659
529.088	352.377
528.044	369.088
527.001	352.246
525.958	335.41
524.914	347.324
523.87	344.865
522.826	378.323
521.782	378.252
520.737	361.427
519.693	363.753
518.648	378.041
517.603	342.088
516.557	356.375
515.512	356.308
514.466	346.679
513.42	339.443
512.374	403.91
511.328	406.224
510.282	344.031
509.235	324.858
508.188	327.186
507.141	339.064
506.094	341.388
505.047	362.806
503.999	384.217
502.951	329.267
501.903	336.363
500.855	369.692
499.807	360.084
