3200.66	21.0496
3200.06	37.8892
3199.47	29.4649
3198.87	46.295
3198.28	37.872
3197.69	58.9031
3197.09	37.8606
3196.5	37.8549
3195.9	46.2601
3195.31	42.0482
3194.71	67.267
3194.12	42.0355
3193.52	42.0292
3192.93	29.416
3192.33	50.4197
3191.74	42.0101
3191.14	42.0037
3190.55	29.3982
3189.95	71.3848
3189.36	96.5648
3188.76	67.1653
3188.17	67.1552
3187.57	46.1622
3186.97	37.7634
3186.38	75.5153
3185.78	54.5306
3185.19	67.1044
3184.59	29.3537
3183.99	33.542
3183.4	16.7685
3182.8	58.6808
3182.2	12.5726
3181.61	20.9511
3181.01	20.9479
3180.41	37.7006
3179.82	25.1299
3179.22	20.9384
3178.62	50.2446
3178.03	29.3049
3177.43	41.8578
3176.83	46.0366
3176.23	66.9522
3175.64	50.2066
3175.04	4.18325
3174.44	37.6435
3173.84	29.2739
3173.25	20.9067
3172.65	58.53
3172.05	54.341
3171.45	33.4356
3170.85	37.6093
3170.26	41.7818
3169.66	37.5979
3169.06	8.35383
3168.46	70.9968
3167.86	33.4052
3167.26	33.4001
3166.66	33.3951
3166.06	33.39
3165.47	54.2505
3164.87	58.4148
3164.27	4.17185
3163.67	62.5683
3163.07	33.3647
3162.47	58.3794
3161.87	29.1853
3161.27	33.3495
3160.67	33.3445
3160.07	54.1766
3159.47	45.8348
3158.87	49.994
3158.27	37.4898
3157.67	49.9788
3157.07	12.4928
3156.47	8.32728
3155.87	58.2821
3155.27	16.6495
3154.67	37.4557
3154.07	62.4167
3153.46	8.32097
3152.86	20.7993
3152.26	95.6621
3151.66	20.7929
3151.06	41.5796
3150.46	49.8879
3149.86	33.2536
3149.26	29.0925
3148.65	29.0881
3148.05	29.0836
3147.45	24.925
3146.85	45.689
3146.25	33.2233
3145.64	29.066
3145.04	62.2748
3144.44	41.5102
3143.84	37.3535
3143.24	62.2464
3142.63	58.0879
3142.03	53.9305
3141.43	37.3309
3140.82	29.0307
3140.22	29.0263
3139.62	37.3139
3139.02	87.0525
3138.41	37.3025
3137.81	37.2969
3137.21	49.7216
3136.6	41.4284
3136	28.9955
3135.4	49.6989
3134.79	37.2685
3134.19	86.9467
3133.58	45.5366
3132.98	33.1125
3132.38	33.1075
3131.77	37.2402
3131.17	33.0974
3130.56	24.8193
3129.96	57.9029
3129.35	45.4882
3128.75	66.1546
3128.14	62.0105
3127.54	57.8677
3126.93	99.1867
3126.33	33.0572
3125.72	45.4467
3125.12	57.8325
3124.51	33.0421
3123.91	57.8149
3123.3	28.9031
3122.7	53.669
3122.09	61.9163
3121.49	49.5255
3120.88	61.8975
3120.27	70.1398
3119.67	24.7515
3119.06	24.7477
3118.46	70.1078
3117.85	65.9738
3117.24	32.9819
3116.64	74.1979
3116.03	70.0652
3115.42	24.7251
3114.82	32.9618
3114.21	53.5548
3113.6	45.3087
3113	41.1835
3112.39	49.4126
3111.78	57.6393
3111.17	65.8634
3110.57	78.2009
3109.96	65.8434
3109.35	45.2604
3108.74	53.4815
3108.14	65.8133
3107.53	45.2398
3106.92	32.8966
3106.31	41.1145
3105.7	65.7733
3105.1	16.4408
3104.49	28.767
3103.88	49.3074
3103.27	32.8666
3102.66	82.154
3102.05	32.8566
3101.44	69.8096
3100.84	41.0582
3100.23	65.6832
3099.62	45.1503
3099.01	61.5592
3098.4	16.4133
3097.79	45.1297
3097.18	57.429
3096.57	57.4203
3095.96	69.714
3095.35	57.4028
3094.74	32.7966
3094.13	49.1874
3093.52	65.5732
3092.91	73.7586
3092.3	69.6503
3091.69	57.3503
3091.08	53.2457
3090.47	57.3328
3089.86	53.2295
3089.25	81.879
3088.64	61.3999
3088.03	57.2979
3087.42	40.9208
3086.81	20.4573
3086.19	32.7267
3085.58	36.8119
3084.97	44.9854
3084.36	16.3558
3083.75	53.1484
3083.14	57.228
3082.53	61.3064
3081.91	61.297
3081.3	65.3735
3080.69	40.8522
3080.08	53.0998
3079.47	53.0917
3078.85	49.0002
3078.24	69.4064
3077.63	77.56
3077.02	73.4667
3076.4	69.3746
3075.79	53.0431
3075.18	32.6369
3074.57	69.3428
3073.95	32.6269
3073.34	40.7775
3072.73	65.234
3072.11	77.4535
3071.5	48.9105
3070.89	48.9031
3070.27	57.0449
3069.66	81.4802
3069.05	73.321
3068.43	40.7277
3067.82	57.01
3067.2	32.5722
3066.59	40.709
3065.98	77.3353
3065.36	28.4876
3064.75	65.1046
3064.13	77.2999
3063.52	52.8813
3062.9	56.9404
3062.29	48.7986
3061.67	40.6593
3061.06	60.9796
3060.44	97.5525
3059.83	69.0891
3059.21	60.9517
3058.6	60.9424
3057.98	56.8708
3057.37	24.3695
3056.75	16.2438
3056.14	56.8448
3055.52	40.5972
3054.9	56.8274
3054.29	48.7017
3053.67	48.6943
3053.06	56.8013
3052.44	36.5096
3051.82	73.008
3051.21	68.9414
3050.59	44.6023
3049.97	40.5414
3049.36	68.9098
3048.74	93.2166
3048.12	60.7842
3047.51	56.7232
3046.89	64.8166
3046.27	93.1596
3045.65	32.3984
3045.04	36.4426
3044.42	64.777
3043.8	80.9588
3043.18	56.6625
3042.57	44.5137
3041.95	44.5069
3041.33	109.228
3040.71	117.3
3040.09	80.8845
3039.48	80.8721
3038.86	97.0317
3038.24	68.7203
3037.62	60.6262
3037	72.7404
3036.38	56.5672
3035.76	80.7979
3035.14	88.8641
3034.53	92.8891
3033.91	68.6466
3033.29	68.6361
3032.67	76.6992
3032.05	80.7237
3031.43	64.569
3030.81	72.629
3030.19	125.064
3029.57	76.6405
3028.95	60.4964
3028.33	92.7469
3027.71	76.6053
3027.09	96.7498
3026.47	64.49
3025.85	60.4501
3025.23	72.529
3024.61	76.5466
3023.99	88.6194
3023.37	68.4681
3022.75	80.5384
3022.13	84.5523
3021.5	56.3596
3020.88	72.4512
3020.26	36.22
3019.64	88.5243
3019.02	84.4875
3018.4	84.4746
3017.78	48.2638
3017.15	84.4487
3016.53	96.498
3015.91	84.4228
3015.29	44.2147
3014.67	52.2457
3014.04	88.4022
3013.42	28.1237
3012.8	40.1705
3012.18	64.263
3011.56	64.2531
3010.93	56.2128
3010.31	80.2917
3009.69	80.2794
3009.06	76.2537
3008.44	96.3057
3007.82	88.2667
3007.19	64.1841
3006.57	68.1852
3005.95	88.2261
3005.32	88.2126
3004.7	68.1538
3004.08	100.211
3003.45	96.1876
3002.83	120.216
3002.21	96.158
3001.58	64.0955
3000.96	48.0643
3000.33	48.0569
2999.71	64.066
2999.08	48.0421
2998.46	52.0376
2997.84	48.0274
2997.21	60.025
2996.59	88.0231
2995.96	80.0088
2995.34	51.9977
2994.71	79.9842
2994.09	75.9733
2993.46	83.9576
2992.83	79.9473
2992.21	95.9221
2991.58	79.9228
2990.96	91.8971
2990.33	87.888
2989.71	59.9144
2989.08	59.9052
2988.45	119.792
2987.83	63.8793
2987.2	79.8368
2986.58	63.8597
2985.95	75.8217
2985.32	91.77
2984.7	55.8514
2984.07	87.753
2983.44	99.704
2982.82	71.7759
2982.19	111.634
2981.56	87.6991
2980.93	75.7285
2980.31	83.687
2979.68	71.7207
2979.05	83.6613
2978.42	83.6484
2977.8	71.6876
2977.17	39.8203
2976.54	67.6842
2975.91	63.6929
2975.28	83.5841
2974.66	95.51
2974.03	91.5163
2973.4	91.5023
2972.77	87.5104
2972.14	67.6113
2971.51	83.507
2970.88	83.4941
2970.26	111.308
2969.63	95.3925
2969	83.4556
2968.37	119.204
2967.74	67.5385
2967.11	123.139
2966.48	99.2907
2965.85	79.4204
2965.22	83.3785
2964.59	59.5469
2963.96	91.2912
2963.33	91.2772
2962.7	134.911
2962.07	75.3797
2961.44	142.803
2960.81	79.3226
2960.18	118.966
2959.55	107.052
2958.92	91.1788
2958.29	91.1648
2957.66	107.003
2957.03	91.1367
2956.4	106.97
2955.76	138.644
2955.13	126.74
2954.5	91.0805
2953.87	91.0665
2953.24	102.929
2952.61	102.913
2951.98	154.346
2951.34	126.623
2950.71	130.56
2950.08	106.805
2949.45	142.385
2948.82	114.681
2948.18	138.387
2947.55	134.413
2946.92	134.392
2946.29	118.563
2945.65	150.156
2945.02	146.182
2944.39	126.409
2943.76	157.986
2943.12	118.471
2942.49	165.834
2941.86	157.913
2941.22	173.678
2940.59	169.704
2939.96	185.462
2939.32	165.707
2938.69	209.074
2938.05	228.762
2937.42	177.461
2936.79	216.863
2936.15	228.656
2935.52	240.446
2934.88	224.645
2934.25	173.383
2933.61	232.455
2932.98	204.844
2932.34	256.016
2931.71	228.41
2931.08	287.437
2930.44	248.023
2929.81	251.921
2929.17	279.432
2928.53	295.129
2927.9	275.411
2927.26	322.575
2926.63	259.593
2925.99	279.217
2925.36	306.698
2924.72	259.473
2924.08	298.741
2923.45	259.393
2922.81	326.156
2922.18	318.248
2921.54	286.771
2920.9	294.583
2920.27	290.61
2919.63	286.639
2918.99	263.039
2918.36	255.147
2917.72	235.484
2917.08	298.234
2916.44	309.958
2915.81	266.758
2915.17	247.106
2914.53	313.736
2913.9	282.319
2913.26	329.321
2912.62	317.511
2911.98	333.139
2911.34	301.738
2910.71	274.265
2910.07	356.489
2909.43	317.265
2908.79	360.295
2908.15	278.011
2907.51	348.438
2906.88	340.556
2906.24	375.727
2905.6	328.711
2904.96	395.174
2904.32	363.817
2903.68	320.735
2903.04	402.813
2902.4	387.109
2901.76	371.411
2901.12	406.535
2900.48	465.097
2899.84	394.685
2899.2	437.603
2898.56	453.162
2897.92	421.844
2897.28	480.359
2896.64	413.904
2896	452.881
2895.36	480.136
2894.72	468.353
2894.08	444.866
2893.44	444.797
2892.8	475.938
2892.16	518.77
2891.52	464.09
2890.88	503.012
2890.24	495.136
2889.59	475.569
2888.95	533.958
2888.31	459.834
2887.67	541.585
2887.03	553.188
2886.39	514.152
2885.74	568.595
2885.1	533.462
2884.46	591.779
2883.82	626.721
2883.18	618.84
2882.53	595.395
2881.89	747.046
2881.25	762.492
2880.6	820.718
2879.96	875.038
2879.32	863.237
2878.68	886.43
2878.03	897.955
2877.39	882.269
2876.75	730.576
2876.1	749.89
2875.46	714.81
2874.82	605.941
2874.17	551.476
2873.53	594.104
2872.88	500.834
2872.24	473.583
2871.6	454.103
2870.95	469.556
2870.31	422.922
2869.66	461.651
2869.02	426.67
2868.37	523.559
2867.73	504.09
2867.08	430.348
2866.44	472.922
2865.79	453.47
2865.15	461.15
2864.5	453.329
2863.86	445.511
2863.21	480.302
2862.57	472.482
2861.92	495.642
2861.28	441.363
2860.63	503.23
2859.98	507.022
2859.34	464.376
2858.69	502.996
2858.05	529.998
2857.4	541.52
2856.75	576.242
2856.11	560.685
2855.46	564.464
2854.81	614.629
2854.17	595.209
2853.52	606.71
2852.87	625.935
2852.23	629.7
2851.58	594.839
2850.93	621.781
2850.28	706.635
2849.64	741.272
2848.99	783.619
2848.34	791.217
2847.69	837.402
2847.05	779.396
2846.4	837.141
2845.75	810.011
2845.1	779.032
2844.45	782.767
2843.8	848.187
2843.16	817.217
2842.51	820.944
2841.86	778.427
2841.21	797.571
2840.56	708.842
2839.91	650.954
2839.26	577.68
2838.61	589.142
2837.96	462.001
2837.31	477.326
2836.66	477.252
2836.01	438.696
2835.36	423.237
2834.72	388.548
2834.07	334.638
2833.42	338.432
2832.76	280.701
2832.11	326.793
2831.46	272.925
2830.81	261.353
2830.16	215.198
2829.51	257.429
2828.86	195.923
2828.21	215.098
2827.56	218.905
2826.91	180.472
2826.26	195.801
2825.61	207.286
2824.96	195.74
2824.3	176.522
2823.65	180.332
2823	168.795
2822.35	172.604
2821.7	184.083
2821.04	187.888
2820.39	207.028
2819.74	180.163
2819.09	130.311
2818.44	149.451
2817.78	168.585
2817.13	183.882
2816.48	191.514
2815.83	179.995
2815.17	156.992
2814.52	141.654
2813.87	172.255
2813.21	103.337
2812.56	145.415
2811.91	176.001
2811.25	130.067
2810.6	156.821
2809.95	141.5
2809.29	168.244
2808.64	141.455
2807.98	145.256
2807.33	210.206
2806.68	152.853
2806.02	141.367
2805.37	126.065
2804.71	141.323
2804.06	118.387
2803.4	160.371
2802.75	133.622
2802.09	152.687
2801.44	125.947
2800.78	156.455
2800.13	137.354
2799.47	114.444
2798.82	179.267
2798.16	122.035
2797.51	163.959
2796.85	114.372
2796.19	144.849
2795.54	167.693
2794.88	125.75
2794.23	140.971
2793.57	106.664
2792.91	110.456
2792.26	137.097
2791.6	114.229
2790.94	144.668
2790.29	133.226
2789.63	163.652
2788.97	152.211
2788.32	148.382
2787.66	110.318
2787	129.319
2786.34	155.919
2785.69	148.29
2785.03	144.465
2784.37	167.249
2783.71	140.619
2783.06	148.197
2782.4	182.368
2781.74	132.956
2781.08	163.32
2780.42	151.902
2779.76	136.69
2779.11	167.04
2778.45	140.444
2777.79	155.602
2777.13	144.194
2776.47	151.76
2775.81	159.323
2775.15	125.163
2774.49	151.689
2773.83	159.248
2773.17	189.551
2772.51	166.779
2771.86	128.855
2771.2	113.677
2770.54	136.392
2769.88	136.37
2769.22	147.711
2768.56	128.754
2767.9	155.238
2767.23	143.856
2766.57	174.115
2765.91	151.38
2765.25	128.653
2764.59	132.416
2763.93	170.223
2763.27	158.85
2762.61	136.136
2761.95	158.8
2761.29	181.458
2760.63	151.191
2759.96	120.934
2759.3	162.48
2758.64	177.566
2757.98	135.987
2757.32	147.296
2756.65	169.93
2755.99	158.577
2755.33	184.977
2754.67	181.174
2754.01	188.693
2753.34	124.518
2752.68	192.407
2752.02	139.567
2751.35	132.003
2750.69	177.233
2750.03	150.813
2749.37	158.329
2748.7	150.766
2748.04	143.205
2747.38	146.95
2746.71	154.462
2746.05	158.205
2745.38	188.309
2744.72	165.686
2744.06	161.895
2743.39	158.106
2742.73	191.955
2742.06	165.583
2741.4	199.42
2740.73	176.817
2740.07	180.551
2739.41	184.283
2738.74	131.61
2738.08	195.505
2737.41	218.029
2736.75	180.409
2736.08	157.833
2735.41	180.353
2734.75	187.838
2734.08	195.321
2733.42	214.068
2732.75	180.239
2732.09	165.194
2731.42	210.213
2730.75	187.661
2730.09	210.147
2729.42	236.379
2728.76	225.087
2728.09	213.799
2727.42	217.516
2726.76	176.235
2726.09	224.946
2725.42	198.671
2724.75	239.867
2724.09	266.061
2723.42	269.766
2722.75	187.308
2722.09	220.989
2721.42	224.699
2720.75	209.686
2720.08	205.91
2719.41	243.309
2718.75	235.786
2718.08	224.523
2717.41	183.332
2716.74	220.711
2716.07	250.599
2715.41	250.56
2714.74	235.564
2714.07	224.311
2713.4	175.683
2712.73	209.292
2712.06	224.206
2711.39	205.49
2710.72	235.342
2710.05	216.63
2709.38	201.658
2708.71	205.361
2708.04	164.263
2707.37	212.761
2706.7	220.192
2706.03	179.111
2705.36	179.083
2704.69	220.088
2704.02	193.946
2703.35	193.915
2702.68	238.627
2702.01	160.302
2701.34	160.277
2700.67	204.974
2700	231.025
2699.33	201.183
2698.66	204.877
2697.99	160.151
2697.32	189.917
2696.64	167.547
2695.97	189.857
2695.3	197.272
2694.63	219.57
2693.96	226.977
2693.29	186.017
2692.61	182.268
2691.94	208.274
2691.27	219.397
2690.6	171.028
2689.92	200.741
2689.25	185.842
2688.58	189.529
2687.91	211.793
2687.23	222.905
2686.56	178.296
2685.89	196.837
2685.21	178.24
2684.54	237.616
2683.87	207.881
2683.19	193.002
2682.52	207.816
2681.85	200.362
2681.17	170.652
2680.5	196.59
2679.82	178.015
2679.15	189.112
2678.48	203.912
2677.8	211.293
2677.13	207.554
2676.45	188.992
2675.78	177.847
2675.1	185.228
2674.43	177.791
2673.75	170.356
2673.08	196.249
2672.4	214.73
2671.73	222.099
2671.05	170.249
2670.37	192.425
2669.7	181.295
2669.02	203.462
2668.35	214.527
2667.67	184.908
2667	207.064
2666.32	218.122
2665.64	203.302
2664.97	192.183
2664.29	181.067
2663.61	217.985
2662.94	184.704
2662.26	240.077
2661.58	166.181
2660.91	214.155
2660.23	188.279
2659.55	184.558
2658.87	195.601
2658.2	225.09
2657.52	202.918
2656.84	191.819
2656.16	224.983
2655.49	151.194
2654.81	184.354
2654.13	210.131
2653.45	199.04
2652.77	210.064
2652.09	187.923
2651.42	224.735
2650.74	198.914
2650.06	187.834
2649.38	198.851
2648.7	191.456
2648.02	209.832
2647.34	195.076
2646.66	198.726
2645.98	172.938
2645.3	202.342
2644.62	239.094
2643.94	253.767
2643.26	202.246
2642.58	231.627
2641.9	194.83
2641.22	161.72
2640.54	172.719
2639.86	194.738
2639.18	191.033
2638.5	216.715
2637.82	235.044
2637.14	198.287
2636.46	209.27
2635.78	227.591
2635.1	205.533
2634.42	187.152
2633.73	209.137
2633.05	190.762
2632.37	194.399
2631.69	172.365
2631.01	201.672
2630.33	175.976
2629.64	197.942
2628.96	179.586
2628.28	168.564
2627.6	212.504
2626.91	223.46
2626.23	219.762
2625.55	205.079
2624.87	172.092
2624.18	190.37
2623.5	204.981
2622.82	175.671
2622.13	197.598
2621.45	197.567
2620.77	193.877
2620.08	219.449
2619.4	255.984
2618.72	237.661
2618.03	241.28
2617.35	270.483
2616.67	215.621
2615.98	204.625
2615.3	204.592
2614.61	215.519
2613.93	252.007
2613.24	219.102
2612.56	233.672
2611.87	211.732
2611.19	193.448
2610.5	186.119
2609.82	207.982
2609.13	226.191
2608.45	218.859
2607.76	211.531
2607.08	175.032
2606.39	204.172
2605.71	174.977
2605.02	196.817
2604.33	251.449
2603.65	251.409
2602.96	189.438
2602.27	233.117
2601.59	269.499
2600.9	233.043
2600.21	229.366
2599.53	247.53
2598.84	214.735
2598.15	236.535
2597.47	207.39
2596.78	200.081
2596.09	189.138
2595.41	214.565
2594.72	225.439
2594.03	185.412
2593.34	192.653
2592.65	196.257
2591.97	192.592
2591.28	225.26
2590.59	178
2589.9	217.925
2589.21	210.627
2588.52	236.01
2587.84	192.409
2587.15	221.416
2586.46	217.752
2585.77	228.603
2585.08	221.311
2584.39	221.276
2583.7	210.36
2583.01	206.7
2582.32	228.422
2581.63	224.76
2580.94	250.097
2580.25	239.185
2579.56	210.16
2578.87	217.372
2578.18	217.338
2577.49	228.168
2576.8	199.163
2576.11	206.372
2575.42	235.299
2574.73	231.643
2574.04	217.131
2573.35	235.187
2572.66	235.15
2571.97	235.113
2571.28	231.459
2570.58	224.19
2569.89	263.924
2569.2	216.889
2568.51	224.083
2567.82	260.184
2567.13	198.72
2566.43	191.464
2565.74	205.881
2565.05	184.18
2564.36	184.151
2563.66	241.885
2562.97	234.627
2562.28	238.199
2561.59	245.378
2560.89	223.692
2560.2	230.871
2559.51	245.261
2558.81	187.523
2558.12	212.733
2557.43	248.749
2556.73	234.292
2556.04	245.066
2555.35	158.547
2554.65	201.755
2553.96	230.541
2553.26	212.496
2552.57	205.26
2551.88	201.627
2551.18	215.994
2550.49	230.357
2549.79	237.518
2549.1	208.695
2548.4	205.064
2547.71	201.434
2547.01	226.578
2546.32	240.925
2545.62	240.887
2544.93	230.064
2544.23	240.81
2543.53	280.302
2542.84	233.547
2542.14	233.51
2541.45	244.249
2540.75	204.705
2540.05	262.125
2539.36	254.903
2538.66	208.197
2537.97	222.52
2537.27	218.896
2536.57	251.152
2535.88	251.112
2535.18	229.552
2534.48	233.102
2533.78	250.992
2533.09	233.027
2532.39	236.575
2531.69	275.96
2530.99	290.249
2530.3	222.13
2529.6	222.095
2528.9	236.386
2528.2	257.835
2527.5	243.472
2526.81	239.853
2526.11	268.449
2525.41	271.985
2524.71	275.52
2524.01	289.787
2523.31	264.701
2522.61	271.812
2521.91	275.344
2521.21	307.479
2520.52	278.831
2519.82	257.342
2519.12	268.022
2518.42	250.114
2517.72	228.639
2517.02	260.749
2516.32	239.28
2515.62	239.242
2514.92	246.344
2514.22	303.419
2513.52	278.387
2512.82	239.089
2512.11	278.298
2511.41	242.58
2510.71	235.408
2510.01	228.238
2509.31	224.636
2508.61	270.946
2507.91	263.774
2507.21	256.604
2506.5	245.872
2505.8	256.522
2505.1	256.481
2504.4	245.755
2503.7	256.399
2503	263.479
2502.29	227.837
2501.59	202.885
2500.89	242
2500.19	252.636
2499.48	259.711
2498.78	245.441
2498.08	266.741
2497.37	224.027
2496.67	255.989
2495.97	298.607
2495.26	255.908
2494.56	280.743
2493.86	287.804
2493.15	223.812
2492.45	245.088
2491.75	234.395
2491.04	245.01
2490.34	273.373
2489.63	248.481
2488.93	237.794
2488.22	255.499
2487.52	301.582
2486.81	287.344
2486.11	319.22
2485.41	248.243
2484.7	265.932
2483.99	248.163
2483.29	258.758
2482.58	237.452
2481.88	251.588
2481.17	226.747
2480.47	283.388
2479.76	301.052
2479.06	293.921
2478.35	254.927
2477.64	286.747
2476.94	269.004
2476.23	279.578
2475.52	311.378
2474.82	268.875
2474.11	272.369
2473.4	254.642
2472.7	247.529
2471.99	279.309
2471.28	261.589
2470.57	254.479
2469.87	296.844
2469.16	317.996
2468.45	264.955
2467.74	218.994
2467.04	275.465
2466.33	243.641
2465.62	275.376
2464.91	261.213
2464.2	247.053
2463.5	264.658
2462.79	278.728
2462.08	204.603
2461.37	246.895
2460.66	250.382
2459.95	257.394
2459.24	289.081
2458.53	296.084
2457.82	285.464
2457.11	264.276
2456.4	285.373
2455.69	288.849
2454.99	299.369
2454.28	267.628
2453.57	288.71
2452.85	281.624
2452.14	246.381
2451.43	299.129
2450.72	274.451
2450.01	274.407
2449.3	277.88
2448.59	260.251
2447.88	267.242
2447.17	302.357
2446.46	267.156
2445.75	274.143
2445.04	267.071
2444.32	238.92
2443.61	270.498
2442.9	298.554
2442.19	263.387
2441.48	284.413
2440.76	312.453
2440.05	315.913
2439.34	315.862
2438.63	280.721
2437.92	312.252
2437.2	287.647
2436.49	270.064
2435.78	291.061
2435.06	269.977
2434.35	238.383
2433.64	290.921
2432.92	308.397
2432.21	329.371
2431.5	311.801
2430.78	280.226
2430.07	343.221
2429.36	325.658
2428.64	318.603
2427.93	252.041
2427.21	266.001
2426.5	286.955
2425.78	304.403
2425.07	293.859
2424.35	290.314
2423.64	265.787
2422.92	321.691
2422.21	304.158
2421.49	314.596
2420.78	300.566
2420.06	338.956
2419.35	262.037
2418.63	331.86
2417.92	338.792
2417.2	282.863
2416.48	289.801
2415.77	310.701
2415.05	293.198
2414.34	286.171
2413.62	258.211
2412.9	338.411
2412.19	334.868
2411.47	285.987
2410.75	303.377
2410.04	310.301
2409.32	327.681
2408.6	296.26
2407.88	282.272
2407.17	247.384
2406.45	323.986
2405.73	313.485
2405.01	275.126
2404.29	327.312
2403.58	341.185
2402.86	278.474
2402.14	278.429
2401.42	337.541
2400.7	316.611
2399.98	302.645
2399.27	306.074
2398.55	278.205
2397.83	302.499
2397.11	239.874
2396.39	326.733
2395.67	323.205
2394.95	295.355
2394.23	340.472
2393.51	298.733
2392.79	281.32
2392.07	302.109
2391.35	350.668
2390.63	315.898
2389.91	305.434
2389.19	291.504
2388.47	308.805
2387.75	322.632
2387.03	298.3
2386.31	287.848
2385.59	332.879
2384.87	318.957
2384.14	332.771
2383.42	325.786
2382.7	315.338
2381.98	353.399
2381.26	363.734
2380.54	301.331
2379.82	328.987
2379.09	325.471
2378.37	304.647
2377.65	290.753
2376.93	308.01
2376.2	335.642
2375.48	318.289
2374.76	321.697
2374.04	352.772
2373.31	325.051
2372.59	321.541
2371.87	362.972
2371.14	290.331
2370.42	331.753
2369.7	321.334
2368.97	317.827
2368.25	369.587
2367.52	366.074
2366.8	338.391
2366.08	355.599
2365.35	355.541
2364.63	324.422
2363.9	300.215
2363.18	345.018
2362.45	331.164
2361.73	320.764
2361	324.16
2360.28	320.66
2359.55	324.056
2358.83	358.472
2358.1	330.843
2357.38	313.561
2356.65	341.072
2355.93	310.015
2355.2	320.297
2354.47	334.02
2353.75	323.637
2353.02	364.893
2352.3	340.741
2351.57	313.156
2350.84	361.276
2350.12	357.777
2349.39	319.884
2348.66	292.319
2347.94	340.411
2347.21	309.415
2346.48	364.363
2345.75	329.935
2345.03	360.809
2344.3	329.829
2343.57	346.951
2342.84	322.853
2342.11	360.575
2341.39	329.615
2340.66	346.727
2339.93	305.482
2339.2	315.728
2338.47	370.577
2337.74	284.749
2337.02	380.748
2336.29	384.116
2335.56	325.76
2334.83	332.564
2334.1	329.082
2333.37	339.311
2332.64	356.39
2331.91	294.66
2331.18	356.275
2330.45	376.768
2329.72	383.557
2328.99	352.678
2328.26	335.503
2327.53	362.833
2326.8	349.084
2326.07	349.028
2325.34	348.971
2324.61	352.335
2323.88	352.278
2323.14	365.9
2322.41	365.84
2321.68	341.852
2320.95	334.96
2320.22	362.245
2319.49	375.854
2318.76	382.626
2318.02	382.564
2317.29	423.484
2316.56	355.123
2315.83	392.62
2315.1	368.662
2314.36	385.667
2313.63	341.243
2312.9	371.894
2312.16	368.423
2311.43	392.238
2310.7	388.764
2309.97	378.472
2309.23	402.275
2308.5	391.984
2307.76	296.496
2307.03	385.042
2306.3	316.841
2305.56	350.853
2304.83	354.202
2304.1	384.792
2303.36	374.515
2302.63	350.626
2301.89	360.78
2301.16	330.094
2300.42	374.272
2299.69	374.212
2298.95	380.954
2298.22	384.293
2297.48	333.226
2296.75	360.37
2296.01	346.715
2295.28	404.435
2294.54	394.175
2293.8	380.521
2293.07	421.223
2292.33	407.569
2291.6	376.94
2290.86	393.855
2290.12	366.633
2289.39	369.968
2288.65	397.057
2287.91	417.351
2287.18	373.18
2286.44	393.471
2285.7	403.582
2284.97	369.607
2284.23	423.792
2283.49	396.605
2282.75	376.205
2282.01	440.529
2281.28	355.754
2280.54	338.759
2279.8	375.961
2279.06	409.765
2278.32	423.242
2277.59	419.788
2276.85	406.18
2276.11	409.498
2275.37	395.897
2274.63	443.197
2273.89	426.212
2273.15	351.736
2272.41	392.258
2271.67	385.432
2270.93	395.51
2270.19	378.547
2269.45	408.899
2268.71	439.242
2267.97	442.548
2267.23	401.944
2266.49	388.37
2265.75	428.826
2265.01	425.38
2264.27	408.434
2263.53	401.617
2262.79	475.788
2262.05	384.617
2261.31	458.767
2260.57	404.728
2259.83	461.99
2259.09	451.8
2258.34	418.015
2257.6	394.353
2256.86	390.919
2256.12	387.486
2255.38	434.587
2254.63	437.885
2253.89	447.917
2253.15	434.375
2252.41	478.071
2251.66	430.867
2250.92	407.238
2250.18	410.537
2249.43	407.105
2248.69	420.495
2247.95	393.519
2247.21	433.809
2246.46	410.202
2245.72	363.071
2244.97	436.958
2244.23	440.248
2243.49	413.295
2242.74	413.228
2242	406.442
2241.25	443.319
2240.51	436.531
2239.76	423.03
2239.02	396.107
2238.27	382.617
2237.53	449.669
2236.78	452.951
2236.04	415.976
2235.29	429.325
2234.55	449.376
2233.8	442.596
2233.06	499.516
2232.31	425.693
2231.57	372.001
2230.82	432.255
2230.07	412.083
2229.33	388.568
2228.58	395.203
2227.83	415.23
2227.09	445.295
2226.34	391.662
2225.59	428.415
2224.85	461.809
2224.1	394.816
2223.35	458.313
2222.6	454.893
2221.86	441.442
2221.11	414.62
2220.36	451.327
2219.61	444.568
2218.87	411.075
2218.12	380.934
2217.37	427.646
2216.62	407.533
2215.87	460.905
2215.12	457.49
2214.37	393.978
2213.63	430.635
2212.88	423.889
2212.13	363.751
2211.38	427.087
2210.63	473.722
2209.88	446.96
2209.13	436.882
2208.38	416.804
2207.63	416.736
2206.88	436.668
2206.13	416.6
2205.38	383.209
2204.63	503.088
2203.88	446.376
2203.13	456.295
2202.38	479.531
2201.63	416.191
2200.88	396.149
2200.12	452.668
2199.37	425.971
2198.62	435.883
2197.87	479.06
2197.12	442.393
2196.37	458.949
2195.62	508.752
2194.86	438.851
2194.11	402.214
2193.36	488.561
2192.61	475.189
2191.85	461.821
2191.1	458.424
2190.35	471.634
2189.6	511.407
2188.84	484.761
2188.09	431.566
2187.34	461.368
2186.58	484.523
2185.83	461.217
2185.08	497.634
2184.32	494.236
2183.57	524.003
2182.82	513.969
2182.06	467.47
2181.31	470.708
2180.55	430.859
2179.8	483.809
2179.04	493.669
2178.29	530.028
2177.53	460.386
2176.78	476.869
2176.02	466.857
2175.27	480.023
2174.51	453.464
2173.76	486.484
2173	519.493
2172.25	446.625
2171.49	482.937
2170.74	466.322
2169.98	482.779
2169.22	489.312
2168.47	479.315
2167.71	436.27
2166.95	498.985
2166.2	472.471
2165.44	492.214
2164.68	475.619
2163.93	508.565
2163.17	455.652
2162.41	511.699
2161.65	455.502
2160.9	514.831
2160.14	478.451
2159.38	435.484
2158.62	494.786
2157.87	514.493
2157.11	468.244
2156.35	431.901
2155.59	487.869
2154.83	570.185
2154.07	494.299
2153.31	530.461
2152.56	471.077
2151.8	543.461
2151.04	490.682
2150.28	480.723
2149.52	457.6
2148.76	503.606
2148	487.068
2147.24	536.345
2146.48	486.908
2145.72	490.118
2144.96	490.037
2144.2	457.074
2143.44	456.998
2142.68	443.774
2141.92	473.282
2141.16	506.065
2140.4	466.555
2139.64	496.044
2138.87	505.816
2138.11	492.597
2137.35	515.5
2136.59	476.02
2135.83	485.789
2135.07	456.173
2134.31	528.286
2133.54	564.287
2132.78	495.31
2132.02	521.466
2131.26	524.659
2130.49	459.001
2129.73	544.155
2128.97	485.07
2128.21	491.545
2127.44	514.399
2126.68	533.969
2125.92	507.679
2125.15	458.473
2124.39	487.866
2123.63	491.059
2122.86	474.613
2122.1	487.625
2121.33	500.633
2120.57	500.551
2119.81	516.824
2119.04	520.009
2118.28	510.114
2117.51	523.107
2116.75	558.979
2115.98	493.52
2115.22	565.33
2114.45	542.366
2113.69	565.144
2112.92	502.993
2112.16	519.239
2111.39	512.623
2110.62	532.126
2109.86	499.398
2109.09	548.268
2108.33	522.074
2107.56	531.775
2106.79	554.521
2106.03	587.043
2105.26	560.86
2104.49	521.644
2103.73	541.117
2102.96	527.991
2102.19	563.749
2101.42	553.882
2100.66	537.502
2099.89	517.871
2099.12	521.042
2098.35	517.701
2097.59	543.659
2096.82	533.804
2096.05	494.664
2095.28	543.39
2094.51	566.073
2093.74	559.474
2092.98	559.382
2092.21	578.8
2091.44	568.951
2090.67	516.847
2089.9	559.013
2089.13	565.42
2088.36	571.824
2087.59	558.736
2086.82	503.429
2086.05	545.562
2085.28	626.643
2084.51	561.614
2083.74	616.699
2082.97	567.919
2082.2	499.686
2081.43	551.51
2080.66	577.368
2079.89	492.952
2079.12	518.811
2078.35	534.936
2077.57	551.055
2076.8	573.651
2076.03	560.594
2075.26	521.623
2074.49	553.93
2073.72	537.645
2072.94	560.224
2072.17	595.747
2071.4	624.783
2070.63	550.236
2069.86	524.256
2069.08	491.813
2068.31	549.963
2067.54	553.107
2066.76	582.122
2065.99	546.457
2065.22	546.367
2064.44	568.903
2063.67	594.664
2062.9	591.334
2062.12	533.082
2061.35	549.145
2060.58	610.419
2059.8	574.797
2059.03	565.016
2058.25	542.326
2057.48	580.967
2056.7	606.688
2055.93	613.04
2055.15	548.419
2054.38	567.681
2053.6	615.961
2052.83	590.064
2052.05	570.623
2051.28	551.189
2050.5	602.662
2049.72	599.34
2048.95	628.236
2048.17	547.603
2047.4	553.953
2046.62	518.44
2045.84	563.429
2045.07	579.431
2044.29	582.553
2043.51	598.547
2042.74	598.448
2041.96	601.565
2041.18	665.794
2040.4	578.855
2039.63	617.343
2038.85	626.885
2038.07	546.425
2037.29	527.052
2036.52	578.376
2035.74	597.556
2034.96	616.73
2034.18	606.992
2033.4	597.259
2032.62	568.265
2031.84	587.431
2031.07	584.124
2030.29	603.281
2029.51	660.932
2028.73	619.12
2027.95	583.736
2027.17	541.951
2026.39	622.018
2025.61	660.384
2024.83	615.402
2024.05	615.299
2023.27	576.748
2022.49	589.466
2021.71	576.556
2020.93	618.094
2020.15	634.001
2019.37	573.068
2018.59	617.786
2017.8	601.681
2017.02	623.981
2016.24	614.279
2015.46	652.563
2014.68	678.041
2013.9	645.951
2013.11	649.041
2012.33	655.327
2011.55	703.161
2010.77	642.327
2009.99	655
2009.2	658.086
2008.42	619.648
2007.64	641.9
2006.85	606.67
2006.07	628.917
2005.29	660.732
2004.5	657.431
2003.72	654.131
2002.94	657.212
2002.15	596.496
2001.37	615.533
2000.59	640.941
1999.8	691.846
1999.02	733.171
1998.23	713.926
1997.45	675.568
1996.66	614.92
1995.88	656.23
1995.09	621.085
1994.31	659.196
1993.52	665.455
1992.74	643.06
1991.95	627.038
1991.17	652.393
1990.38	649.103
1989.6	601.274
1988.81	648.887
1988.02	648.779
1987.24	604.154
1986.45	648.563
1985.67	699.314
1984.88	670.594
1984.09	648.239
1983.3	654.486
1982.52	667.083
1981.73	673.324
1980.94	689.09
1980.16	619.125
1979.37	698.384
1978.58	672.876
1977.79	714.018
1977.01	659.96
1976.22	634.472
1975.43	650.225
1974.64	694.515
1973.85	678.546
1973.06	653.071
1972.27	732.205
1971.49	671.868
1970.7	662.25
1969.91	728.671
1969.12	665.197
1968.33	753.765
1967.54	680.808
1966.75	731.351
1965.96	655.258
1965.17	702.623
1964.38	734.15
1963.59	711.88
1962.8	711.762
1962.01	762.249
1961.22	679.901
1960.43	686.112
1959.64	711.287
1958.85	730.133
1958.06	742.652
1957.26	688.814
1956.47	726.609
1955.68	735.964
1954.89	732.683
1954.1	751.506
1953.31	707.182
1952.51	710.221
1951.72	760.598
1950.93	820.425
1950.14	681.471
1949.34	731.828
1948.55	712.782
1947.76	753.657
1946.97	699.933
1946.17	759.71
1945.38	740.673
1944.59	737.398
1943.79	727.822
1943	730.851
1942.21	714.981
1941.41	730.607
1940.62	717.891
1939.82	711.474
1939.03	739.684
1938.24	726.972
1937.44	739.437
1936.65	758.19
1935.85	720.317
1935.06	751.646
1934.26	751.521
1933.47	779.69
1932.67	707.262
1931.88	741.716
1931.08	729.022
1930.28	754.035
1929.49	779.039
1928.69	728.657
1927.9	753.657
1927.1	775.509
1926.3	743.988
1925.51	828.607
1924.71	822.192
1923.91	793.816
1923.12	743.49
1922.32	784.141
1921.52	768.33
1920.73	724.304
1919.93	805.693
1919.13	799.289
1918.33	777.218
1917.53	802.155
1916.74	758.161
1915.94	742.372
1915.14	782.962
1914.34	764.043
1913.54	829.662
1912.74	779.438
1911.95	826.254
1911.15	776.048
1910.35	750.889
1909.55	816.455
1908.75	825.701
1907.95	778.656
1907.15	831.678
1906.35	759.639
1905.55	778.265
1904.75	796.885
1903.95	771.755
1903.15	749.758
1902.35	837.09
1901.55	821.335
1900.75	777.483
1899.95	889.742
1899.15	845.893
1898.35	764.609
1897.54	761.361
1896.74	836.109
1895.94	820.372
1895.14	854.541
1894.34	816.979
1893.54	841.784
1892.73	816.705
1891.93	794.752
1891.13	800.851
1890.33	909.764
1889.53	850.424
1888.72	875.198
1887.92	794.086
1887.12	797.066
1886.31	800.046
1885.51	812.361
1884.71	790.441
1883.9	821.423
1883.1	911.503
1882.3	821.148
1881.49	867.658
1880.69	811.544
1879.88	876.694
1879.08	861.005
1878.28	798.705
1877.47	848.287
1876.67	888.533
1875.86	823.153
1875.06	894.446
1874.25	903.611
1873.45	875.518
1872.64	850.537
1871.84	872.12
1871.03	840.943
1870.22	871.827
1869.42	924.416
1868.61	877.738
1867.81	893.095
1867	837.136
1866.19	895.895
1865.39	839.955
1864.58	796.428
1863.77	848.968
1862.97	827.14
1862.16	857.975
1861.35	901.187
1860.54	931.999
1859.74	891.596
1858.93	931.685
1858.12	866.539
1857.31	878.77
1856.51	915.747
1855.7	859.915
1854.89	909.254
1854.08	862.718
1853.27	970.781
1852.46	837.699
1851.65	908.643
1850.84	920.85
1850.04	874.352
1849.23	877.294
1848.42	861.703
1847.61	858.471
1846.8	842.889
1845.99	935.356
1845.18	876.556
1844.37	830.12
1843.56	904.03
1842.75	971.746
1841.94	906.81
1841.13	946.748
1840.31	934.255
1839.5	832.365
1838.69	878.459
1837.88	933.784
1837.07	918.22
1836.26	914.985
1835.45	893.269
1834.64	933.155
1833.82	954.552
1833.01	963.628
1832.2	855.73
1831.39	840.197
1830.57	898.521
1829.76	1027.59
1828.95	947.436
1828.14	898.067
1827.32	974.793
1826.51	925.436
1825.7	946.798
1824.88	869.801
1824.07	937.26
1823.26	949.392
1822.44	952.304
1821.63	973.643
1820.81	884.423
1820	942.611
1819.19	960.872
1818.37	926.947
1817.56	948.272
1816.74	945.044
1815.93	883.529
1815.11	960.062
1814.3	874.03
1813.48	922.943
1812.67	919.722
1811.85	977.806
1811.03	950.059
1810.22	864.101
1809.4	943.611
1808.59	977.146
1807.77	970.856
1806.95	973.755
1806.14	936.851
1805.32	997.915
1804.5	988.565
1803.69	939.437
1802.87	972.933
1802.05	991.123
1801.24	963.429
1800.42	984.673
1799.6	905.012
1798.78	975.169
1797.96	913.876
1797.15	968.728
1796.33	999.119
1795.51	919.523
1794.69	959.074
1793.87	961.966
1793.05	986.231
1792.23	1010.49
1791.42	952.322
1790.6	979.627
1789.78	1006.92
1788.96	967.093
1788.14	951.679
1787.32	942.369
1786.5	1042.83
1785.68	999.975
1784.86	923.602
1784.04	1011.83
1783.22	996.421
1782.4	981.02
1781.58	1014.36
1780.76	1017.24
1779.93	977.477
1779.11	989.49
1778.29	1028.9
1777.47	1059.16
1776.65	1010.29
1775.83	1040.54
1775.01	1073.83
1774.18	939.823
1773.36	973.114
1772.54	1012.48
1771.72	1051.82
1770.89	1079
1770.07	1018.04
1769.25	1011.79
1768.43	975.165
1767.6	1011.45
1766.78	1005.2
1765.96	1096.12
1765.13	1017.01
1764.31	992.552
1763.49	1047.01
1762.66	1095.38
1761.84	1086.1
1761.01	1073.78
1760.19	1055.4
1759.36	1058.25
1758.54	1012.6
1757.72	1027.58
1756.89	1024.38
1756.07	1051.48
1755.24	1039.18
1754.41	1099.59
1753.59	1072.14
1752.76	1102.24
1751.94	1050.59
1751.11	1053.43
1750.29	1026.02
1749.46	1080.31
1748.63	1058.95
1747.81	1049.7
1746.98	967.855
1746.15	1088.65
1745.33	1058.23
1744.5	1061.08
1743.67	1118.32
1742.85	1087.91
1742.02	1102.84
1741.19	1123.8
1740.36	1105.48
1739.54	1026.78
1738.71	1014.53
1737.88	1107.94
1737.05	1089.64
1736.22	1056.26
1735.39	980.647
1734.57	1070.99
1733.74	1131.13
1732.91	1043.48
1732.08	1133.76
1731.25	1079.3
1730.42	1181.61
1729.59	1109.08
1728.76	1057.66
1727.93	1006.26
1727.1	1081.4
1726.27	1087.24
1725.44	1047.91
1724.61	1207.3
1723.78	1155.92
1722.95	1092.52
1722.12	1047.2
1721.29	1074.1
1720.46	1058.87
1719.62	1124.86
1718.79	1064.53
1717.96	1091.41
1717.13	1058.16
1716.3	1006.88
1715.47	1084.84
1714.63	1078.65
1713.8	1120.52
1712.97	1045.24
1712.14	1090.11
1711.31	1167.99
1710.47	1074.73
1709.64	1143.58
1708.81	1125.38
1707.97	1101.19
1707.14	1137
1706.31	1115.81
1705.47	1112.62
1704.64	1088.44
1703.81	1139.22
1702.97	1013.14
1702.14	1156.82
1701.3	1120.66
1700.47	1120.47
1699.63	1108.3
1698.8	1138.06
1697.96	1143.86
1697.13	1152.64
1696.29	1170.41
1695.46	1173.2
1694.62	1098.19
1693.79	1160.83
1692.95	1142.69
1692.12	1058.75
1691.28	1154.26
1690.44	1151.08
1689.61	1177.78
1688.77	1192.53
1687.93	1147.5
1687.1	1171.21
1686.26	1138.15
1685.42	1137.95
1684.59	1194.5
1683.75	1146.52
1682.91	1152.3
1682.07	1211.8
1681.24	1148.92
1680.4	1226.3
1679.56	1229.08
1678.72	1151.32
1677.88	1186.91
1677.05	1100.24
1676.21	1076.2
1675.37	1055.15
1674.53	1087.75
1673.69	1254.43
1672.85	1164.84
1672.01	1182.51
1671.17	1200.18
1670.33	1128.51
1669.49	1187.86
1668.65	1122.17
1667.81	1190.43
1666.97	1127.74
1666.13	1190.03
1665.29	1157.1
1664.45	1228.28
1663.61	1165.63
1662.77	1239.76
1661.93	1165.23
1661.09	1114.51
1660.25	1245.06
1659.4	1164.63
1658.56	1197.11
1657.72	1208.79
1656.88	1244.21
1656.04	1220.25
1655.19	1231.92
1654.35	1187.19
1653.51	1237.43
1652.67	1189.75
1651.82	1281.5
1650.98	1221.97
1650.14	1212.86
1649.3	1183.01
1648.45	1182.8
1647.61	1200.38
1646.77	1158.69
1645.92	1250.34
1645.08	1217.54
1644.23	1199.56
1643.39	1226.01
1642.54	1219.88
1641.7	1264.08
1640.86	1249.06
1640.01	1245.89
1639.17	1227.92
1638.32	1236.59
1637.48	1233.42
1636.63	1277.57
1635.78	1259.61
1634.94	1241.66
1634.09	1285.78
1633.25	1211.68
1632.4	1220.34
1631.56	1237.85
1630.71	1202.2
1629.86	1246.29
1629.02	1234.26
1628.17	1234.05
1627.32	1275.17
1626.47	1207.07
1625.63	1277.68
1624.78	1250.91
1623.93	1277.24
1623.09	1223.94
1622.24	1315.14
1621.39	1303.12
1620.54	1241
1619.69	1258.47
1618.84	1231.73
1618	1284.55
1617.15	1190.07
1616.3	1281.17
1615.45	1242.67
1614.6	1277.79
1613.75	1265.79
1612.9	1345.04
1612.05	1324.21
1611.2	1265.14
1610.35	1250.22
1609.5	1282.35
1608.65	1332.13
1607.8	1302.5
1606.95	1352.25
1606.1	1337.32
1605.25	1345.91
1604.4	1313.36
1603.55	1319.01
1602.7	1359.9
1601.85	1368.48
1600.99	1429.9
1600.14	1370.94
1599.29	1408.87
1598.44	1461.45
1597.59	1346.77
1596.74	1414.01
1595.88	1363.9
1595.03	1434.05
1594.18	1454.33
1593.32	1421.83
1592.47	1371.76
1591.62	1359.8
1590.77	1391.8
1589.91	1373.98
1589.06	1297.59
1588.21	1276.87
1587.35	1379.13
1586.5	1302.78
1585.64	1276.21
1584.79	1381.35
1583.93	1340.15
1583.08	1372.1
1582.23	1304.59
1581.37	1357
1580.52	1350.92
1579.66	1362.39
1578.81	1306.61
1577.95	1338.54
1577.09	1364.61
1576.24	1335.16
1575.38	1317.4
1574.53	1279.21
1573.67	1305.27
1572.81	1272.93
1571.96	1345.69
1571.1	1322.11
1570.24	1310.21
1569.39	1292.48
1568.53	1306.84
1567.67	1344.53
1566.82	1370.54
1565.96	1346.98
1565.1	1323.43
1564.24	1326.12
1563.39	1314.23
1562.53	1413.07
1561.67	1351.65
1560.81	1380.54
1559.95	1359.92
1559.09	1353.87
1558.23	1344.9
1557.38	1353.4
1556.52	1326.98
1555.66	1352.93
1554.8	1375.97
1553.94	1399.01
1553.08	1392.95
1552.22	1427.6
1551.36	1348.86
1550.5	1310.85
1549.64	1351.31
1548.78	1409.18
1547.92	1342.13
1547.06	1437.74
1546.2	1330.05
1545.34	1361.76
1544.47	1428.29
1543.61	1454.17
1542.75	1384.27
1541.89	1381.13
1541.03	1282.26
1540.17	1383.56
1539.3	1423.92
1538.44	1333.79
1537.58	1385.74
1536.72	1382.6
1535.85	1382.36
1534.99	1361.84
1534.13	1341.33
1533.27	1474.34
1532.4	1381.41
1531.54	1401.44
1530.68	1409.89
1529.81	1345.96
1528.95	1447.02
1528.08	1386.01
1527.22	1403.13
1526.36	1345.03
1525.49	1460.48
1524.63	1335.9
1523.76	1376.14
1522.9	1344.11
1522.03	1314.97
1521.17	1375.43
1520.3	1320.3
1519.44	1415.39
1518.57	1363.16
1517.7	1400.47
1516.84	1319.39
1515.97	1408.64
1515.11	1411.29
1514.24	1491.84
1513.37	1459.85
1512.51	1399.02
1511.64	1390.12
1510.77	1401.42
1509.91	1430.01
1509.04	1403.82
1508.17	1374.75
1507.3	1423.5
1506.44	1374.28
1505.57	1474.86
1504.7	1321.96
1503.83	1451.32
1502.96	1445.31
1502.09	1424.91
1501.23	1427.54
1500.36	1392.76
1499.49	1467.33
1498.62	1438.31
1497.75	1484.08
1496.88	1472.32
1496.01	1446.19
1495.14	1468.93
1494.27	1442.81
1493.4	1419.57
1492.53	1531.38
1491.66	1482.28
1490.79	1473.41
1489.92	1524.84
1489.05	1510.22
1488.18	1515.7
1487.31	1506.83
1486.44	1486.48
1485.56	1580.91
1484.69	1488.84
1483.82	1548.81
1482.95	1433.84
1482.08	1556.88
1481.21	1507.87
1480.33	1499.01
1479.46	1495.89
1478.59	1538.61
1477.72	1601.37
1476.84	1486.52
1475.97	1532.08
1475.1	1474.55
1474.22	1525.83
1473.35	1637.19
1472.48	1625.46
1471.6	1596.56
1470.73	1561.96
1469.85	1590.29
1468.98	1678.67
1468.11	1655.5
1467.23	1723.83
1466.36	1709.24
1465.48	1820.39
1464.61	1857.22
1463.73	1842.62
1462.86	1868
1461.98	1770.58
1461.11	1907.33
1460.23	1921.27
1459.35	1898.11
1458.48	1832.14
1457.6	1906.01
1456.73	1788.71
1455.85	1888.23
1454.97	1856.54
1454.1	1836.26
1453.22	1847.34
1452.34	1838.47
1451.46	1838.15
1450.59	1849.23
1449.71	1883.09
1448.83	1916.95
1447.95	1865.35
1447.08	1859.34
1446.2	1913.1
1445.32	1932.7
1444.44	1955.13
1443.56	1926.33
1442.68	2042.64
1441.81	2013.84
1440.93	2152.85
1440.05	2240.62
1439.17	2280.03
1438.29	2251.21
1437.41	2299.13
1436.53	2170.87
1435.65	2147.76
1434.77	2079.22
1433.89	2024.9
1433.01	1996.15
1432.13	1964.58
1431.25	1913.14
1430.37	1745.37
1429.48	1810.33
1428.6	1764.62
1427.72	1667.87
1426.84	1718.63
1425.96	1664.46
1425.08	1689.68
1424.19	1655.38
1423.31	1626.75
1422.43	1623.63
1421.55	1614.85
1420.67	1611.74
1419.78	1625.62
1418.9	1704.62
1418.02	1775.1
1417.13	1845.56
1416.25	1780.14
1415.37	1779.83
1414.48	1790.84
1413.6	1688.7
1412.71	1592.25
1411.83	1620.25
1410.95	1554.94
1410.06	1486.83
1409.18	1528.96
1408.29	1486.31
1407.41	1469.1
1406.52	1494.27
1405.64	1474.24
1404.75	1451.39
1403.87	1473.73
1402.98	1546.86
1402.1	1501.44
1401.21	1515.28
1400.32	1424.74
1399.44	1435.77
1398.55	1418.6
1397.66	1426.81
1396.78	1477.31
1395.89	1446.05
1395	1493.71
1394.12	1490.63
1393.23	1380.49
1392.34	1509.83
1391.45	1441.97
1390.57	1407.93
1389.68	1458.36
1388.79	1359.59
1387.9	1426.9
1387.01	1378.81
1386.12	1409.52
1385.24	1499.29
1384.35	1476.53
1383.46	1431.28
1382.57	1529.43
1381.68	1461.7
1380.79	1408.05
1379.9	1444.33
1379.01	1472.17
1378.12	1429.78
1377.23	1463.23
1376.34	1482.63
1375.45	1454.3
1374.56	1409.13
1373.67	1363.98
1372.78	1492.82
1371.89	1512.2
1370.99	1579.26
1370.1	1570.57
1369.21	1573.1
1368.32	1527.97
1367.43	1575.36
1366.54	1505.01
1365.64	1490.74
1364.75	1630.56
1363.86	1621.88
1362.97	1554.38
1362.07	1540.1
1361.18	1520.24
1360.29	1427.6
1359.39	1486.12
1358.5	1494.26
1357.61	1480.01
1356.71	1437.79
1355.82	1429.15
1354.93	1479.23
1354.03	1464.99
1353.14	1383.67
1352.24	1422.56
1351.35	1399.96
1350.45	1402.51
1349.56	1371.53
1348.66	1357.33
1347.77	1424.11
1346.87	1423.86
1345.98	1473.86
1345.08	1370.34
1344.18	1403.58
1343.29	1475.87
1342.39	1405.88
1341.5	1425.16
1340.6	1419.33
1339.7	1385.63
1338.81	1438.35
1337.91	1343.34
1337.01	1407.19
1336.11	1359.58
1335.22	1345.42
1334.32	1417.59
1333.42	1328.24
1332.52	1419.88
1331.63	1439.12
1330.73	1477.83
1329.83	1435.83
1328.93	1463.4
1328.03	1452.02
1327.13	1423.95
1326.23	1540.49
1325.33	1429.01
1324.43	1498.26
1323.53	1436.85
1322.64	1503.29
1321.74	1464.13
1320.84	1483.32
1319.94	1471.95
1319.03	1455.03
1318.13	1435.34
1317.23	1523.92
1316.33	1423.74
1315.43	1534.48
1314.53	1437.11
1313.63	1492.34
1312.73	1503.17
1311.83	1583.32
1310.92	1569.18
1310.02	1560.59
1309.12	1538.14
1308.22	1557.27
1307.32	1507.13
1306.41	1664.75
1305.51	1609.07
1304.61	1672.48
1303.71	1508.84
1302.8	1619.3
1301.9	1630.08
1301	1635.33
1300.09	1679.31
1299.19	1684.55
1298.28	1778.28
1297.38	1852.63
1296.48	2081.77
1295.57	2363.34
1294.67	2686.28
1293.76	2771.46
1292.86	2572.06
1291.95	2284.34
1291.05	1908.35
1290.14	1772.71
1289.24	1678.54
1288.33	1587.15
1287.42	1573.07
1286.52	1506.58
1285.61	1398.72
1284.71	1461.91
1283.8	1400.98
1282.89	1420.04
1281.99	1406.01
1281.08	1400.25
1280.17	1388.98
1279.26	1380.47
1278.36	1394
1277.45	1379.98
1276.54	1305.38
1275.63	1431.81
1274.72	1406.78
1273.82	1365.25
1272.91	1403.54
1272	1351.01
1271.09	1392.04
1270.18	1328.53
1269.27	1342.05
1268.36	1328.06
1267.45	1327.83
1266.54	1322.1
1265.64	1415.3
1264.73	1420.55
1263.82	1398.32
1262.91	1444.77
1261.99	1425.29
1261.08	1353.65
1260.17	1367.14
1259.26	1375.13
1258.35	1399.59
1257.44	1355.44
1256.53	1344.23
1255.62	1294.62
1254.71	1335.53
1253.79	1277.72
1252.88	1406.34
1251.97	1271.78
1251.06	1342.81
1250.15	1350.8
1249.23	1303.99
1248.32	1279.11
1247.41	1380.21
1246.49	1308.77
1245.58	1245.58
1244.67	1382.21
1243.75	1362.81
1242.84	1357.1
1241.93	1356.86
1241.01	1359.36
1240.1	1257.94
1239.18	1342.47
1238.27	1344.97
1237.35	1336.53
1236.44	1355.43
1235.53	1338.8
1234.61	1319.44
1233.69	1302.82
1232.78	1308.05
1231.86	1354.23
1230.95	1261.18
1230.03	1353.76
1229.12	1326.23
1228.2	1317.81
1227.28	1295.75
1226.37	1322.8
1225.45	1205.31
1224.53	1344.14
1223.62	1305.74
1222.7	1373.65
1221.78	1332.53
1220.86	1223.32
1219.95	1283.03
1219.03	1299.14
1218.11	1369.71
1217.19	1293.24
1216.27	1282.12
1215.35	1320
1214.44	1229.97
1213.52	1305.93
1212.6	1273.06
1211.68	1251.07
1210.76	1294.36
1209.84	1359.38
1208.92	1337.4
1208	1301.83
1207.08	1350.51
1206.16	1247.03
1205.24	1214.22
1204.32	1257.45
1203.4	1308.83
1202.48	1224.43
1201.56	1302.93
1200.64	1343.41
1199.71	1291.62
1198.79	1280.54
1197.87	1258.61
1196.95	1274.66
1196.03	1301.55
1195.1	1295.9
1194.18	1290.25
1193.26	1306.28
1192.34	1292.5
1191.41	1227.25
1190.49	1283.92
1189.57	1327.02
1188.65	1318.67
1187.72	1359.04
1186.8	1364.21
1185.87	1309.85
1184.95	1296.09
1184.03	1274.21
1183.1	1344.31
1182.18	1376.53
1181.25	1362.77
1180.33	1397.67
1179.4	1270.38
1178.48	1286.37
1177.55	1264.53
1176.63	1283.22
1175.7	1347.81
1174.78	1355.68
1173.85	1341.94
1172.92	1312
1172	1368.45
1171.07	1468.06
1170.15	1424.63
1169.22	1424.38
1168.29	1364.78
1167.36	1332.18
1166.44	1329.25
1165.51	1304.75
1164.58	1301.83
1163.65	1301.59
1162.73	1333.7
1161.8	1298.44
1160.87	1344
1159.94	1354.53
1159.01	1319.29
1158.08	1284.06
1157.16	1321.51
1156.23	1332.04
1155.3	1321.04
1154.37	1388.06
1153.44	1299.06
1152.51	1271.94
1151.58	1333.55
1150.65	1325.25
1149.72	1306.2
1148.79	1381.21
1147.86	1321.86
1146.93	1391.46
1146	1286.47
1145.07	1380.23
1144.13	1294.07
1143.2	1350.21
1142.27	1323.13
1141.34	1381.93
1140.41	1379
1139.48	1421.68
1138.54	1421.42
1137.61	1421.17
1136.68	1375.34
1135.75	1452.83
1134.81	1468.65
1133.88	1513.95
1132.95	1513.68
1132.01	1617.87
1131.08	1764.88
1130.15	1898.45
1129.21	2010.56
1128.28	2117.27
1127.35	1996.46
1126.41	2009.48
1125.48	1918.17
1124.54	1805.48
1123.61	1722.26
1122.67	1604.3
1121.74	1547.88
1120.8	1480.78
1119.87	1424.4
1118.93	1402.77
1117.99	1439.92
1117.06	1434.32
1116.12	1348.61
1115.19	1345.7
1114.25	1406.86
1113.31	1334.54
1112.38	1350.32
1111.44	1371.42
1110.5	1360.51
1109.56	1333.59
1108.63	1344.02
1107.69	1317.12
1106.75	1327.55
1105.81	1327.31
1104.88	1316.42
1103.94	1281.55
1103	1390.54
1102.06	1376.97
1101.12	1318.14
1100.18	1360.51
1099.24	1373.58
1098.3	1314.78
1097.36	1397.04
1096.42	1298.35
1095.49	1377.92
1094.55	1444.16
1093.6	1404.02
1092.66	1422.38
1091.72	1392.88
1090.78	1490.97
1089.84	1368.47
1088.9	1397.45
1087.96	1437.05
1087.02	1319.94
1086.08	1494.95
1085.14	1385.84
1084.19	1449.3
1083.25	1457
1082.31	1334.68
1081.37	1472.4
1080.43	1509.27
1079.48	1485.13
1078.54	1479.56
1077.6	1534.97
1076.65	1449.88
1075.71	1396.62
1074.77	1465.26
1073.82	1404.07
1072.88	1425.01
1071.93	1456.53
1070.99	1456.27
1070.05	1495.72
1069.1	1450.46
1068.16	1378.75
1067.21	1500.21
1066.27	1624.28
1065.32	1732.43
1064.38	1901.36
1063.43	2049.09
1062.49	2051.37
1061.54	2045.71
1060.59	1931.72
1059.65	1854.75
1058.7	1756.68
1057.75	1640.15
1056.81	1616.1
1055.86	1489.08
1054.91	1438.66
1053.97	1427.84
1053.02	1446.06
1052.07	1390.39
1051.12	1421.8
1050.18	1376.71
1049.23	1408.11
1048.28	1368.31
1047.33	1336.43
1046.38	1272.94
1045.43	1357.03
1044.48	1338.35
1043.54	1348.65
1042.59	1361.57
1041.64	1335
1040.69	1376.88
1039.74	1347.68
1038.79	1379.02
1037.84	1347.2
1036.89	1433.77
1035.94	1307.26
1034.99	1409.59
1034.04	1401.45
1033.08	1264.5
1032.13	1358.9
1031.18	1350.77
1030.23	1303.23
1029.28	1339.78
1028.33	1357.92
1027.37	1349.8
1026.42	1383.69
1025.47	1330.94
1024.52	1317.58
1023.57	1317.34
1022.61	1356.46
1021.66	1340.48
1020.71	1384.83
1019.75	1319.02
1018.8	1365.98
1017.85	1294.96
1016.89	1378.59
1015.94	1367.87
1014.98	1307.36
1014.03	1317.6
1013.07	1346.18
1012.12	1296.18
1011.16	1398.06
1010.21	1384.72
1009.25	1355.68
1008.3	1358.05
1007.34	1355.19
1006.39	1370.65
1005.43	1331.17
1004.48	1346.62
1003.52	1299.32
1002.56	1320
1001.61	1392.94
1000.65	1337.82
999.693	1368.93
998.736	1334.72
997.778	1258.75
996.821	1300.3
995.863	1294.85
994.905	1357.26
993.947	1396.16
992.989	1369.81
992.031	1413.92
991.072	1382.36
990.114	1358.65
989.155	1241.07
988.196	1303.41
987.237	1326.64
986.277	1378.52
985.318	1320.95
984.358	1320.71
983.398	1338.71
982.438	1385.34
981.478	1374.68
980.517	1353.6
979.557	1337.74
978.596	1363.53
977.635	1352.87
976.674	1324.02
975.713	1305.57
974.751	1380.75
973.79	1331.1
972.828	1372.45
971.866	1390.4
970.904	1265.42
969.942	1324.95
968.979	1301.33
968.017	1306.29
967.054	1313.85
966.091	1352.55
965.128	1388.65
964.164	1331.31
963.201	1403.72
962.237	1403.46
961.273	1361.71
960.309	1294.04
959.345	1449.38
958.381	1430.97
957.416	1389.24
956.451	1337.16
955.486	1292.88
954.521	1336.68
953.556	1354.57
952.591	1328.43
951.625	1390.33
950.659	1392.67
949.693	1353.6
948.727	1337.83
947.761	1350.52
946.794	1381.32
945.828	1394
944.861	1424.78
943.894	1359.89
942.927	1375.15
941.959	1312.88
940.992	1351.4
940.024	1356.32
939.056	1397.41
938.088	1402.32
937.12	1298.79
936.152	1378.58
935.183	1380.91
934.214	1365.18
933.246	1300.43
932.276	1393.07
931.307	1271.59
930.338	1395.14
929.368	1528.96
928.398	1399.79
927.428	1420.16
926.458	1340.02
925.488	1350.08
924.517	1378.18
923.547	1413.98
922.576	1429.18
921.605	1364.56
920.634	1431.24
919.662	1407.82
918.691	1381.83
917.719	1445.9
916.747	1422.49
915.775	1352.79
914.803	1347.4
913.831	1421.72
912.858	1429.17
911.885	1369.8
910.912	1405.53
909.939	1436.1
908.966	1420.43
907.992	1435.59
907.019	1430.19
906.045	1352.92
905.071	1406.57
904.097	1401.19
903.122	1467.64
902.148	1403.24
901.173	1387.6
900.198	1402.74
899.223	1417.87
898.248	1448.37
897.273	1435.3
896.297	1406.85
895.321	1373.29
894.345	1455.01
893.369	1403.52
892.393	1362.3
891.416	1497.75
890.44	1512.83
889.463	1410.19
888.486	1399.7
887.509	1435.26
886.531	1363.38
885.554	1452.64
884.576	1424.25
883.598	1464.9
882.62	1456.97
881.642	1449.04
880.664	1446.22
879.685	1453.62
878.706	1463.57
877.727	1417.34
876.748	1498.79
875.769	1480.65
874.789	1477.83
873.81	1538.81
872.83	1551.28
871.85	1566.31
870.87	1527.77
869.889	1530.04
868.909	1450.73
867.928	1450.46
866.947	1562.34
865.966	1495.8
864.985	1457.32
864.003	1497.81
863.022	1477.16
862.04	1492.17
861.058	1532.64
860.076	1438.18
859.094	1496.45
858.111	1526.71
857.128	1391.6
856.146	1439.68
855.162	1434.33
854.179	1459.5
853.196	1403.3
852.212	1512.34
851.229	1423.12
850.245	1425.41
849.261	1475.96
848.276	1460.45
847.292	1427.17
846.307	1482.77
845.322	1589.12
844.337	1530.45
843.352	1504.8
842.367	1532.44
841.381	1511.86
840.396	1460.86
839.41	1399.74
838.424	1447.66
837.437	1485.42
836.451	1452.2
835.464	1472.21
834.477	1446.61
833.49	1474.21
832.503	1405.56
831.516	1496.46
830.528	1506.31
829.541	1521.23
828.553	1510.83
827.565	1528.26
826.577	1568.46
825.588	1545.41
824.6	1416.16
823.611	1423.49
822.622	1496.54
821.633	1478.58
820.643	1485.89
819.654	1503.3
818.664	1566.18
817.674	1497.7
816.684	1550.46
815.694	1555.23
814.704	1519.61
813.713	1499.14
812.723	1541.76
811.732	1480.93
810.741	1440.3
809.749	1490.48
808.758	1444.82
807.766	1394.14
806.774	1482.11
805.782	1451.59
804.79	1552.12
803.798	1486.33
802.805	1488.58
801.812	1581.49
800.819	1483.01
799.826	1512.94
798.833	1527.77
797.84	1482.19
796.846	1476.89
795.852	1587.31
794.858	1491.44
793.864	1501.23
792.87	1511.01
791.875	1553.47
790.88	1535.6
789.885	1562.96
788.89	1540.06
787.895	1454.38
786.9	1529.45
785.904	1546.75
784.908	1576.6
783.912	1536.15
782.916	1540.89
781.92	1477.88
780.923	1507.71
779.926	1509.94
778.929	1534.75
777.932	1526.94
776.935	1516.64
775.938	1486.29
774.94	1493.53
773.942	1518.31
772.944	1498
771.946	1555.33
770.948	1434.85
769.949	1529.72
768.95	1554.48
767.951	1576.72
766.952	1613.96
765.953	1498.58
764.954	1510.82
763.954	1455.52
762.954	1505.26
761.954	1554.99
760.954	1489.72
759.954	1479.45
758.953	1519.16
757.952	1486.4
756.951	1471.15
755.95	1565.77
754.949	1510.56
753.948	1540.24
752.946	1515
751.944	1564.63
750.942	1594.28
749.94	1593.99
748.937	1571.25
747.935	1600.89
746.932	1585.64
745.929	1597.81
744.926	1642.38
743.923	1519.98
742.919	1499.77
741.916	1531.88
740.912	1541.56
739.908	1603.53
738.903	1610.7
737.899	1620.36
736.894	1587.71
735.89	1517.76
734.885	1579.67
733.88	1571.92
732.874	1611.42
731.869	1583.77
730.863	1578.51
729.857	1593.14
728.851	1575.45
727.845	1647.21
726.838	1639.46
725.832	1547.27
724.825	1636.37
723.818	1574.01
722.811	1524.07
721.804	1610.66
720.796	1625.25
719.788	1617.51
718.78	1565.12
717.772	1607
716.764	1626.54
715.756	1660.95
714.747	1685.43
713.738	1675.21
712.729	1627.82
711.72	1654.77
710.71	1604.94
709.701	1649.21
708.691	1574.64
707.681	1537.22
706.671	1635.93
705.661	1600.99
704.65	1642.75
703.64	1600.4
702.629	1666.88
701.618	1639.38
700.606	1559.97
699.595	1663.49
698.583	1673.07
697.572	1613.47
696.56	1598.35
695.547	1598.05
694.535	1548.37
693.523	1651.79
692.51	1567.55
691.497	1587.01
690.484	1576.85
689.471	1569.15
688.457	1593.53
687.443	1585.84
686.43	1669.39
685.416	1585.26
684.401	1592.36
683.387	1705.44
682.372	1628.74
681.358	1662.93
680.343	1672.48
679.327	1645.08
678.312	1644.78
677.297	1654.32
676.281	1654.02
675.265	1634.03
674.249	1700.16
673.233	1655.57
672.216	1615.91
671.2	1600.86
670.183	1666.95
669.166	1624.85
668.148	1730.23
667.131	1734.83
666.113	1638.69
665.096	1623.65
664.078	1640.55
663.06	1632.88
662.041	1686.59
661.023	1568.46
660.004	1580.44
658.985	1678.3
657.966	1631.38
656.947	1677.68
655.927	1638.13
654.908	1662.35
653.888	1742.94
652.868	1651.93
651.848	1683.49
650.827	1577.82
649.807	1668.17
648.786	1662.96
647.765	1645.52
646.744	1721.11
645.723	1647.36
644.701	1749.84
643.679	1727.5
642.657	1685.59
641.635	1721.97
640.613	1682.52
639.591	1711.55
638.568	1703.9
637.545	1681.59
636.522	1651.96
635.499	1759.16
634.475	1785.7
633.452	1780.49
632.428	1770.39
631.404	1796.92
630.38	1772.18
629.356	1718.16
628.331	1849.61
627.306	1729.73
626.281	1685.5
625.256	1814.44
624.231	1814.11
623.205	1813.77
622.18	1828.06
621.154	1871.59
620.128	1844.44
619.102	1907.44
618.075	1938.75
617.049	1916.48
616.022	1955.08
614.995	1915.77
613.968	1964.09
612.94	1963.73
611.913	1931.74
610.885	1914.36
609.857	1838.61
608.829	1901.49
607.8	1879.26
606.772	1823.01
605.743	1893.15
604.714	1926.81
603.685	1894.88
602.656	1906.67
601.626	1816.46
600.597	1910.82
599.567	1869.2
598.537	1873.71
597.507	1900.05
596.476	1877.87
595.446	1821.73
594.415	1911.13
593.384	1816.2
592.353	1966.18
591.321	1854.32
590.29	1885.48
589.258	1860.9
588.226	1833.91
587.194	1852.94
586.162	1830.81
585.129	1774.78
584.096	1825.29
583.063	1820.11
582.03	1730.23
580.997	1824.27
579.964	1833.61
578.93	1767.97
577.896	1866.79
576.862	1815.67
575.828	1849.17
574.793	1841.58
573.759	1855.74
572.724	1855.39
571.689	1722.2
570.654	1791.92
569.618	1789.17
568.583	1706.76
567.547	1848.85
566.511	1776.11
565.475	1792.67
564.438	1744.09
563.402	1763.06
562.365	1779.62
561.328	1841.97
560.291	1834.4
559.254	1800.32
558.216	1879.5
557.178	1886.38
556.141	1842.67
555.102	1871.23
554.064	1863.66
553.026	1807.94
551.987	1740.21
550.948	1819.3
549.909	1763.63
548.87	1727.22
547.83	1799.05
546.791	1762.65
545.751	1714.23
544.711	1783.63
543.671	1773.68
542.63	1691.65
541.59	1806.66
540.549	1758.28
539.508	1733.94
538.467	1755.23
537.425	1766.9
536.384	1864.99
535.342	1831.04
534.3	1809.11
533.258	1820.77
532.216	1700.51
531.173	1728.97
530.13	1805.37
529.088	1824.21
528.044	1785.52
527.001	1770.81
525.958	1689.03
524.914	1774.95
523.87	1757.85
522.826	1769.5
521.782	1716.5
520.737	1787.99
519.693	1921.67
518.648	1904.56
517.603	1806.13
516.557	1913.42
515.512	1865.24
514.466	1817.07
513.42	1807.17
512.374	1818.79
511.328	1868.63
510.282	1748.83
509.235	1724.61
508.188	1781.61
507.141	1723.97
506.094	1747.53
505.047	1737.65
503.999	1687.21
502.951	1720.3
501.903	1679.43
500.855	1738.74
499.807	1807.57
