3200.66	21.0496
3200.06	8.41982
3199.47	58.9299
3198.87	37.8778
3198.28	54.704
3197.69	37.8663
3197.09	50.4808
3196.5	-4.2061
3195.9	8.41092
3195.31	0
3194.71	25.2251
3194.12	46.2391
3193.52	16.8117
3192.93	46.2251
3192.33	12.6049
3191.74	25.2061
3191.14	29.4026
3190.55	41.9974
3189.95	50.3893
3189.36	16.7939
3188.76	29.3848
3188.17	-8.3944
3187.57	33.5725
3186.97	29.3715
3186.38	16.7812
3185.78	8.38932
3185.19	29.3582
3184.59	33.5471
3183.99	29.3493
3183.4	-8.38424
3182.8	33.5319
3182.2	29.336
3181.61	50.2826
3181.01	29.3271
3180.41	12.5669
3179.82	37.6948
3179.22	46.0645
3178.62	16.7482
3178.03	33.4913
3177.43	12.5573
3176.83	-4.18515
3176.23	29.2916
3175.64	8.36776
3175.04	16.733
3174.44	20.9131
3173.84	16.7279
3173.25	25.0881
3172.65	16.7229
3172.05	45.9809
3171.45	12.5383
3170.85	-4.17881
3170.26	4.17818
3169.66	54.3081
3169.06	29.2384
3168.46	45.9391
3167.86	25.0539
3167.26	25.0501
3166.66	37.5695
3166.06	4.17375
3165.47	33.3849
3164.87	66.7598
3164.27	33.3748
3163.67	29.1986
3163.07	41.7059
3162.47	12.5099
3161.87	33.3546
3161.27	29.1809
3160.67	37.5126
3160.07	33.3394
3159.47	25.0008
3158.87	16.6647
3158.27	41.6553
3157.67	24.9894
3157.07	24.9856
3156.47	33.3091
3155.87	0
3155.27	45.7861
3154.67	12.4852
3154.07	20.8056
3153.46	41.6048
3152.86	33.2788
3152.26	12.4777
3151.66	37.4273
3151.06	33.2637
3150.46	29.1013
3149.86	54.0371
3149.26	33.2485
3148.65	8.31087
3148.05	16.6192
3147.45	41.5417
3146.85	53.9961
3146.25	16.6117
3145.64	33.2183
3145.04	4.15165
3144.44	12.4531
3143.84	-4.15039
3143.24	16.5991
3142.63	4.14913
3142.03	29.0395
3141.43	45.6266
3140.82	33.178
3140.22	16.5865
3139.62	-20.7299
3139.02	16.5814
3138.41	37.3025
3137.81	8.28819
3137.21	20.7173
3136.6	49.714
3136	-4.14221
3135.4	20.7079
3134.79	24.8457
3134.19	8.28064
3133.58	8.27938
3132.98	37.2516
3132.38	49.6612
3131.77	41.3781
3131.17	28.9602
3130.56	0
3129.96	24.8155
3129.35	16.5412
3128.75	41.3466
3128.14	41.3403
3127.54	24.8004
3126.93	24.7967
3126.33	-4.13215
3125.72	28.9206
3125.12	37.178
3124.51	12.3908
3123.91	16.5185
3123.3	-12.387
3122.7	49.5406
3122.09	33.022
3121.49	24.7628
3120.88	24.759
3120.27	37.1328
3119.67	41.2524
3119.06	20.6231
3118.46	20.6199
3117.85	24.7402
3117.24	16.4909
3116.64	28.8547
3116.03	-8.24296
3115.42	16.4834
3114.82	12.3607
3114.21	12.3588
3113.6	37.0707
3113	16.4734
3112.39	32.9417
3111.78	37.0538
3111.17	28.8153
3110.57	16.4634
3109.96	32.9217
3109.35	12.3438
3108.74	24.6838
3108.14	37.02
3107.53	32.9017
3106.92	28.7846
3106.31	16.4458
3105.7	36.9975
3105.1	8.22041
3104.49	20.5479
3103.88	65.7432
3103.27	24.65
3102.66	4.1077
3102.05	45.1778
3101.44	8.2129
3100.84	45.1641
3100.23	36.9468
3099.62	20.5229
3099.01	12.3118
3098.4	-4.10332
3097.79	8.20539
3097.18	8.20414
3096.57	32.8116
3095.96	4.10082
3095.35	36.9018
3094.74	28.697
3094.13	24.5937
3093.52	20.4916
3092.91	16.3908
3092.3	32.7766
3091.69	45.0609
3091.08	45.0541
3090.47	36.8568
3089.86	69.6078
3089.25	32.7516
3088.64	16.3733
3088.03	24.5562
3087.42	45.0129
3086.81	16.3658
3086.19	28.6358
3085.58	36.8119
3084.97	24.5375
3084.36	16.3558
3083.75	12.265
3083.14	40.8771
3082.53	49.0451
3081.91	36.7782
3081.3	40.8584
3080.69	53.1079
3080.08	0
3079.47	32.6718
3078.85	24.5001
3078.24	65.3236
3077.63	40.821
3077.02	20.4074
3076.4	36.7277
3075.79	32.6419
3075.18	12.2388
3074.57	12.237
3073.95	20.3918
3073.34	36.6997
3072.73	36.6941
3072.11	52.9945
3071.5	36.6829
3070.89	20.3763
3070.27	36.6717
3069.66	32.5921
3069.05	44.8073
3068.43	12.2183
3067.82	8.14429
3067.2	52.9298
3066.59	40.709
3065.98	44.7731
3065.36	20.3483
3064.75	56.9665
3064.13	24.4105
3063.52	24.4068
3062.9	32.5374
3062.29	32.5324
3061.67	28.4615
3061.06	36.5878
3060.44	40.6469
3059.83	44.7047
3059.21	32.5076
3058.6	40.6282
3057.98	8.12441
3057.37	44.6774
3056.75	48.7315
3056.14	28.4224
3055.52	4.05972
3054.9	56.8274
3054.29	36.5263
3053.67	8.11572
3053.06	20.2862
3052.44	64.9059
3051.82	12.168
3051.21	24.3323
3050.59	0
3049.97	8.10827
3049.36	16.2141
3048.74	32.4232
3048.12	0
3047.51	32.4133
3046.89	28.3573
3046.27	44.5546
3045.65	28.3486
3045.04	28.3443
3044.42	48.5827
3043.8	44.5273
3043.18	40.4732
3042.57	16.1868
3041.95	20.2304
3041.33	32.3637
3040.71	24.2691
3040.09	28.3096
3039.48	28.3052
3038.86	20.2149
3038.24	32.3389
3037.62	16.167
3037	52.5347
3036.38	28.2836
3035.76	20.1995
3035.14	56.5499
3034.53	24.2319
3033.91	24.2282
3033.29	36.3368
3032.67	0
3032.05	24.2171
3031.43	36.3201
3030.81	28.2446
3030.19	36.309
3029.57	16.1348
3028.95	20.1655
3028.33	28.2273
3027.71	0
3027.09	24.1874
3026.47	20.1531
3025.85	12.09
3025.23	12.0882
3024.61	28.2014
3023.99	32.2252
3023.37	36.2478
3022.75	28.1884
3022.13	12.0789
3021.5	32.2055
3020.88	32.2005
3020.26	48.2934
3019.64	40.2383
3019.02	40.2322
3018.4	56.3164
3017.78	32.1759
3017.15	48.2564
3016.53	32.166
3015.91	32.1611
3015.29	16.0781
3014.67	40.189
3014.04	28.128
3013.42	12.053
3012.8	20.0853
3012.18	36.1479
3011.56	56.2215
3010.93	-12.0456
3010.31	68.248
3009.69	28.0978
3009.06	-8.02671
3008.44	20.0637
3007.82	32.097
3007.19	36.1036
3006.57	32.0871
3005.95	8.02055
3005.32	56.1353
3004.7	60.1357
3004.08	36.0759
3003.45	24.0469
3002.83	52.0936
3002.21	36.0593
3001.58	32.0478
3000.96	44.0589
3000.33	0
2999.71	40.0413
2999.08	36.0316
2998.46	8.00579
2997.84	44.0251
2997.21	56.0233
2996.59	48.0126
2995.96	32.0035
2995.34	7.99965
2994.71	23.9953
2994.09	19.993
2993.46	35.9818
2992.83	47.9684
2992.21	19.9838
2991.58	7.99228
2990.96	59.9329
2990.33	43.944
2989.71	35.9487
2989.08	59.9052
2988.45	31.9446
2987.83	31.9396
2987.2	15.9674
2986.58	67.8509
2985.95	0
2985.32	43.89
2984.7	23.9363
2984.07	15.9551
2983.44	39.8816
2982.82	35.8879
2982.19	35.8824
2981.56	23.9179
2980.93	31.8857
2980.31	31.8808
2979.68	11.9535
2979.05	39.8387
2978.42	55.7656
2977.8	19.9132
2977.17	43.8024
2976.54	67.6842
2975.91	63.6929
2975.28	27.8614
2974.66	59.6938
2974.03	19.8949
2973.4	67.6321
2972.77	51.7107
2972.14	39.7713
2971.51	35.7887
2970.88	47.7109
2970.26	35.7777
2969.63	11.9241
2969	75.5074
2968.37	23.8408
2967.74	59.5928
2967.11	51.6391
2966.48	31.773
2965.85	63.5363
2965.22	47.6449
2964.59	47.6375
2963.96	47.6302
2963.33	27.78
2962.7	47.6155
2962.07	23.8041
2961.44	19.8337
2960.81	27.7629
2960.18	67.4138
2959.55	43.614
2958.92	51.5359
2958.29	59.4553
2957.66	19.8154
2957.03	75.2868
2956.4	43.5804
2955.76	31.69
2955.13	43.567
2954.5	31.6802
2953.87	79.1883
2953.24	55.4232
2952.61	59.3729
2951.98	67.2789
2951.34	55.3976
2950.71	47.4764
2950.08	55.3805
2949.45	59.3272
2948.82	43.4999
2948.18	35.5853
2947.55	86.9729
2946.92	75.1014
2946.29	63.2335
2945.65	79.0297
2945.02	75.0667
2944.39	118.508
2943.76	106.641
2943.12	86.8791
2942.49	90.8141
2941.86	86.8523
2941.22	114.469
2940.59	126.292
2939.96	106.542
2939.32	102.58
2938.69	114.399
2938.05	106.493
2937.42	126.194
2936.79	122.232
2936.15	141.925
2935.52	177.379
2934.88	98.5284
2934.25	145.8
2933.61	157.597
2932.98	157.572
2932.34	165.426
2931.71	153.586
2931.08	137.812
2930.44	173.223
2929.81	181.069
2929.17	149.555
2928.53	165.272
2927.9	200.657
2927.26	177.023
2926.63	157.329
2925.99	161.238
2925.36	216.261
2924.72	129.737
2924.08	153.301
2923.45	176.859
2922.81	168.972
2922.18	168.946
2921.54	168.92
2920.9	200.316
2920.27	200.285
2919.63	235.593
2918.99	235.557
2918.36	176.64
2917.72	137.366
2917.08	219.751
2916.44	192.253
2915.81	203.992
2915.17	203.96
2914.53	211.772
2913.9	207.818
2913.26	211.707
2912.62	199.914
2911.98	195.964
2911.34	188.096
2910.71	215.494
2910.07	215.46
2909.43	235.011
2908.79	231.059
2908.15	211.445
2907.51	270.138
2906.88	219.208
2906.24	211.347
2905.6	234.793
2904.96	223.019
2904.32	246.457
2903.68	258.153
2903.04	222.916
2902.4	246.342
2901.76	226.756
2901.12	265.811
2900.48	261.862
2899.84	281.36
2899.2	296.945
2898.56	304.712
2897.92	281.229
2897.28	285.091
2896.64	257.714
2896	296.715
2895.36	347.415
2894.72	300.526
2894.08	319.992
2893.44	288.728
2892.8	343.299
2892.16	315.942
2891.52	280.794
2890.88	300.247
2890.24	311.897
2889.59	307.951
2888.95	307.903
2888.31	296.164
2887.67	342.874
2887.03	342.821
2886.39	315.502
2885.74	327.137
2885.1	354.343
2884.46	358.182
2883.82	354.234
2883.18	389.207
2882.53	404.713
2881.89	463.013
2881.25	482.393
2880.6	443.421
2879.96	583.359
2879.32	544.384
2878.68	602.617
2878.03	649.171
2877.39	579.11
2876.75	594.565
2876.1	547.847
2875.46	524.453
2874.82	485.53
2874.17	446.618
2873.53	411.601
2872.88	361.066
2872.24	415.356
2871.6	395.885
2870.95	329.853
2870.31	364.722
2869.66	387.942
2869.02	341.336
2868.37	383.943
2867.73	348.985
2867.08	356.685
2866.44	407.023
2865.79	379.829
2865.15	368.145
2864.5	364.213
2863.86	352.535
2863.21	352.48
2862.57	367.916
2861.92	375.604
2861.28	321.343
2860.63	379.358
2859.98	344.466
2859.34	406.329
2858.69	402.397
2858.05	398.466
2857.4	425.48
2856.75	398.342
2856.11	440.815
2855.46	429.148
2854.81	421.35
2854.17	479.259
2853.52	502.371
2852.87	517.748
2852.23	451.994
2851.58	494.412
2850.93	536.817
2850.28	559.902
2849.64	548.233
2848.99	586.749
2848.34	582.799
2847.69	632.875
2847.05	682.936
2846.4	582.527
2845.75	655.723
2845.1	655.621
2844.45	686.367
2843.8	647.707
2843.16	659.17
2842.51	709.172
2841.86	605.015
2841.21	639.598
2840.56	535.484
2839.91	550.808
2839.26	477.549
2838.61	438.969
2837.96	438.901
2837.31	419.585
2836.66	377.183
2836.01	319.401
2835.36	284.723
2834.72	273.138
2834.07	253.863
2833.42	249.978
2832.76	196.106
2832.11	207.609
2831.46	219.109
2830.81	172.954
2830.16	149.87
2829.51	165.216
2828.86	130.615
2828.21	134.436
2827.56	130.575
2826.91	145.914
2826.26	111.338
2825.61	103.643
2824.96	111.303
2824.3	111.286
2823.65	111.269
2823	118.924
2822.35	115.07
2821.7	99.7114
2821.04	69.0202
2820.39	92.0126
2819.74	76.6653
2819.09	72.8206
2818.44	76.6414
2817.78	103.45
2817.13	72.7866
2816.48	88.0964
2815.83	68.9343
2815.17	49.7781
2814.52	114.855
2813.87	61.2463
2813.21	76.5459
2812.56	99.4942
2811.91	49.7393
2811.25	61.2081
2810.6	84.148
2809.95	65.0133
2809.29	76.4744
2808.64	72.6393
2807.98	38.2253
2807.33	49.6851
2806.68	95.5333
2806.02	49.6696
2805.37	76.4028
2804.71	68.7518
2804.06	42.0085
2803.4	91.6405
2802.75	83.9907
2802.09	49.6231
2801.44	68.6982
2800.78	76.3195
2800.13	53.4153
2799.47	30.5183
2798.82	68.6554
2798.16	53.3903
2797.51	53.382
2796.85	53.3736
2796.19	83.8598
2795.54	57.1682
2794.88	64.7805
2794.23	80.0105
2793.57	68.5697
2792.91	49.5149
2792.26	79.9731
2791.6	64.73
2790.94	49.4917
2790.29	79.9356
2789.63	49.4762
2788.97	53.2738
2788.32	49.4608
2787.66	57.0612
2787	45.6418
2786.34	38.0289
2785.69	49.4299
2785.03	83.6375
2784.37	72.2211
2783.71	41.8057
2783.06	41.7992
2782.4	34.194
2781.74	75.9747
2781.08	83.5592
2780.42	45.5706
2779.76	64.5483
2779.11	83.52
2778.45	56.9366
2777.79	64.518
2777.13	64.5079
2776.47	45.5279
2775.81	75.868
2775.15	53.0993
2774.49	56.8832
2773.83	45.4994
2773.17	64.4475
2772.51	64.4374
2771.86	49.2679
2771.2	45.471
2770.54	45.4639
2769.88	68.1852
2769.22	37.8747
2768.56	60.5901
2767.9	60.5806
2767.23	83.2853
2766.57	79.4872
2765.91	71.9057
2765.25	64.3266
2764.59	52.9666
2763.93	60.5238
2763.27	37.8214
2762.61	75.6311
2761.95	64.2763
2761.29	49.1448
2760.63	86.9349
2759.96	37.7919
2759.3	83.1291
2758.64	71.7821
2757.98	60.4386
2757.32	49.0987
2756.65	64.1959
2755.99	56.6346
2755.33	45.3006
2754.67	90.587
2754.01	64.1557
2753.34	49.0526
2752.68	49.0449
2752.02	56.5814
2751.35	49.0295
2750.69	49.0219
2750.03	60.3251
2749.37	67.8552
2748.7	60.3063
2748.04	48.9912
2747.38	101.735
2746.71	45.2084
2746.05	79.1024
2745.38	79.09
2744.72	109.202
2744.06	97.8902
2743.39	75.2884
2742.73	79.0404
2742.06	52.6854
2741.4	105.354
2740.73	67.7171
2740.07	52.6606
2739.41	63.935
2738.74	71.4455
2738.08	86.4732
2737.41	75.1823
2736.75	82.6875
2736.08	48.8531
2735.41	90.1763
2734.75	101.432
2734.08	67.611
2733.42	90.1339
2732.75	71.3448
2732.09	82.5968
2731.42	75.0762
2730.75	71.3112
2730.09	97.5685
2729.42	123.817
2728.76	112.544
2728.09	90.0208
2727.42	105.008
2726.76	86.2429
2726.09	93.7276
2725.42	116.204
2724.75	131.177
2724.09	131.157
2723.42	172.351
2722.75	112.385
2722.09	116.113
2721.42	138.564
2720.75	116.076
2720.08	119.802
2719.41	127.27
2718.75	123.507
2718.08	123.488
2717.41	127.21
2716.74	97.2627
2716.07	108.468
2715.41	89.7527
2714.74	93.4778
2714.07	115.894
2713.4	130.828
2712.73	130.807
2712.06	89.6823
2711.39	100.877
2710.72	138.217
2710.05	119.52
2709.38	130.704
2708.71	93.3457
2708.04	85.8645
2707.37	85.851
2706.7	108.23
2706.03	89.5555
2705.36	126.85
2704.69	104.449
2704.02	115.621
2703.35	137.978
2702.68	119.314
2702.01	96.927
2701.34	104.367
2700.67	119.257
2700	100.608
2699.33	89.4149
2698.66	93.1258
2697.99	85.6623
2697.32	93.0965
2696.64	78.1888
2695.97	74.4538
2695.3	126.552
2694.63	89.3165
2693.96	78.1396
2693.29	100.449
2692.61	81.8348
2691.94	89.2603
2691.27	92.9648
2690.6	70.6422
2689.92	81.7833
2689.25	100.355
2688.58	55.7438
2687.91	92.8917
2687.23	104.022
2686.56	85.4335
2685.89	100.276
2685.21	85.4066
2684.54	115.095
2683.87	70.531
2683.19	85.3662
2682.52	103.908
2681.85	111.312
2681.17	70.4866
2680.5	59.3478
2679.82	89.0077
2679.15	63.0372
2678.48	103.81
2677.8	77.8449
2677.13	81.539
2676.45	122.289
2675.78	59.2824
2675.1	96.3187
2674.43	81.4876
2673.75	74.068
2673.08	107.382
2672.4	70.3424
2671.73	55.5247
2671.05	77.7224
2670.37	74.0097
2669.7	55.4985
2669.02	92.4829
2668.35	81.3721
2667.67	88.7556
2667	66.5562
2666.32	81.3337
2665.64	103.499
2664.97	66.5247
2664.29	92.3809
2663.61	88.6717
2662.94	84.9636
2662.26	103.418
2661.58	59.0865
2660.91	48.0002
2660.23	99.677
2659.55	66.4409
2658.87	70.1209
2658.2	47.9699
2657.52	70.0988
2656.84	84.8431
2656.16	81.1414
2655.49	81.1286
2654.81	106.925
2654.13	103.222
2653.45	66.3466
2652.77	114.245
2652.09	95.8037
2651.42	84.736
2650.74	77.3555
2650.06	99.4413
2649.38	69.9662
2648.7	88.3644
2648.02	99.3942
2647.34	92.0172
2646.66	58.8817
2645.98	84.6291
2645.3	69.8999
2644.62	102.994
2643.94	114.011
2643.26	128.702
2642.58	110.299
2641.9	113.957
2641.22	88.211
2640.54	84.5222
2639.86	84.5088
2639.18	69.8006
2638.5	95.5015
2637.82	106.504
2637.14	66.0956
2636.46	80.7707
2635.78	69.7455
2635.1	102.767
2634.42	84.4021
2633.73	58.7052
2633.05	62.3644
2632.37	73.3583
2631.69	88.016
2631.01	51.3346
2630.33	65.9912
2629.64	36.656
2628.96	98.9554
2628.28	80.6176
2627.6	87.9326
2626.91	131.878
2626.23	91.5675
2625.55	95.2151
2624.87	109.846
2624.18	102.507
2623.5	87.8492
2622.82	76.8559
2622.13	62.2068
2621.45	113.418
2620.77	47.5549
2620.08	117.04
2619.4	87.7658
2618.72	51.1886
2618.03	76.7708
2617.35	84.069
2616.67	91.3648
2615.98	76.7343
2615.3	65.7619
2614.61	80.3629
2613.93	73.0456
2613.24	69.3823
2612.56	83.9758
2611.87	102.215
2611.19	83.9493
2610.5	58.3902
2609.82	58.381
2609.13	91.2058
2608.45	91.1914
2607.76	91.177
2607.08	51.051
2606.39	94.794
2605.71	83.8429
2605.02	120.277
2604.33	87.4606
2603.65	112.952
2602.96	105.648
2602.27	72.8492
2601.59	58.2701
2600.9	80.1087
2600.21	87.3775
2599.53	91.0038
2598.84	65.5123
2598.15	58.2239
2597.47	72.7684
2596.78	90.9461
2596.09	101.843
2595.41	112.737
2594.72	65.45
2594.03	83.6173
2593.34	83.6041
2592.65	112.666
2591.97	101.747
2591.28	50.8652
2590.59	65.3878
2589.9	87.1699
2589.21	108.945
2588.52	105.297
2587.84	98.0194
2587.15	68.9657
2586.46	108.876
2585.77	83.4583
2585.08	97.9573
2584.39	116.079
2583.7	79.7917
2583.01	83.4054
2582.32	97.8951
2581.63	83.3789
2580.94	105.113
2580.25	97.8485
2579.56	76.0923
2578.87	76.0802
2578.18	94.1796
2577.49	57.9475
2576.8	90.5286
2576.11	68.7908
2575.42	90.4998
2574.73	79.6272
2574.04	104.946
2573.35	108.548
2572.66	47.03
2571.97	104.896
2571.28	108.496
2570.58	83.1673
2569.89	39.7693
2569.2	83.1409
2568.51	79.5134
2567.82	104.796
2567.13	86.7143
2566.43	43.3503
2565.74	83.0748
2565.05	75.8389
2564.36	79.4376
2563.66	104.697
2562.97	86.6317
2562.28	111.881
2561.59	90.2127
2560.89	79.3745
2560.2	86.5766
2559.51	86.5628
2558.81	90.1553
2558.12	100.958
2557.43	97.3368
2556.73	86.5078
2556.04	82.8901
2555.35	90.0836
2554.65	75.6582
2553.96	100.862
2553.26	75.6341
2552.57	133.239
2551.88	72.0096
2551.18	89.9977
2550.49	97.182
2549.79	79.1728
2549.1	100.749
2548.4	89.9404
2547.71	79.135
2547.01	82.7188
2546.32	93.4934
2545.62	93.4785
2544.93	97.0584
2544.23	86.2604
2543.53	93.4339
2542.84	79.0468
2542.14	96.9966
2541.45	100.573
2540.75	75.4178
2540.05	64.6335
2539.36	78.9839
2538.66	104.099
2537.97	75.3697
2537.27	100.477
2536.57	96.8731
2535.88	75.3337
2535.18	96.8422
2534.48	125.516
2533.78	60.9553
2533.09	96.7959
2532.39	68.1048
2531.69	111.101
2530.99	89.583
2530.3	89.5687
2529.6	96.7188
2528.9	75.2138
2528.2	85.9449
2527.5	118.155
2526.81	121.716
2526.11	139.594
2525.41	110.941
2524.71	93.0328
2524.01	103.751
2523.31	85.849
2522.61	75.1059
2521.91	143.036
2521.21	96.5339
2520.52	121.542
2519.82	96.5032
2519.12	100.061
2518.42	96.4724
2517.72	64.3047
2517.02	103.585
2516.32	85.7122
2515.62	85.6985
2514.92	85.6848
2514.22	82.1015
2513.52	89.2266
2512.82	74.9383
2512.11	71.3585
2511.41	82.0491
2510.71	99.87
2510.01	99.854
2509.31	67.7473
2508.61	78.4317
2507.91	121.193
2507.21	103.354
2506.5	85.5209
2505.8	89.07
2505.1	92.618
2504.4	113.973
2503.7	74.783
2503	106.816
2502.29	88.9989
2501.59	124.579
2500.89	88.9705
2500.19	103.189
2499.48	135.192
2498.78	113.828
2498.08	103.14
2497.37	99.5674
2496.67	67.5528
2495.97	78.2065
2495.26	103.074
2494.56	113.719
2493.86	63.9565
2493.15	117.235
2492.45	113.664
2491.75	88.7858
2491.04	99.4242
2490.34	95.858
2489.63	78.0941
2488.93	81.6307
2488.22	70.9719
2487.52	109.989
2486.81	88.6865
2486.11	88.6723
2485.41	99.2971
2484.7	102.827
2483.99	85.0846
2483.29	141.785
2482.58	127.586
2481.88	106.305
2481.17	109.831
2480.47	77.9318
2479.76	77.9194
2479.06	95.613
2478.35	116.842
2477.64	92.0423
2476.94	106.186
2476.23	95.5518
2475.52	95.5365
2474.82	130.899
2474.11	130.879
2473.4	91.954
2472.7	91.9392
2471.99	109.602
2471.28	84.8398
2470.57	84.8262
2469.87	120.151
2469.16	102.466
2468.45	116.58
2467.74	74.1754
2467.04	91.8215
2466.33	60.0275
2465.62	112.975
2464.91	98.8372
2464.2	119.997
2463.5	88.2192
2462.79	91.7333
2462.08	74.0804
2461.37	70.5415
2460.66	88.1627
2459.95	98.7264
2459.24	116.337
2458.53	98.6948
2457.82	84.5819
2457.11	105.71
2456.4	105.694
2455.69	98.6315
2454.99	77.4837
2454.28	116.207
2453.57	109.147
2452.85	95.048
2452.14	102.072
2451.43	70.3833
2450.72	98.5208
2450.01	112.577
2449.3	91.4543
2448.59	112.541
2447.88	119.556
2447.17	116.021
2446.46	119.517
2445.75	130.042
2445.04	77.3099
2444.32	98.3787
2443.61	66.7463
2442.9	112.397
2442.19	112.379
2441.48	87.7817
2440.76	119.364
2440.05	105.304
2439.34	80.7203
2438.63	94.7434
2437.92	94.7282
2437.2	101.729
2436.49	91.1905
2435.78	112.216
2435.06	77.1364
2434.35	126.203
2433.64	94.637
2432.92	101.631
2432.21	105.118
2431.5	108.605
2430.78	94.5762
2430.07	77.0497
2429.36	119.058
2428.64	119.039
2427.93	87.5143
2427.21	105
2426.5	90.9856
2425.78	97.9688
2425.07	104.95
2424.35	66.4574
2423.64	115.408
2422.92	115.389
2422.21	139.843
2421.49	122.343
2420.78	101.354
2420.06	118.809
2419.35	139.753
2418.63	97.8114
2417.92	62.8687
2417.2	101.272
2416.48	87.2895
2415.77	90.7665
2415.05	125.656
2414.34	115.167
2413.62	97.7013
2412.9	143.04
2412.19	111.623
2411.47	132.531
2410.75	135.996
2410.04	115.055
2409.32	122.009
2408.6	111.533
2407.88	76.6666
2407.17	97.56
2406.45	80.1256
2405.73	111.461
2405.01	73.1346
2404.29	139.282
2403.58	104.444
2402.86	121.832
2402.14	104.411
2401.42	100.914
2400.7	132.211
2399.98	107.839
2399.27	100.865
2398.55	118.237
2397.83	86.925
2397.11	100.817
2396.39	72.9935
2395.67	135.537
2394.95	97.2933
2394.23	125.071
2393.51	76.4201
2392.79	100.719
2392.07	104.176
2391.35	97.2149
2390.63	114.556
2389.91	104.125
2389.19	111.049
2388.47	93.6825
2387.75	107.544
2387.03	100.59
2386.31	131.786
2385.59	117.895
2384.87	128.276
2384.14	135.188
2383.42	121.303
2382.7	128.214
2381.98	100.476
2381.26	100.46
2380.54	96.9801
2379.82	117.743
2379.09	110.799
2378.37	107.319
2377.65	121.147
2376.93	89.9804
2376.2	121.108
2375.48	110.709
2374.76	117.61
2374.04	89.9223
2373.31	141.778
2372.59	117.553
2371.87	131.361
2371.14	103.69
2370.42	79.4825
2369.7	100.201
2368.97	103.639
2368.25	141.618
2367.52	110.513
2366.8	110.495
2366.08	100.12
2365.35	96.652
2364.63	113.893
2363.9	113.874
2363.18	100.055
2362.45	100.039
2361.73	110.37
2361	117.249
2360.28	127.574
2359.55	82.7376
2358.83	127.533
2358.1	113.727
2357.38	113.709
2356.65	96.4648
2355.93	113.672
2355.2	99.8777
2354.47	120.523
2353.75	103.288
2353.02	106.714
2352.3	99.8131
2351.57	137.651
2350.84	106.662
2350.12	103.205
2349.39	123.826
2348.66	110.05
2347.94	127.224
2347.21	106.576
2346.48	106.559
2345.75	120.289
2345.03	144.323
2344.3	99.6358
2343.57	123.666
2342.84	103.038
2342.11	89.2853
2341.39	127.039
2340.66	96.1223
2339.93	106.404
2339.2	126.978
2338.47	123.526
2337.74	96.0601
2337.02	130.346
2336.29	113.177
2335.56	113.159
2334.83	113.14
2334.1	92.5544
2333.37	137.095
2332.64	143.927
2331.91	133.625
2331.18	85.6431
2330.45	130.156
2329.72	126.711
2328.99	112.994
2328.26	109.552
2327.53	116.38
2326.8	133.473
2326.07	136.874
2325.34	116.324
2324.61	85.5183
2323.88	129.967
2323.14	99.1691
2322.41	133.344
2321.68	129.904
2320.95	109.375
2320.22	133.279
2319.49	146.925
2318.76	102.489
2318.02	126.383
2317.29	95.6254
2316.56	150.244
2315.83	133.149
2315.1	133.128
2314.36	136.519
2313.63	105.785
2312.9	160.358
2312.16	92.1056
2311.43	119.377
2310.7	136.409
2309.97	105.699
2309.23	146.592
2308.5	126.117
2307.76	166.992
2307.03	98.816
2306.3	146.497
2305.56	149.879
2304.83	112.391
2304.1	119.183
2303.36	142.997
2302.63	88.5075
2301.89	112.318
2301.16	132.718
2300.42	149.709
2299.69	129.273
2298.95	125.851
2298.22	142.834
2297.48	112.209
2296.75	115.59
2296.01	108.773
2295.28	132.546
2294.54	129.126
2293.8	115.515
2293.07	132.481
2292.33	91.7029
2291.6	135.834
2290.86	129.021
2290.12	132.395
2289.39	105.22
2288.65	98.4158
2287.91	101.793
2287.18	125.524
2286.44	118.72
2285.7	111.918
2284.97	91.5541
2284.23	139.004
2283.49	125.422
2282.75	125.402
2282.01	166.046
2281.28	128.749
2280.54	118.565
2279.8	145.642
2279.06	132.073
2278.32	128.665
2277.59	91.4053
2276.85	132.008
2276.11	138.756
2275.37	135.349
2274.63	118.411
2273.89	128.54
2273.15	155.576
2272.41	114.972
2271.67	128.477
2270.93	135.217
2270.19	121.676
2269.45	121.656
2268.71	168.939
2267.97	118.238
2267.23	128.352
2266.49	138.462
2265.75	135.063
2265.01	131.665
2264.27	114.766
2263.53	141.747
2262.79	178.842
2262.05	131.58
2261.31	145.051
2260.57	161.891
2259.83	128.143
2259.09	144.98
2258.34	141.586
2257.6	124.71
2256.86	161.76
2256.12	124.669
2255.38	141.494
2254.63	138.102
2253.89	151.551
2253.15	141.424
2252.41	127.935
2251.66	134.646
2250.92	104.334
2250.18	141.332
2249.43	107.664
2248.69	164.834
2247.95	147.99
2247.21	124.426
2246.46	124.406
2245.72	144.556
2244.97	134.449
2244.23	154.591
2243.49	147.845
2242.74	110.866
2242	120.925
2241.25	151.131
2240.51	167.897
2239.76	141.01
2239.02	157.771
2238.27	120.826
2237.53	154.364
2236.78	164.404
2236.04	147.604
2235.29	130.81
2234.55	127.435
2233.8	171.003
2233.06	157.565
2232.31	113.965
2231.57	113.946
2230.82	120.629
2230.07	157.463
2229.33	130.639
2228.58	157.411
2227.83	133.945
2227.09	150.664
2226.34	153.987
2225.59	147.268
2224.85	160.629
2224.1	120.452
2223.35	143.85
2222.6	170.585
2221.86	150.492
2221.11	150.467
2220.36	140.413
2219.61	177.159
2218.87	123.657
2218.12	163.735
2217.37	150.344
2216.62	126.937
2215.87	120.236
2215.12	130.234
2214.37	140.23
2213.63	143.545
2212.88	173.561
2212.13	143.498
2211.38	146.811
2210.63	143.451
2209.88	136.757
2209.13	166.749
2208.38	173.391
2207.63	160.027
2206.88	176.667
2206.13	153.309
2205.38	166.613
2204.63	163.254
2203.88	143.24
2203.13	123.233
2202.38	153.183
2201.63	156.488
2200.88	143.146
2200.12	146.451
2199.37	159.739
2198.62	129.767
2197.87	159.687
2197.12	179.618
2196.37	119.726
2195.62	133.007
2194.86	139.634
2194.11	189.473
2193.36	126.295
2192.61	136.243
2191.85	159.478
2191.1	162.774
2190.35	136.176
2189.6	162.72
2188.84	146.092
2188.09	165.987
2187.34	179.236
2186.58	162.614
2185.83	136.042
2185.08	145.973
2184.32	145.949
2183.57	208.938
2182.82	135.953
2182.06	175.716
2181.31	175.687
2180.55	182.287
2179.8	125.923
2179.04	139.155
2178.29	172.259
2177.53	149.046
2176.78	155.645
2176.02	145.686
2175.27	155.594
2174.51	152.258
2173.76	168.78
2173	205.15
2172.25	165.417
2171.49	132.312
2170.74	208.357
2169.98	162.029
2169.22	148.777
2168.47	165.281
2167.71	161.949
2166.95	168.531
2166.2	191.632
2165.44	158.566
2164.68	175.054
2163.93	181.63
2163.17	188.204
2162.41	138.654
2161.65	161.736
2160.9	138.608
2160.14	178.182
2159.38	138.563
2158.62	135.242
2157.87	128.623
2157.11	181.362
2156.35	138.472
2155.59	154.931
2154.83	164.793
2154.07	125.222
2153.31	154.855
2152.56	197.655
2151.8	167.979
2151.04	191.004
2150.28	194.265
2149.52	184.357
2148.76	154.702
2148	197.46
2147.24	167.814
2146.48	177.656
2145.72	164.469
2144.96	207.197
2144.2	174.28
2143.44	187.402
2142.68	141.35
2141.92	154.474
2141.16	177.451
2140.4	141.281
2139.64	134.687
2138.87	151.088
2138.11	190.471
2137.35	213.423
2136.59	144.448
2135.83	170.683
2135.07	167.373
2134.31	177.189
2133.54	167.318
2132.78	147.609
2132.02	160.703
2131.26	193.468
2130.49	199.993
2129.73	203.239
2128.97	173.708
2128.21	160.571
2127.44	183.48
2126.68	150.691
2125.92	157.217
2125.15	176.84
2124.39	163.713
2123.63	166.96
2122.86	189.845
2122.1	183.269
2121.33	183.238
2120.57	176.665
2119.81	219.159
2119.04	183.148
2118.28	206.007
2117.51	163.471
2116.75	179.789
2115.98	189.564
2115.22	176.462
2114.45	186.234
2113.69	127.402
2112.92	173.108
2112.16	150.22
2111.39	189.377
2110.62	169.758
2109.86	169.73
2109.09	189.283
2108.33	192.515
2107.56	199.008
2106.79	163.094
2106.03	172.852
2105.26	182.606
2104.49	172.795
2103.73	176.026
2102.96	198.811
2102.19	192.261
2101.42	172.681
2100.66	208.486
2099.89	179.138
2099.12	179.108
2098.35	179.079
2097.59	172.538
2096.82	201.804
2096.05	188.753
2095.28	198.484
2094.51	191.944
2093.74	182.154
2092.98	195.133
2092.21	214.611
2091.44	159.306
2090.67	172.282
2089.9	175.504
2089.13	214.47
2088.36	217.683
2087.59	188.411
2086.82	201.372
2086.05	204.586
2085.28	175.33
2084.51	191.533
2083.74	175.272
2082.97	188.224
2082.2	152.502
2081.43	165.453
2080.66	201.106
2079.89	204.316
2079.12	210.767
2078.35	201.006
2077.57	184.765
2076.8	178.253
2076.03	162.021
2075.26	207.353
2074.49	200.84
2073.72	191.091
2072.94	213.727
2072.17	226.643
2071.4	246.029
2070.63	190.964
2069.86	181.224
2069.08	197.372
2068.31	207.045
2067.54	203.776
2066.76	194.041
2065.99	229.577
2065.22	190.743
2064.44	197.177
2063.67	226.231
2062.9	239.119
2062.12	219.694
2061.35	206.737
2060.58	232.541
2059.8	219.585
2059.03	206.635
2058.25	200.144
2057.48	203.339
2056.7	251.711
2055.93	219.404
2055.15	254.854
2054.38	245.135
2053.6	225.745
2052.83	219.259
2052.05	199.879
2051.28	203.07
2050.5	248.155
2049.72	225.558
2048.95	238.408
2048.17	212.599
2047.4	231.887
2046.62	267.27
2045.84	218.932
2045.07	241.429
2044.29	251.045
2043.51	209.17
2042.74	228.44
2041.96	228.402
2041.18	276.61
2040.4	228.326
2039.63	212.212
2038.85	263.613
2038.07	228.213
2037.29	231.389
2036.52	247.416
2035.74	250.588
2034.96	263.395
2034.18	244.082
2033.4	247.252
2032.62	256.843
2031.84	234.33
2031.07	272.805
2030.29	247.088
2029.51	256.673
2028.73	256.63
2027.95	259.795
2027.17	243.718
2026.39	278.946
2025.61	262.871
2024.83	243.596
2024.05	243.556
2023.27	249.924
2022.49	262.697
2021.71	249.841
2020.93	262.61
2020.15	268.97
2019.37	249.717
2018.59	230.469
2017.8	262.436
2017.02	275.192
2016.24	236.753
2015.46	294.293
2014.68	307.038
2013.9	275.009
2013.11	300.541
2012.33	281.311
2011.55	284.461
2010.77	287.609
2009.99	290.756
2009.2	265.151
2008.42	306.63
2007.64	277.837
2006.85	252.247
2006.07	287.322
2005.29	319.194
2004.5	284.036
2003.72	296.752
2002.94	283.941
2002.15	290.274
2001.37	271.09
2000.59	357.141
1999.8	296.505
1999.02	312.395
1998.23	296.407
1997.45	270.864
1996.66	277.192
1995.88	267.589
1995.09	296.21
1994.31	299.345
1993.52	327.951
1992.74	318.346
1991.95	289.647
1991.17	340.517
1990.38	248.186
1989.6	314.953
1988.81	349.89
1988.02	314.849
1987.24	311.616
1986.45	305.206
1985.67	276.547
1984.88	257.432
1984.09	359.074
1983.3	298.649
1982.52	320.835
1981.73	343.014
1980.94	362.01
1980.16	393.7
1979.37	320.622
1978.58	358.656
1977.79	361.769
1977.01	352.19
1976.22	342.615
1975.43	367.932
1974.64	332.987
1973.85	364.639
1973.06	367.748
1972.27	332.82
1971.49	358.118
1970.7	370.733
1969.91	357.999
1969.12	389.616
1968.33	351.546
1967.54	351.487
1966.75	379.923
1965.96	345.039
1965.17	351.311
1964.38	351.253
1963.59	357.522
1962.8	392.26
1962.01	373.217
1961.22	376.317
1960.43	392.064
1959.64	376.192
1958.85	376.129
1958.06	429.79
1957.26	420.24
1956.47	375.941
1955.68	379.037
1954.89	341.076
1954.1	404.171
1953.31	413.575
1952.51	388.254
1951.72	419.749
1950.93	388.124
1950.14	378.595
1949.34	403.767
1948.55	425.777
1947.76	353.178
1946.97	378.342
1946.17	387.736
1945.38	409.734
1944.59	412.817
1943.79	419.049
1943	390.627
1942.21	400.011
1941.41	387.348
1940.62	399.878
1939.82	402.959
1939.03	418.63
1938.24	437.442
1937.44	434.223
1936.65	431.004
1935.85	393.186
1935.06	446.585
1934.26	399.344
1933.47	452.724
1932.67	474.652
1931.88	458.858
1931.08	427.358
1930.28	452.421
1929.49	458.628
1928.69	493.1
1927.9	477.316
1927.1	452.119
1926.3	386.12
1925.51	477.077
1924.71	436.201
1923.91	451.816
1923.12	429.781
1922.32	360.705
1921.52	423.365
1920.73	479.734
1919.93	470.249
1919.13	457.632
1918.33	438.752
1917.53	463.746
1916.74	448.004
1915.94	444.797
1915.14	454.118
1914.34	485.355
1913.54	460.227
1912.74	466.411
1911.95	553.966
1911.15	510.064
1910.35	466.177
1909.55	494.252
1908.75	466.021
1907.95	556.63
1907.15	475.245
1906.35	472.039
1905.55	512.592
1904.75	487.506
1903.95	521.794
1903.15	477.971
1902.35	537.237
1901.55	459.073
1900.75	499.588
1899.95	546.333
1899.15	511.906
1898.35	499.337
1897.54	524.216
1896.74	502.289
1895.94	495.967
1895.14	470.933
1894.34	502.037
1893.54	514.424
1892.73	504.986
1891.93	498.668
1891.13	501.7
1890.33	482.922
1889.53	464.151
1888.72	467.188
1887.92	566.759
1887.12	516.848
1886.31	516.761
1885.51	519.787
1884.71	504.14
1883.9	513.39
1883.1	544.413
1882.3	578.536
1881.49	513.131
1880.69	491.28
1879.88	528.503
1879.08	568.823
1878.28	463.062
1877.47	537.559
1876.67	518.829
1875.86	472.148
1875.06	552.817
1874.25	506.147
1873.45	509.166
1872.64	533.914
1871.84	527.617
1871.03	567.869
1870.22	511.927
1869.42	536.658
1868.61	561.38
1867.81	496.164
1867	545.689
1866.19	492.898
1865.39	536.207
1864.58	529.919
1863.77	554.618
1862.97	557.622
1862.16	507.971
1861.35	520.273
1860.54	507.8
1859.74	554.152
1858.93	569.535
1858.12	591.103
1857.31	538.401
1856.51	532.123
1855.7	550.593
1854.89	541.223
1854.08	593.699
1853.27	550.316
1852.46	516.221
1851.65	571.765
1850.84	509.867
1850.04	503.602
1849.23	602.367
1848.42	543.584
1847.61	521.876
1846.8	571.188
1845.99	484.657
1845.18	500.007
1844.37	540.041
1843.56	536.864
1842.75	558.368
1841.94	545.937
1841.13	524.258
1840.31	570.42
1839.5	545.661
1838.69	567.146
1837.88	502.333
1837.07	588.524
1836.26	557.617
1835.45	560.603
1834.64	557.429
1833.82	591.207
1833.01	560.32
1832.2	569.46
1831.39	547.821
1830.57	532.343
1829.76	547.637
1828.95	550.62
1828.14	538.225
1827.32	568.885
1826.51	574.938
1825.7	547.175
1824.88	522.495
1824.07	519.334
1823.26	562.261
1822.44	559.095
1821.63	540.572
1820.81	555.835
1820	583.375
1819.19	574.067
1818.37	561.693
1817.56	564.667
1816.74	582.982
1815.93	585.951
1815.11	530.641
1814.3	533.619
1813.48	591.787
1812.67	564.096
1811.85	570.131
1811.03	533.259
1810.22	554.618
1809.4	557.588
1808.59	575.873
1807.77	612.528
1806.95	569.555
1806.14	569.458
1805.32	618.34
1804.5	569.266
1803.69	575.29
1802.87	614.967
1802.05	587.332
1801.24	510.77
1800.42	529.032
1799.6	577.862
1798.78	534.967
1797.96	599.062
1797.15	565.346
1796.33	574.417
1795.51	595.704
1794.69	607.821
1793.87	546.641
1793.05	570.976
1792.23	558.668
1791.42	573.835
1790.6	512.702
1789.78	521.769
1788.96	607.103
1788.14	594.799
1787.32	579.45
1786.5	606.795
1785.68	609.741
1784.86	566.963
1784.04	539.439
1783.22	560.677
1782.4	548.396
1781.58	615.318
1780.76	581.712
1779.93	633.381
1779.11	517.579
1778.29	617.946
1777.47	553.927
1776.65	648.168
1775.83	632.845
1775.01	565.814
1774.18	614.382
1773.36	589.951
1772.54	583.77
1771.72	629.27
1770.89	541.02
1770.07	592.59
1769.25	601.605
1768.43	622.769
1767.6	634.813
1766.78	558.784
1765.96	601.198
1765.13	546.451
1764.31	625.277
1763.49	591.789
1762.66	561.345
1761.84	618.892
1761.01	594.521
1760.19	612.617
1759.36	597.352
1758.54	585.124
1757.72	588.056
1756.89	630.386
1756.07	575.736
1755.24	608.965
1754.41	669.445
1753.59	614.816
1752.76	563.234
1751.94	584.332
1751.11	596.341
1750.29	584.134
1749.46	611.269
1748.63	662.6
1747.81	623.162
1746.98	595.836
1746.15	547.35
1745.33	647.034
1744.5	568.326
1743.67	601.477
1742.85	610.441
1742.02	655.659
1741.19	664.611
1740.36	682.621
1739.54	631.166
1738.71	697.487
1737.88	612.839
1737.05	627.827
1736.22	676.007
1735.39	645.718
1734.57	639.575
1733.74	600.254
1732.91	645.389
1732.08	684.479
1731.25	599.948
1730.42	623.961
1729.59	660.02
1728.76	659.908
1727.93	665.822
1727.1	659.684
1726.27	638.49
1725.44	647.415
1724.61	632.252
1723.78	656.226
1722.95	619.998
1722.12	643.967
1721.29	682.97
1720.46	679.846
1719.62	682.738
1718.79	640.522
1717.96	640.413
1717.13	634.292
1716.3	628.173
1715.47	694.179
1714.63	667.019
1713.8	693.943
1712.97	681.81
1712.14	645.658
1711.31	645.548
1710.47	699.475
1709.64	657.335
1708.81	684.232
1707.97	669.113
1707.14	693
1706.31	725.876
1705.47	608.793
1704.64	662.661
1703.81	662.549
1702.97	722.385
1702.14	677.308
1701.3	734.125
1700.47	677.078
1699.63	667.976
1698.8	685.832
1697.96	679.726
1697.13	727.513
1696.29	724.396
1695.46	682.372
1694.62	667.294
1693.79	670.173
1692.95	786.721
1692.12	711.816
1691.28	690.763
1690.44	717.553
1689.61	702.485
1688.77	729.264
1687.93	633.515
1687.1	746.942
1686.26	707.981
1685.42	672.019
1684.59	674.891
1683.75	755.391
1682.91	686.602
1682.07	725.286
1681.24	737.1
1680.4	695.202
1679.56	730.882
1678.72	703.913
1677.88	730.633
1677.05	733.49
1676.21	634.987
1675.37	673.627
1674.53	682.453
1673.69	741.929
1672.85	756.698
1672.01	741.676
1671.17	744.525
1670.33	747.374
1669.49	750.224
1668.65	753.074
1667.81	755.924
1666.97	720.089
1666.13	746.741
1665.29	764.461
1664.45	758.383
1663.61	758.253
1662.77	746.232
1661.93	787.72
1661.09	713.285
1660.25	739.907
1659.4	766.52
1658.56	766.389
1657.72	757.348
1656.88	816.609
1656.04	751.152
1655.19	765.866
1654.35	753.863
1653.51	768.572
1652.67	774.374
1651.82	759.41
1650.98	741.485
1650.14	747.289
1649.3	720.477
1648.45	785.571
1647.61	752.834
1646.77	794.193
1645.92	743.688
1645.08	722.824
1644.23	725.662
1643.39	805.496
1642.54	820.162
1641.7	822.983
1640.86	849.481
1640.01	778.311
1639.17	781.137
1638.32	739.586
1637.48	783.828
1636.63	825.096
1635.78	807.214
1634.94	777.513
1634.09	795.115
1633.25	797.934
1632.4	815.527
1631.56	812.433
1630.71	800.479
1629.86	767.856
1629.02	767.724
1628.17	797.116
1627.32	732.04
1626.47	773.233
1625.63	796.707
1624.78	778.869
1623.93	822.982
1623.09	846.435
1622.24	810.905
1621.39	751.802
1620.54	807.68
1619.69	792.805
1618.84	721.948
1618	804.319
1617.15	851.313
1616.3	801.098
1615.45	842.187
1614.6	738.996
1613.75	765.362
1612.9	835.868
1612.05	826.897
1611.2	812.044
1610.35	791.313
1609.5	864.707
1608.65	805.745
1607.8	802.667
1606.95	852.504
1606.1	837.662
1605.25	837.519
1604.4	781.55
1603.55	778.478
1602.7	848.837
1601.85	872.184
1600.99	822.12
1600.14	845.464
1599.29	857.06
1598.44	856.913
1597.59	839.161
1596.74	824.349
1595.88	871.138
1595.03	821.134
1594.18	850.314
1593.32	861.895
1592.47	797.263
1591.62	805.918
1590.77	814.57
1589.91	840.796
1589.06	846.51
1588.21	828.793
1587.35	831.579
1586.5	772.885
1585.64	825.44
1584.79	845.784
1583.93	828.082
1583.08	930.336
1582.23	851.199
1581.37	839.354
1580.52	871.375
1579.66	894.614
1578.81	900.307
1577.95	868.004
1577.09	905.841
1576.24	861.862
1575.38	852.951
1574.53	908.295
1573.67	826.378
1572.81	840.833
1571.96	925.342
1571.1	823.033
1570.24	878.335
1569.39	895.689
1568.53	857.613
1567.67	866.216
1566.82	880.647
1565.96	868.833
1565.1	889.089
1564.24	871.449
1563.39	856.729
1562.53	909.026
1561.67	897.217
1560.81	870.85
1559.95	896.909
1559.09	882.197
1558.23	864.579
1557.38	841.146
1556.52	881.742
1555.66	867.042
1554.8	837.803
1553.94	875.469
1553.08	881.135
1552.22	886.798
1551.36	886.646
1550.5	932.998
1549.64	906.683
1548.78	900.716
1547.92	845.365
1547.06	900.406
1546.2	879.922
1545.34	926.227
1544.47	917.359
1543.61	841.735
1542.75	873.512
1541.89	884.968
1541.03	890.618
1540.17	887.564
1539.3	919.311
1538.44	924.952
1537.58	890.004
1536.72	898.546
1535.85	965.047
1534.99	906.929
1534.13	950.229
1533.27	918.203
1532.4	909.357
1531.54	920.782
1530.68	937.994
1529.81	848.101
1528.95	937.67
1528.08	908.573
1527.22	905.523
1526.36	928.508
1525.49	1003.54
1524.63	939.754
1523.76	887.553
1522.9	904.743
1522.03	921.927
1521.17	953.553
1520.3	884.051
1519.44	918.562
1518.57	964.612
1517.7	961.558
1516.84	949.844
1515.97	972.773
1515.11	903.339
1514.24	906.069
1513.37	928.993
1512.51	923.063
1511.64	951.745
1510.77	948.697
1509.91	974.481
1509.04	928.191
1508.17	979.909
1507.3	979.739
1506.44	970.927
1505.57	878.58
1504.7	944.671
1503.83	930.11
1502.96	973.135
1502.09	970.089
1501.23	967.043
1500.36	966.876
1499.49	923.552
1498.62	949.282
1497.75	1006.64
1496.88	1006.47
1496.01	940.165
1495.14	965.874
1494.27	1011.69
1493.4	1000.02
1492.53	1014.22
1491.66	1014.04
1490.79	1005.25
1489.92	950.514
1489.05	973.319
1488.18	990.375
1487.31	1004.55
1486.44	1015.86
1485.56	978.384
1484.69	1064.27
1483.82	1015.33
1482.95	1043.83
1482.08	1003.51
1481.21	1086.47
1480.33	1051.89
1479.46	1000.13
1478.59	1051.53
1477.72	1057.07
1476.84	1085.53
1475.97	1134.03
1475.1	1148.15
1474.22	1127.91
1473.35	1113.4
1472.48	1093.18
1471.6	1141.63
1470.73	1164.32
1469.85	1224.18
1468.98	1189.65
1468.11	1243.77
1467.23	1252.13
1466.36	1203.33
1465.48	1265.99
1464.61	1345.77
1463.73	1314.11
1462.86	1279.61
1461.98	1353.64
1461.11	1330.56
1460.23	1390.28
1459.35	1304.41
1458.48	1298.48
1457.6	1358.17
1456.73	1343.67
1455.85	1329.18
1454.97	1363.17
1454.1	1388.6
1453.22	1325.64
1452.34	1379.56
1451.46	1333.73
1450.59	1421.83
1449.71	1378.85
1448.83	1310.25
1447.95	1438.17
1447.08	1440.77
1446.2	1420.59
1445.32	1443.12
1444.44	1425.79
1443.56	1496.68
1442.68	1527.71
1441.81	1547.36
1440.93	1567
1440.05	1603.69
1439.17	1640.37
1438.29	1679.88
1437.41	1742.11
1436.53	1616.78
1435.65	1536.96
1434.77	1542.37
1433.89	1508.02
1433.01	1496.4
1432.13	1453.56
1431.25	1439.11
1430.37	1419
1429.48	1398.89
1428.6	1398.65
1427.72	1318.98
1426.84	1287.56
1425.96	1298.67
1425.08	1289.94
1424.19	1292.55
1423.31	1252.65
1422.43	1348.78
1421.55	1331.54
1420.67	1223.67
1419.78	1325.42
1418.9	1322.35
1418.02	1361.76
1417.13	1403.98
1416.25	1352.8
1415.37	1428.96
1414.48	1321.2
1413.6	1332.29
1412.71	1334.89
1411.83	1244.17
1410.95	1241.12
1410.06	1246.56
1409.18	1195.47
1408.29	1251.78
1407.41	1163.98
1406.52	1251.34
1405.64	1149.45
1404.75	1253.73
1403.87	1149.05
1402.98	1225.07
1402.1	1216.39
1401.21	1238.75
1400.32	1224.43
1399.44	1229.86
1398.55	1252.21
1397.66	1184.31
1396.78	1195.38
1395.89	1285.38
1395	1242.88
1394.12	1228.57
1393.23	1298.79
1392.34	1304.2
1391.45	1213.85
1390.57	1219.27
1389.68	1227.5
1388.79	1241.36
1387.9	1243.96
1387.01	1314.09
1386.12	1218.21
1385.24	1251.75
1384.35	1240.28
1383.46	1228.82
1382.57	1267.96
1381.68	1234.01
1380.79	1253.47
1379.9	1267.3
1379.01	1255.84
1378.12	1233.15
1377.23	1291.91
1376.34	1227.1
1375.45	1249.35
1374.56	1246.33
1373.67	1288.21
1372.78	1299.21
1371.89	1262.51
1370.99	1279.12
1370.1	1236.83
1369.21	1298.3
1368.32	1205.55
1367.43	1272.62
1366.54	1261.19
1365.64	1216.13
1364.75	1252.34
1363.86	1240.92
1362.97	1198.69
1362.07	1290.89
1361.18	1271.06
1360.29	1209.26
1359.39	1211.85
1358.5	1200.44
1357.61	1186.24
1356.71	1166.46
1355.82	1160.66
1354.93	1163.25
1354.03	1135.09
1353.14	1140.48
1352.24	1196.18
1351.35	1173.62
1350.45	1167.82
1349.56	1108.96
1348.66	1105.97
1347.77	1116.95
1346.87	1113.96
1345.98	1144.47
1345.08	1029.84
1344.18	1040.83
1343.29	1062.96
1342.39	1040.46
1341.5	1043.07
1340.6	1034.52
1339.7	1159.8
1338.81	1123.36
1337.91	1011.68
1337.01	961.348
1336.11	1047.55
1335.22	1027.87
1334.32	1024.9
1333.42	1010.8
1332.52	954.939
1331.63	996.526
1330.73	965.738
1329.83	979.482
1328.93	1026.61
1328.03	962.449
1327.13	959.499
1326.23	939.866
1325.33	970.284
1324.43	958.995
1323.53	892.126
1322.64	953.102
1321.74	902.927
1320.84	883.324
1319.94	897.056
1319.03	913.559
1318.13	888.413
1317.23	866.051
1316.33	901.978
1315.43	862.972
1314.53	937.728
1313.63	923.695
1312.73	915.213
1311.83	851.276
1310.92	917.664
1310.02	892.556
1309.12	909.028
1308.22	856.221
1307.32	892.087
1306.41	914.09
1305.51	880.696
1304.61	852.852
1303.71	899.767
1302.8	838.712
1301.9	918.824
1301	982.305
1300.09	962.767
1299.19	923.873
1298.28	990.085
1297.38	1056.27
1296.48	1174.97
1295.57	1351.67
1294.67	1514.49
1293.76	1456.19
1292.86	1303.99
1291.95	1207.08
1291.05	1016.31
1290.14	886.356
1289.24	847.55
1288.33	789.436
1287.42	800.336
1286.52	750.528
1285.61	722.808
1284.71	758.54
1283.8	717.039
1282.89	686.582
1281.99	703.003
1281.08	733.199
1280.17	724.803
1279.26	664.056
1278.36	685.979
1277.45	663.823
1276.54	649.936
1275.63	669.096
1274.72	668.979
1273.82	646.841
1272.91	641.223
1272	682.384
1271.09	679.513
1270.18	596.876
1269.27	676.524
1268.36	670.905
1267.45	651.544
1266.54	610.199
1265.64	634.825
1264.73	615.48
1263.82	601.636
1262.91	604.277
1261.99	631.633
1261.08	609.555
1260.17	628.665
1259.26	592.872
1258.35	636.677
1257.44	603.639
1256.53	619.993
1255.62	554.055
1254.71	603.32
1253.79	548.376
1252.88	551.021
1251.97	624.929
1251.06	611.117
1250.15	572.65
1249.23	525.978
1248.32	564.231
1247.41	580.563
1246.49	594.15
1245.58	574.883
1244.67	506.355
1243.75	547.315
1242.84	549.954
1241.93	536.179
1241.01	574.377
1240.1	577.01
1239.18	563.238
1238.27	527.6
1237.35	513.841
1236.44	603.93
1235.53	527.321
1234.61	538.155
1233.69	532.598
1232.78	518.85
1231.86	567.904
1230.95	543.236
1230.03	548.598
1229.12	507.569
1228.2	542.948
1227.28	526.485
1226.37	485.481
1225.45	507.211
1224.53	564.377
1223.62	553.373
1222.7	550.55
1221.78	495.953
1220.86	547.631
1219.95	495.778
1219.03	539.267
1218.11	479.264
1217.19	514.573
1216.27	528.093
1215.35	511.67
1214.44	508.858
1213.52	525.093
1212.6	535.881
1211.68	481.392
1210.76	467.71
1209.84	475.784
1208.92	483.855
1208	478.334
1207.08	461.945
1206.16	472.731
1205.24	505.244
1204.32	486.143
1203.4	469.765
1202.48	513.121
1201.56	461.456
1200.64	472.23
1199.71	488.427
1198.79	493.767
1197.87	512.667
1196.95	450.2
1196.03	466.389
1195.1	482.574
1194.18	501.462
1193.26	498.664
1192.34	485.027
1191.41	468.686
1190.49	482.147
1189.57	482.062
1188.65	506.346
1187.72	471.062
1186.8	454.738
1185.87	470.895
1184.95	497.87
1184.03	468.023
1183.1	438.187
1182.18	448.927
1181.25	467.775
1180.33	451.471
1179.4	478.421
1178.48	470.229
1177.55	421.51
1176.63	464.659
1175.7	461.876
1174.78	456.393
1173.85	464.412
1172.92	510.223
1172	526.328
1171.07	531.632
1170.15	523.443
1169.22	507.164
1168.29	523.257
1167.36	490.804
1166.44	488.021
1165.51	469.064
1164.58	450.114
1163.65	452.729
1162.73	425.705
1161.8	436.405
1160.87	444.408
1159.94	452.408
1159.01	463.097
1158.08	398.408
1157.16	433.327
1156.23	433.25
1155.3	435.864
1154.37	451.926
1153.44	449.157
1152.51	449.077
1151.58	440.932
1150.65	475.799
1149.72	413.899
1148.79	456.82
1147.86	445.992
1146.93	456.658
1146	402.862
1145.07	429.643
1144.13	456.415
1143.2	442.912
1142.27	356.951
1141.34	496.422
1140.41	458.773
1139.48	456.01
1138.54	455.929
1137.61	469.255
1136.68	493.3
1135.75	463.727
1134.81	442.205
1133.88	543.949
1132.95	535.815
1132.01	546.434
1131.08	661.496
1130.15	747.064
1129.21	765.671
1128.28	848.512
1127.35	762.723
1126.41	743.857
1125.48	671.492
1124.54	620.552
1123.61	593.698
1122.67	556.159
1121.74	532
1120.8	523.886
1119.87	462.328
1118.93	446.214
1117.99	454.149
1117.06	424.687
1116.12	445.976
1115.19	448.566
1114.25	384.417
1113.31	419.047
1112.38	392.286
1111.44	424.234
1110.5	389.479
1109.56	453.422
1108.63	381.34
1107.69	391.937
1106.75	397.199
1105.81	389.132
1104.88	413.046
1103.94	415.637
1103	386.261
1102.06	404.836
1101.12	388.786
1100.18	364.755
1099.24	378
1098.3	369.948
1097.36	388.509
1096.42	377.798
1095.49	417.631
1094.55	385.642
1093.6	414.823
1092.66	369.552
1091.72	412.017
1090.78	419.917
1089.84	398.584
1088.9	441.021
1087.96	411.724
1087.02	403.683
1086.08	408.922
1085.14	430.087
1084.19	419.393
1083.25	395.433
1082.31	405.976
1081.37	424.475
1080.43	411.137
1079.48	445.54
1078.54	373.868
1077.6	421.521
1076.65	394.94
1075.71	349.817
1074.77	405.397
1073.82	381.482
1072.88	415.847
1071.93	405.18
1070.99	410.403
1070.05	423.567
1069.1	436.725
1068.16	428.708
1067.21	449.799
1066.27	513.208
1065.32	568.66
1064.38	613.514
1063.43	639.844
1062.49	705.818
1061.54	676.618
1060.59	684.425
1059.65	597.114
1058.7	567.949
1057.75	520.307
1056.81	448.915
1055.86	396.031
1054.91	424.997
1053.97	364.218
1053.02	364.153
1052.07	350.897
1051.12	337.645
1050.18	316.485
1049.23	379.714
1048.28	350.646
1047.33	334.767
1046.38	347.885
1045.43	358.363
1044.48	321.415
1043.54	347.698
1042.59	331.834
1041.64	323.876
1040.69	352.777
1039.74	342.185
1038.79	334.229
1037.84	323.644
1036.89	307.801
1035.94	323.528
1034.99	312.951
1034.04	333.93
1033.08	289.179
1032.13	307.526
1031.18	291.703
1030.23	310.043
1029.28	338.885
1028.33	291.546
1027.37	344.016
1026.42	320.323
1025.47	330.767
1024.52	304.461
1023.57	325.4
1022.61	317.47
1021.66	306.92
1020.71	270.146
1019.75	296.321
1018.8	311.999
1017.85	272.623
1016.89	309.266
1015.94	296.109
1014.98	322.255
1014.03	303.861
1013.07	293.331
1012.12	303.752
1011.16	340.351
1010.21	301.026
1009.25	287.886
1008.3	272.134
1007.34	300.864
1006.39	311.273
1005.43	298.14
1004.48	282.398
1003.52	245.747
1002.56	300.594
1001.61	297.927
1000.65	279.583
999.693	321.332
998.736	295.154
997.778	292.49
996.821	305.492
995.863	255.837
994.905	271.451
993.947	263.574
992.989	287.009
992.031	271.305
991.072	328.638
990.114	258.169
989.155	260.73
988.196	328.46
987.237	289.306
986.277	257.983
985.318	304.835
984.358	307.385
983.398	315.143
982.438	236.966
981.478	288.994
980.517	278.53
979.557	262.864
978.596	283.634
977.635	293.99
976.674	278.33
975.713	286.082
974.751	267.829
973.79	252.182
972.828	285.928
971.866	272.882
970.904	267.636
969.942	285.773
968.979	283.125
968.017	272.686
967.054	264.847
966.091	272.587
965.128	272.538
964.164	285.465
963.201	275.035
962.237	264.609
961.273	280.123
960.309	280.073
959.345	295.579
958.381	269.603
957.416	264.371
956.451	272.097
955.486	264.275
954.521	225.371
953.556	279.72
952.591	246.006
951.625	277.03
950.659	284.746
949.693	313.164
948.727	300.17
947.761	256.133
946.794	230.22
945.828	256.041
944.861	258.581
943.894	268.875
942.927	263.657
941.959	222.259
940.992	268.73
940.024	281.599
939.056	307.378
938.088	273.75
937.12	273.7
936.152	252.998
935.183	273.602
934.214	304.52
933.246	283.824
932.276	239.917
931.307	281.142
930.338	291.407
929.368	291.354
928.398	270.678
927.428	286.094
926.458	278.312
925.488	255.073
924.517	273.059
923.547	285.888
922.576	290.986
921.605	280.635
920.634	290.881
919.662	283.108
918.691	293.349
917.719	283.005
916.747	295.816
915.775	282.903
914.803	275.138
913.831	293.085
912.858	313.595
911.885	305.829
910.912	280.078
909.939	290.304
908.966	323.643
907.992	292.767
907.019	259.334
906.045	274.691
905.071	302.875
904.097	272.025
903.122	261.713
902.148	305.276
901.173	292.397
900.198	289.779
899.223	271.779
898.248	292.238
897.273	274.244
896.297	289.57
895.321	289.517
894.345	299.712
893.369	317.586
892.393	302.164
891.416	268.826
890.44	299.495
889.463	307.119
888.486	307.063
887.509	266.073
886.531	314.626
885.554	258.304
884.576	301.727
883.598	294.002
882.62	299.061
881.642	306.674
880.664	309.174
879.685	268.243
878.706	347.375
877.727	293.683
876.748	319.163
875.769	257.837
874.789	296.076
873.81	301.126
872.83	326.586
871.85	318.874
870.87	290.76
869.889	280.507
868.909	277.907
867.928	298.25
866.947	316.036
865.966	282.852
864.985	305.731
864.003	303.128
863.022	305.62
862.04	338.667
861.058	313.147
860.076	272.363
859.094	295.218
858.111	307.887
857.128	310.376
856.146	274.709
855.162	330.608
854.179	282.237
853.196	312.693
852.212	256.717
851.229	312.579
850.245	276.951
849.261	307.385
848.276	279.39
847.292	284.418
846.307	291.984
845.322	297.008
844.337	284.264
843.352	294.362
842.367	299.383
841.381	286.645
840.396	268.84
839.41	243.433
838.424	283.954
837.437	304.181
836.451	301.591
835.464	266.062
834.477	255.88
833.49	311.559
832.503	273.514
831.516	278.529
830.528	288.605
829.541	288.552
828.553	311.276
827.565	321.34
826.577	293.454
825.588	280.754
824.6	318.636
823.611	280.652
822.622	290.713
821.633	303.298
820.643	277.972
819.654	262.762
818.664	280.397
817.674	252.564
816.684	282.82
815.694	292.868
814.704	297.863
813.713	287.714
812.723	307.848
811.732	264.903
810.741	292.601
809.749	284.982
808.758	282.409
807.766	302.526
806.774	274.744
805.782	337.697
804.79	284.723
803.798	292.229
802.805	294.694
801.812	292.122
800.819	299.622
799.826	307.12
798.833	266.793
797.84	294.426
796.846	332.112
795.852	352.176
794.858	276.659
793.864	334.445
792.87	311.757
791.875	304.159
790.88	294.05
789.885	261.33
788.89	306.505
787.895	331.568
786.9	293.836
785.904	266.162
784.908	318.834
783.912	268.575
782.916	286.093
781.92	248.404
780.923	268.428
779.926	243.297
778.929	278.361
777.932	320.934
776.935	265.725
775.938	283.221
774.94	305.723
773.942	293.14
772.944	308.116
771.946	290.528
770.948	255.418
769.949	260.378
768.95	300.382
767.951	325.354
766.952	290.263
765.953	270.196
764.954	295.16
763.954	285.102
762.954	272.548
761.954	274.998
760.954	287.446
759.954	277.397
758.953	302.332
757.952	289.786
756.951	297.226
755.95	284.686
754.949	292.124
753.948	282.085
752.946	304.497
751.944	279.487
750.942	314.365
749.94	309.319
748.937	316.744
747.935	289.257
746.932	281.725
745.929	286.658
744.926	309.036
743.923	264.128
742.919	276.536
741.916	306.376
740.912	288.887
739.908	263.934
738.903	298.739
737.899	321.086
736.894	288.675
735.89	333.409
734.885	315.934
733.88	348.21
732.874	273.543
731.869	280.952
730.863	300.787
729.857	278.364
728.851	335.466
727.845	285.715
726.838	332.86
725.832	302.996
724.825	290.525
723.818	330.194
722.811	270.561
721.804	312.701
720.796	300.237
719.788	297.701
718.78	287.725
717.772	282.712
716.764	304.976
715.756	285.088
714.747	297.428
713.738	289.939
712.729	267.587
711.72	371.581
710.71	334.362
709.701	302.108
708.691	269.867
707.681	341.604
706.671	311.842
705.661	287.04
704.65	286.987
703.64	274.567
702.629	274.516
701.618	301.665
700.606	274.416
699.595	296.611
698.583	269.372
697.572	289.09
696.56	291.507
695.547	254.404
694.535	303.747
693.523	318.506
692.51	313.51
691.497	269.026
690.484	293.654
689.471	303.469
688.457	318.213
687.443	300.891
686.43	276.177
685.416	290.919
684.401	273.61
683.387	300.67
682.372	285.83
681.358	310.414
680.343	307.893
679.327	290.598
678.312	295.469
677.297	305.262
676.281	290.438
675.265	292.845
674.249	312.475
673.233	309.957
672.216	290.224
671.2	290.171
670.183	275.366
669.166	285.148
668.148	297.384
667.131	307.158
666.113	284.99
665.096	299.676
664.078	302.077
663.06	287.288
662.041	292.146
661.023	316.637
660.004	294.492
658.985	323.882
657.966	304.197
656.947	345.837
655.927	313.894
654.908	291.769
653.888	333.389
652.868	316.171
651.848	303.861
650.827	325.855
649.807	293.95
648.786	286.549
647.765	325.675
646.744	306.029
645.723	318.212
644.701	315.706
643.679	320.541
642.657	335.161
641.635	278.841
640.613	305.691
639.591	298.299
638.568	317.801
637.545	312.854
636.522	276.141
635.499	307.852
634.475	329.781
633.452	337.047
632.428	307.682
631.404	302.742
630.38	307.569
629.356	341.68
628.331	331.856
627.306	280.562
626.281	307.342
625.256	307.285
624.231	307.228
623.205	326.674
622.18	319.302
621.154	319.243
620.128	314.311
619.102	319.125
618.075	302.017
617.049	323.878
616.022	335.991
614.995	321.324
613.968	323.698
612.94	352.839
611.913	301.682
610.885	316.221
609.857	330.755
608.829	325.831
607.8	333.064
606.772	303.834
605.743	330.511
604.714	308.582
603.685	303.666
602.656	352.187
601.626	322.981
600.597	332.633
599.567	313.152
598.537	330.083
597.507	388.261
596.476	305.699
595.446	327.474
594.415	329.839
593.384	337.053
592.353	346.688
591.321	356.319
590.29	324.748
589.258	329.534
588.226	324.628
587.194	394.81
586.162	326.929
585.129	338.975
584.096	302.6
583.063	350.952
582.03	309.748
580.997	350.822
579.964	348.338
578.93	357.947
577.896	340.954
576.862	352.979
575.828	365
574.793	362.516
573.759	355.2
572.724	343.054
571.689	342.991
570.654	333.267
569.618	347.693
568.583	350.043
567.547	345.15
566.511	349.913
565.475	296.768
564.438	337.722
563.402	325.6
562.365	349.653
561.328	378.52
560.291	335.061
559.254	359.099
558.216	356.623
557.178	337.284
556.141	373.352
555.102	373.283
554.064	300.978
553.026	358.7
551.987	363.447
550.948	327.282
549.909	392.185
548.87	315.133
547.83	360.772
546.791	358.301
545.751	367.851
544.711	362.975
543.671	365.311
542.63	360.437
541.59	345.956
540.549	365.108
539.508	391.457
538.467	376.978
537.425	340.897
536.384	398.44
535.342	362.369
534.3	379.097
533.258	359.835
532.216	347.776
531.173	347.712
530.13	352.442
529.088	333.2
528.044	373.881
527.001	371.415
525.958	373.742
524.914	328.161
523.87	364.024
522.826	395.084
521.782	373.464
520.737	359.034
519.693	378.112
518.648	356.507
517.603	370.794
516.557	394.643
515.512	368.265
514.466	363.415
513.42	375.299
512.374	377.62
511.328	387.107
510.282	382.257
509.235	394.129
508.188	358.233
507.141	343.839
506.094	405.846
505.047	355.646
503.999	360.352
502.951	357.899
501.903	379.303
500.855	381.617
499.807	403.008
