3200.66	37.8892
3200.06	42.0991
3199.47	33.6742
3198.87	54.7123
3198.28	21.04
3197.69	42.0737
3197.09	-8.41346
3196.5	21.0305
3195.9	16.8218
3195.31	46.2531
3194.71	33.6335
3194.12	16.8142
3193.52	42.0292
3192.93	8.40456
3192.33	29.4115
3191.74	25.2061
3191.14	25.2022
3190.55	20.9987
3189.95	46.1901
3189.36	67.1755
3188.76	8.39567
3188.17	41.972
3187.57	25.1794
3186.97	50.3512
3186.38	33.5624
3185.78	20.9733
3185.19	-4.19403
3184.59	41.9339
3183.99	29.3493
3183.4	8.38424
3182.8	16.7659
3182.2	12.5726
3181.61	20.9511
3181.01	46.0854
3180.41	20.9448
3179.82	37.6948
3179.22	12.563
3178.62	20.9352
3178.03	29.3049
3177.43	33.4862
3176.83	33.4812
3176.23	-4.18451
3175.64	16.7355
3175.04	29.2827
3174.44	12.5478
3173.84	20.9099
3173.25	54.3575
3172.65	29.265
3172.05	50.161
3171.45	25.0767
3170.85	50.1458
3170.26	58.4945
3169.66	25.0653
3169.06	45.9461
3168.46	20.8814
3167.86	54.2834
3167.26	50.1002
3166.66	45.9182
3166.06	41.7375
3165.47	45.9043
3164.87	29.2074
3164.27	45.8904
3163.67	29.1986
3163.07	-20.8529
3162.47	54.2094
3161.87	41.6933
3161.27	25.0122
3160.67	25.0084
3160.07	4.16743
3159.47	62.502
3158.87	33.3293
3158.27	16.6621
3157.67	24.9894
3157.07	33.3142
3156.47	62.4546
3155.87	37.4671
3155.27	54.1109
3154.67	37.4557
3154.07	29.1278
3153.46	16.6419
3152.86	33.2788
3152.26	45.7514
3151.66	24.9515
3151.06	12.4739
3150.46	41.5733
3149.86	16.6268
3149.26	20.7803
3148.65	29.0881
3148.05	37.3932
3147.45	41.5417
3146.85	33.2284
3146.25	29.0704
3145.64	41.5228
3145.04	12.455
3144.44	45.6613
3143.84	20.752
3143.24	24.8986
3142.63	66.3861
3142.03	4.1485
3141.43	33.183
3140.82	49.7669
3140.22	24.8797
3139.62	8.29197
3139.02	58.035
3138.41	58.0262
3137.81	37.2969
3137.21	49.7216
3136.6	20.7142
3136	-4.14221
3135.4	41.4158
3134.79	62.1142
3134.19	53.8242
3133.58	28.9778
3132.98	45.5297
3132.38	37.2459
3131.77	53.7915
3131.17	33.0974
3130.56	33.0924
3129.96	28.9514
3129.35	0
3128.75	78.5586
3128.14	33.0723
3127.54	45.4675
3126.93	49.5933
3126.33	53.7179
3125.72	41.3152
3125.12	49.5707
3124.51	33.0421
3123.91	37.1667
3123.3	28.9031
3122.7	-12.3851
3122.09	49.533
3121.49	53.6526
3120.88	41.265
3120.27	37.1328
3119.67	16.501
3119.06	49.4954
3118.46	24.7439
3117.85	24.7402
3117.24	28.8591
3116.64	41.2211
3116.03	49.4578
3115.42	53.5711
3114.82	16.4809
3114.21	37.0764
3113.6	32.9518
3113	41.1835
3112.39	53.5303
3111.78	45.288
3111.17	37.0482
3110.57	53.5059
3109.96	57.613
3109.35	49.375
3108.74	49.3675
3108.14	49.36
3107.53	16.4508
3106.92	45.2329
3106.31	74.0062
3105.7	49.3299
3105.1	45.2122
3104.49	20.5479
3103.88	24.6537
3103.27	28.7583
3102.66	45.1847
3102.05	49.2849
3101.44	45.1709
3100.84	49.2699
3100.23	32.8416
3099.62	53.3594
3099.01	45.1434
3098.4	20.5166
3097.79	12.3081
3097.18	41.0207
3096.57	32.8116
3095.96	36.9074
3095.35	41.002
3094.74	86.091
3094.13	16.3958
3093.52	24.5899
3092.91	40.977
3092.3	40.9707
3091.69	49.1574
3091.08	86.0123
3090.47	28.6664
3089.86	24.5675
3089.25	36.8456
3088.64	12.28
3088.03	24.5562
3087.42	49.105
3086.81	61.3718
3086.19	28.6358
3085.58	40.9021
3084.97	20.4479
3084.36	44.9786
3083.75	44.9717
3083.14	28.614
3082.53	44.958
3081.91	53.1241
3081.3	20.4292
3080.69	32.6818
3080.08	49.0152
3079.47	44.9237
3078.85	49.0002
3078.24	40.8273
3077.63	48.9853
3077.02	65.3037
3076.4	48.9703
3075.79	65.2838
3075.18	53.035
3074.57	61.1849
3073.95	44.862
3073.34	106.021
3072.73	44.8484
3072.11	65.224
3071.5	61.1382
3070.89	52.9783
3070.27	48.8956
3069.66	93.7023
3069.05	48.8807
3068.43	20.3638
3067.82	65.1543
3067.2	28.5007
3066.59	65.1344
3065.98	69.1948
3065.36	61.0449
3064.75	73.2427
3064.13	48.821
3063.52	44.7457
3062.9	69.1419
3062.29	28.4659
3061.67	56.923
3061.06	85.3715
3060.44	44.7116
3059.83	44.7047
3059.21	77.2055
3058.6	77.1937
3057.98	69.0575
3057.37	40.6158
3056.75	52.7925
3056.14	44.6637
3055.52	52.7764
3054.9	56.8274
3054.29	60.8772
3053.67	68.9836
3053.06	40.5724
3052.44	40.5662
3051.82	64.896
3051.21	89.2183
3050.59	93.2594
3049.97	60.8121
3049.36	60.8028
3048.74	68.8993
3048.12	24.3137
3047.51	76.9815
3046.89	93.1739
3046.27	68.8571
3045.65	56.6972
3045.04	64.7869
3044.42	20.2428
3043.8	60.7191
3043.18	48.5678
3042.57	40.467
3041.95	84.9677
3041.33	44.5001
3040.71	48.5381
3040.09	52.5749
3039.48	48.5233
3038.86	40.4299
3038.24	72.7626
3037.62	56.5845
3037	48.4936
3036.38	44.4456
3035.76	64.6383
3035.14	56.5499
3034.53	80.7731
3033.91	68.6466
3033.29	80.7484
3032.67	40.368
3032.05	64.5789
3031.43	72.6402
3030.81	56.4893
3030.19	72.6179
3029.57	68.5731
3028.95	52.4302
3028.33	64.5196
3027.71	80.6372
3027.09	76.5936
3026.47	48.3675
3025.85	44.3301
3025.23	84.6171
3024.61	68.4891
3023.99	48.3378
3023.37	96.6608
3022.75	84.5653
3022.13	84.5523
3021.5	96.6164
3020.88	52.3259
3020.26	48.2934
3019.64	56.3337
3019.02	80.4643
3018.4	52.2938
3017.78	80.4397
3017.15	64.3419
3016.53	52.2697
3015.91	52.2617
3015.29	88.4294
3014.67	76.3591
3014.04	60.2743
3013.42	80.3533
3012.8	52.2217
3012.18	76.3123
3011.56	84.3322
3010.93	84.3193
3010.31	44.1605
3009.69	76.2654
3009.06	76.2537
3008.44	60.1911
3007.82	64.194
3007.19	92.2647
3006.57	84.2287
3005.95	72.185
3005.32	96.2319
3004.7	88.199
3004.08	112.236
3003.45	64.1251
3002.83	72.1296
3002.21	56.0922
3001.58	84.1254
3000.96	52.0696
3000.33	48.0569
2999.71	52.0536
2999.08	60.0527
2998.46	104.075
2997.84	64.0365
2997.21	80.0333
2996.59	92.0242
2995.96	76.0083
2995.34	87.9961
2994.71	103.979
2994.09	47.9831
2993.46	91.9536
2992.83	111.926
2992.21	59.9513
2991.58	91.9112
2990.96	55.9373
2990.33	103.868
2989.71	95.8631
2989.08	91.8547
2988.45	83.8544
2987.83	99.8114
2987.2	107.78
2986.58	63.8597
2985.95	59.8592
2985.32	107.73
2984.7	99.7347
2984.07	103.708
2983.44	99.704
2982.82	87.7261
2982.19	111.634
2981.56	131.549
2980.93	103.628
2980.31	71.7317
2979.68	83.6742
2979.05	63.7419
2978.42	99.5815
2977.8	83.6356
2977.17	115.479
2976.54	95.5541
2975.91	107.482
2975.28	99.5049
2974.66	75.6121
2974.03	119.369
2973.4	107.416
2972.77	119.332
2972.14	95.4512
2971.51	119.296
2970.88	83.4941
2970.26	123.234
2969.63	115.266
2969	111.274
2968.37	119.204
2967.74	95.3485
2967.11	131.084
2966.48	103.262
2965.85	83.3914
2965.22	131.023
2964.59	134.973
2963.96	99.2296
2963.33	119.057
2962.7	150.783
2962.07	126.955
2961.44	138.836
2960.81	130.882
2960.18	91.2069
2959.55	122.912
2958.92	158.572
2958.29	158.547
2957.66	146.634
2957.03	158.499
2956.4	126.779
2955.76	166.372
2955.13	138.622
2954.5	138.601
2953.87	142.539
2953.24	98.9701
2952.61	154.37
2951.98	170.176
2951.34	114.752
2950.71	142.429
2950.08	166.142
2949.45	134.475
2948.82	162.136
2948.18	138.387
2947.55	162.086
2946.92	130.439
2946.29	221.317
2945.65	146.205
2945.02	189.642
2944.39	177.762
2943.76	169.835
2943.12	130.319
2942.49	177.68
2941.86	181.6
2941.22	209.203
2940.59	193.384
2939.96	295.95
2939.32	228.833
2938.69	209.074
2938.05	244.539
2937.42	216.896
2936.79	205.034
2936.15	228.656
2935.52	260.155
2934.88	248.292
2934.25	299.48
2933.61	271.854
2932.98	307.266
2932.34	275.709
2931.71	291.419
2931.08	244.124
2930.44	248.023
2929.81	283.412
2929.17	295.175
2928.53	259.714
2927.9	291.149
2927.26	322.575
2926.63	338.258
2925.99	357.869
2925.36	255.581
2924.72	342.033
2924.08	298.741
2923.45	306.555
2922.81	318.297
2922.18	314.319
2921.54	353.554
2920.9	329.933
2920.27	306.319
2919.63	282.712
2918.99	337.632
2918.36	337.579
2917.72	325.753
2917.08	345.323
2916.44	345.27
2915.81	333.448
2915.17	329.474
2914.53	349.032
2913.9	309.767
2913.26	325.401
2912.62	305.751
2911.98	309.623
2911.34	344.843
2910.71	352.626
2910.07	360.406
2909.43	399.519
2908.79	375.96
2908.15	379.818
2907.51	352.354
2906.88	391.443
2906.24	356.158
2905.6	360.016
2904.96	387.349
2904.32	375.553
2903.68	414.609
2903.04	406.723
2902.4	375.379
2901.76	410.507
2901.12	426.08
2900.48	402.563
2899.84	429.855
2899.2	414.16
2898.56	394.563
2897.92	445.28
2897.28	398.347
2896.64	378.761
2896	452.881
2895.36	405.969
2894.72	448.838
2894.08	421.452
2893.44	464.306
2892.8	522.751
2892.16	510.969
2891.52	428.991
2890.88	491.314
2890.24	448.352
2889.59	428.792
2888.95	448.213
2888.31	510.494
2887.67	510.415
2887.03	494.753
2886.39	490.781
2885.74	525.756
2885.1	564.613
2884.46	533.379
2883.82	552.76
2883.18	595.487
2882.53	544.806
2881.89	653.666
2881.25	676.906
2880.6	692.36
2879.96	750.588
2879.32	793.245
2878.68	750.356
2878.03	750.239
2877.39	715.143
2876.75	648.969
2876.1	641.098
2875.46	606.035
2874.82	598.173
2874.17	516.523
2873.53	512.56
2872.88	442.597
2872.24	446.41
2871.6	465.747
2870.95	477.317
2870.31	485.003
2869.66	391.821
2869.02	457.701
2868.37	418.847
2867.73	453.681
2867.08	410.963
2866.44	457.417
2865.79	441.842
2865.15	465.025
2864.5	453.329
2863.86	453.259
2863.21	433.821
2862.57	480.228
2861.92	453.048
2861.28	437.491
2860.63	464.52
2859.98	507.022
2859.34	448.897
2858.69	491.388
2858.05	572.552
2857.4	510.576
2856.75	487.292
2856.11	506.55
2855.46	483.274
2854.81	564.377
2854.17	564.289
2853.52	564.201
2852.87	602.752
2852.23	567.889
2851.58	598.702
2850.93	544.541
2850.28	644.853
2849.64	637.031
2848.99	675.534
2848.34	648.412
2847.69	729.35
2847.05	686.794
2846.4	694.403
2845.75	686.581
2845.1	728.896
2844.45	701.791
2843.8	713.248
2843.16	682.299
2842.51	682.193
2841.86	701.355
2841.21	701.246
2840.56	574.008
2839.91	570.067
2839.26	573.829
2838.61	550.636
2837.96	496.651
2837.31	438.832
2836.66	454.159
2836.01	423.303
2835.36	365.523
2834.72	373.16
2834.07	346.177
2833.42	361.507
2832.76	253.784
2832.11	299.88
2831.46	322.898
2830.81	242.136
2830.16	295.897
2829.51	230.534
2828.86	215.131
2828.21	211.257
2827.56	192.022
2826.91	215.031
2826.26	195.801
2825.61	191.932
2824.96	195.74
2824.3	184.197
2823.65	211.027
2823	172.631
2822.35	191.783
2821.7	199.423
2821.04	141.875
2820.39	168.69
2819.74	176.33
2819.09	168.637
2818.44	187.771
2817.78	187.742
2817.13	176.22
2816.48	160.872
2815.83	187.654
2815.17	183.796
2814.52	133.997
2813.87	156.944
2813.21	156.919
2812.56	172.201
2811.91	183.653
2811.25	172.148
2810.6	179.771
2809.95	191.216
2809.29	187.362
2808.64	160.571
2807.98	95.5631
2807.33	133.768
2806.68	160.496
2806.02	160.471
2805.37	171.906
2804.71	168.06
2804.06	160.396
2803.4	179.463
2802.75	187.07
2802.09	141.235
2801.44	133.58
2800.78	171.719
2800.13	141.169
2799.47	144.962
2798.82	144.939
2798.16	129.662
2797.51	122.016
2796.85	163.933
2796.19	182.967
2795.54	179.127
2794.88	160.046
2794.23	152.401
2793.57	167.615
2792.91	140.927
2792.26	178.987
2791.6	163.729
2790.94	144.668
2790.29	152.258
2789.63	133.205
2788.97	129.379
2788.32	148.382
2787.66	155.967
2787	155.943
2786.34	155.919
2785.69	167.301
2785.03	148.267
2784.37	182.453
2783.71	148.22
2783.06	155.797
2782.4	163.371
2781.74	189.937
2781.08	155.724
2780.42	148.104
2779.76	186.051
2779.11	148.058
2778.45	151.831
2777.79	148.012
2777.13	174.551
2776.47	159.348
2775.81	159.323
2775.15	201.019
2774.49	159.273
2773.83	163.04
2773.17	166.805
2772.51	204.683
2771.86	151.594
2771.2	143.991
2770.54	117.448
2769.88	166.675
2769.22	124.987
2768.56	212.065
2767.9	170.383
2767.23	189.285
2766.57	166.545
2765.91	132.458
2765.25	189.196
2764.59	162.683
2763.93	170.223
2763.27	173.979
2762.61	170.17
2761.95	151.238
2761.29	177.677
2760.63	147.411
2759.96	211.634
2759.3	181.373
2758.64	151.12
2757.98	185.093
2757.32	151.073
2756.65	169.93
2755.99	154.801
2755.33	109.476
2754.67	166.076
2754.01	196.241
2753.34	181.117
2752.68	199.952
2752.02	188.605
2751.35	203.661
2750.69	184.775
2750.03	180.975
2749.37	192.256
2748.7	222.379
2748.04	180.89
2747.38	203.47
2746.71	173.299
2746.05	203.406
2745.38	177.011
2744.72	143.093
2744.06	203.311
2743.39	180.692
2742.73	176.9
2742.06	210.741
2741.4	214.471
2740.73	188.103
2740.07	199.358
2739.41	203.088
2738.74	195.535
2738.08	240.621
2737.41	180.437
2736.75	187.926
2736.08	214.202
2735.41	210.411
2734.75	217.892
2734.08	229.126
2733.42	202.801
2732.75	187.749
2732.09	255.299
2731.42	232.736
2730.75	206.427
2730.09	217.653
2729.42	255.139
2728.76	240.093
2728.09	251.308
2727.42	195.015
2726.76	232.481
2726.09	198.702
2725.42	217.414
2724.75	269.851
2724.09	228.588
2723.42	217.312
2722.75	232.262
2722.09	265.936
2721.42	235.934
2720.75	209.686
2720.08	258.323
2719.41	258.282
2718.75	250.757
2718.08	258.201
2717.41	231.971
2716.74	224.452
2716.07	209.456
2715.41	239.341
2714.74	257.999
2714.07	254.22
2713.4	224.276
2712.73	239.19
2712.06	242.89
2711.39	227.907
2710.72	242.813
2710.05	216.63
2709.38	242.737
2708.71	250.166
2708.04	246.394
2707.37	235.157
2706.7	261.245
2706.03	216.426
2705.36	235.046
2704.69	223.818
2704.02	193.946
2703.35	264.769
2702.68	231.17
2702.01	298.237
2701.34	223.643
2700.67	197.52
2700	238.477
2699.33	227.263
2698.66	208.602
2697.99	186.222
2697.32	208.536
2696.64	197.334
2695.97	223.361
2695.3	212.16
2694.63	223.291
2693.96	234.419
2693.29	219.501
2692.61	223.186
2691.94	230.589
2691.27	230.553
2690.6	245.389
2689.92	197.023
2689.25	230.444
2688.58	208.11
2687.91	237.803
2687.23	182.039
2686.56	222.87
2685.89	211.693
2685.21	200.52
2684.54	233.903
2683.87	207.881
2683.19	215.271
2682.52	248.636
2681.85	222.624
2681.17	211.46
2680.5	189.171
2679.82	189.141
2679.15	252.149
2678.48	252.109
2677.8	177.931
2677.13	240.911
2676.45	214.933
2675.78	222.309
2675.1	229.683
2674.43	225.943
2673.75	244.424
2673.08	229.575
2672.4	214.73
2671.73	229.502
2671.05	181.352
2670.37	233.13
2669.7	221.994
2669.02	196.064
2668.35	221.924
2667.67	210.795
2667	203.366
2666.32	207.031
2665.64	240.266
2664.97	221.749
2664.29	225.409
2663.61	236.458
2662.94	243.809
2662.26	192.061
2661.58	217.881
2660.91	221.539
2660.23	251.038
2659.55	247.308
2658.87	202.982
2658.2	206.64
2657.52	243.501
2656.84	239.774
2656.16	217.607
2655.49	202.822
2654.81	221.225
2654.13	232.25
2653.45	217.469
2652.77	250.603
2652.09	276.357
2651.42	202.63
2650.74	202.598
2650.06	239.396
2649.38	213.581
2648.7	213.547
2648.02	239.282
2647.34	191.396
2646.66	224.486
2645.98	191.335
2645.3	239.131
2644.62	231.737
2643.94	239.056
2643.26	235.341
2642.58	213.244
2641.9	235.267
2641.22	220.528
2640.54	253.567
2639.86	264.549
2639.18	213.076
2638.5	202.022
2637.82	260.751
2637.14	260.71
2636.46	220.284
2635.78	220.249
2635.1	216.544
2634.42	212.84
2633.73	319.21
2633.05	231.115
2632.37	260.422
2631.69	256.713
2631.01	209.005
2630.33	227.303
2629.64	278.585
2628.96	245.556
2628.28	219.866
2627.6	234.487
2626.91	263.756
2626.23	238.075
2625.55	227.051
2624.87	216.031
2624.18	256.267
2623.5	248.906
2622.82	208.609
2622.13	263.464
2621.45	226.836
2620.77	215.826
2620.08	223.107
2619.4	223.071
2618.72	263.256
2618.03	233.968
2617.35	241.241
2616.67	270.44
2615.98	266.743
2615.3	259.394
2614.61	241.089
2613.93	197.223
2613.24	248.316
2612.56	266.532
2611.87	251.888
2611.19	240.898
2610.5	244.509
2609.82	226.226
2609.13	237.135
2608.45	244.393
2607.76	280.825
2607.08	244.316
2606.39	236.985
2605.71	266.11
2605.02	236.91
2604.33	247.805
2603.65	244.122
2602.96	247.726
2602.27	236.76
2601.59	269.499
2600.9	273.098
2600.21	225.725
2599.53	258.451
2598.84	232.933
2598.15	254.73
2597.47	276.52
2596.78	254.649
2596.09	192.775
2595.41	225.475
2594.72	265.436
2594.03	236.31
2593.34	221.733
2592.65	265.31
2591.97	236.197
2591.28	257.959
2590.59	239.755
2589.9	225.189
2589.21	232.416
2588.52	272.319
2587.84	243.233
2587.15	257.714
2586.46	268.561
2585.77	264.889
2585.08	239.451
2584.39	246.668
2583.7	261.136
2583.01	268.348
2582.32	275.557
2581.63	322.64
2580.94	246.472
2580.25	260.929
2579.56	239.147
2578.87	275.338
2578.18	268.05
2577.49	253.52
2576.8	275.207
2576.11	282.404
2575.42	271.499
2574.73	249.74
2574.04	300.364
2573.35	235.187
2572.66	285.798
2571.97	256.815
2571.28	267.624
2570.58	224.19
2569.89	282.001
2569.2	271.112
2568.51	263.84
2567.82	289.094
2567.13	260.143
2566.43	227.589
2565.74	245.613
2565.05	256.408
2564.36	267.199
2563.66	281.598
2562.97	274.334
2562.28	299.554
2561.59	263.421
2560.89	288.635
2560.2	274.159
2559.51	274.116
2558.81	263.253
2558.12	270.423
2557.43	277.59
2556.73	299.173
2556.04	255.878
2555.35	288.268
2554.65	270.208
2553.96	270.165
2553.26	316.943
2552.57	284.483
2551.88	284.438
2551.18	226.794
2550.49	287.947
2549.79	309.494
2549.1	251.873
2548.4	269.821
2547.71	230.211
2547.01	273.332
2546.32	302.056
2545.62	305.603
2544.93	251.633
2544.23	273.158
2543.53	269.521
2542.84	258.699
2542.14	269.435
2541.45	308.903
2540.75	305.262
2540.05	308.804
2539.36	283.624
2538.66	301.527
2537.97	294.301
2537.27	254.781
2536.57	304.971
2535.88	279.811
2535.18	283.353
2534.48	304.825
2533.78	240.236
2533.09	304.728
2532.39	272.419
2531.69	283.127
2530.99	293.832
2530.3	272.289
2529.6	254.335
2528.9	272.202
2528.2	279.321
2527.5	264.954
2526.81	347.25
2526.11	275.608
2525.41	232.619
2524.71	268.364
2524.01	275.476
2523.31	311.203
2522.61	250.353
2521.91	261.041
2521.21	289.602
2520.52	278.831
2519.82	303.806
2519.12	300.184
2518.42	282.271
2517.72	253.646
2517.02	292.897
2516.32	310.707
2515.62	289.232
2514.92	282.046
2514.22	306.988
2513.52	328.354
2512.82	253.363
2512.11	317.545
2511.41	328.197
2510.71	296.043
2510.01	288.863
2509.31	313.777
2508.61	317.292
2507.91	292.29
2507.21	288.679
2506.5	295.76
2505.8	313.526
2505.1	274.292
2504.4	252.878
2503.7	295.571
2503	288.403
2502.29	288.356
2501.59	270.513
2500.89	277.588
2500.19	284.66
2499.48	337.98
2498.78	284.569
2498.08	302.306
2497.37	312.926
2496.67	330.653
2495.97	284.387
2495.26	351.873
2494.56	277.189
2493.86	323.335
2493.15	330.389
2492.45	337.44
2491.75	287.666
2491.04	301.824
2490.34	333.728
2489.63	312.376
2488.93	280.384
2488.22	344.214
2487.52	358.351
2486.81	312.176
2486.11	333.408
2485.41	290.799
2484.7	351.03
2483.99	326.158
2483.29	340.284
2482.58	343.774
2481.88	340.175
2481.17	283.434
2480.47	340.066
2479.76	347.095
2479.06	329.334
2478.35	300.956
2477.64	293.827
2476.94	322.097
2476.23	332.662
2475.52	304.302
2474.82	293.639
2474.11	385.561
2473.4	258.178
2472.7	346.54
2471.99	332.342
2471.28	314.614
2470.57	325.167
2469.87	346.318
2469.16	335.663
2468.45	356.806
2467.74	296.702
2467.04	324.907
2466.33	286.014
2465.62	335.394
2464.91	289.452
2464.2	321.169
2463.5	314.06
2462.79	377.518
2462.08	345.709
2461.37	268.058
2460.66	324.439
2459.95	345.542
2459.24	345.487
2458.53	324.283
2457.82	377.095
2457.11	292.466
2456.4	331.173
2455.69	362.823
2454.99	316.979
2454.28	320.45
2453.57	352.086
2452.85	309.786
2452.14	397.729
2451.43	295.61
2450.72	355.379
2450.01	362.358
2449.3	383.405
2448.59	320.039
2447.88	383.282
2447.17	319.936
2446.46	362.067
2445.75	330.377
2445.04	347.895
2444.32	333.785
2443.61	330.218
2442.9	351.24
2442.19	354.695
2441.48	351.127
2440.76	372.135
2440.05	354.524
2439.34	287.785
2438.63	361.429
2437.92	298.218
2437.2	357.805
2436.49	378.791
2435.78	312.102
2435.06	378.67
2434.35	347.058
2433.64	347.002
2432.92	294.379
2432.21	339.883
2431.5	374.862
2430.78	332.768
2430.07	350.226
2429.36	360.675
2428.64	339.61
2427.93	329.054
2427.21	343.001
2426.5	370.941
2425.78	356.886
2425.07	377.819
2424.35	402.242
2423.64	398.681
2422.92	356.657
2422.21	339.119
2421.49	391.497
2420.78	328.525
2420.06	324.978
2419.35	349.383
2418.63	366.793
2417.92	380.705
2417.2	331.753
2416.48	384.074
2415.77	275.79
2415.05	338.574
2414.34	415.298
2413.62	338.465
2412.9	352.366
2412.19	362.774
2411.47	369.691
2410.75	289.428
2410.04	387.005
2409.32	359.055
2408.6	390.365
2407.88	338.03
2407.17	365.85
2406.45	372.758
2405.73	348.316
2405.01	358.708
2404.29	327.312
2403.58	348.148
2402.86	393.344
2402.14	407.202
2401.42	361.899
2400.7	379.237
2399.98	375.697
2399.27	399.984
2398.55	351.233
2397.83	406.809
2397.11	410.22
2396.39	344.112
2395.67	417.038
2394.95	340.526
2394.23	403.007
2393.51	420.31
2392.79	354.254
2392.07	395.867
2391.35	381.916
2390.63	333.255
2389.91	409.559
2389.19	378.261
2388.47	350.442
2387.75	392.016
2387.03	360.735
2386.31	412.697
2385.59	360.619
2384.87	370.961
2384.14	388.233
2383.42	363.91
2382.7	356.921
2381.98	394.975
2381.26	381.055
2380.54	374.066
2379.82	377.469
2379.09	363.558
2378.37	394.657
2377.65	404.977
2376.93	384.147
2376.2	404.846
2375.48	390.942
2374.76	342.452
2374.04	366.606
2373.31	411.501
2372.59	376.86
2371.87	366.429
2371.14	383.651
2370.42	387.045
2369.7	373.162
2368.97	386.92
2368.25	383.404
2367.52	397.156
2366.8	366.015
2366.08	424.647
2365.35	376.252
2364.63	438.315
2363.9	407.188
2363.18	417.472
2362.45	407.056
2361.73	400.092
2361	420.719
2360.28	427.547
2359.55	403.346
2358.83	396.387
2358.1	379.091
2357.38	416.933
2356.65	406.53
2355.93	427.132
2355.2	399.511
2354.47	402.89
2353.75	416.596
2353.02	409.644
2352.3	382.043
2351.57	409.512
2350.84	419.768
2350.12	371.538
2349.39	409.313
2348.66	453.955
2347.94	464.197
2347.21	464.122
2346.48	357.488
2345.75	439.914
2345.03	457.024
2344.3	398.543
2343.57	443.136
2342.84	391.545
2342.11	398.35
2341.39	398.285
2340.66	453.148
2339.93	432.48
2339.2	384.365
2338.47	428.909
2337.74	425.409
2337.02	384.178
2336.29	418.412
2335.56	370.338
2334.83	421.705
2334.1	404.497
2333.37	435.278
2332.64	400.939
2331.91	424.858
2331.18	452.195
2330.45	462.398
2329.72	438.35
2328.99	386.919
2328.26	472.444
2327.53	417.6
2326.8	420.955
2326.07	455.105
2325.34	431.082
2324.61	448.116
2323.88	461.724
2323.14	410.355
2322.41	464.994
2321.68	475.174
2320.95	454.589
2320.22	457.933
2319.49	406.606
2318.76	444.119
2318.02	433.8
2317.29	454.221
2316.56	416.586
2315.83	426.761
2315.1	464.24
2314.36	433.448
2313.63	457.265
2312.9	419.66
2312.16	440.06
2311.43	385.417
2310.7	429.687
2309.97	456.894
2309.23	388.638
2308.5	463.563
2307.76	415.776
2307.03	439.561
2306.3	391.793
2305.56	453.044
2304.83	480.216
2304.1	510.786
2303.36	446.014
2302.63	486.791
2301.89	439.062
2301.16	456.006
2300.42	472.944
2299.69	483.073
2298.95	465.988
2298.22	516.925
2297.48	421.633
2296.75	503.158
2296.01	458.887
2295.28	502.994
2294.54	492.719
2293.8	455.266
2293.07	512.94
2292.33	478.893
2291.6	468.628
2290.86	475.342
2290.12	461.686
2289.39	465.005
2288.65	444.568
2287.91	447.889
2287.18	468.171
2286.44	495.231
2285.7	417.147
2284.97	447.598
2284.23	471.257
2283.49	488.13
2282.75	447.379
2282.01	474.416
2281.28	447.234
2280.54	487.812
2279.8	457.25
2279.06	491.04
2278.32	460.487
2277.59	406.246
2276.85	470.492
2276.11	490.721
2275.37	466.955
2274.63	460.113
2273.89	504.012
2273.15	459.963
2272.41	476.796
2271.67	480.099
2270.93	493.543
2270.19	500.222
2269.45	520.417
2268.71	459.514
2267.97	483.087
2267.23	452.609
2266.49	452.536
2265.75	513.241
2265.01	479.397
2264.27	536.702
2263.53	499.49
2262.79	442.044
2262.05	502.701
2261.31	492.5
2260.57	482.301
2259.83	472.106
2259.09	465.286
2258.34	478.695
2257.6	411.206
2256.86	522.349
2256.12	491.939
2255.38	478.383
2254.63	454.727
2253.89	491.698
2253.15	508.454
2252.41	538.672
2251.66	515.021
2250.92	508.206
2250.18	535.044
2249.43	521.498
2248.69	538.233
2247.95	497.785
2247.21	527.969
2246.46	514.434
2245.72	470.647
2244.97	544.517
2244.23	537.707
2243.49	510.738
2242.74	517.374
2242	466.905
2241.25	523.923
2240.51	543.985
2239.76	503.607
2239.02	500.168
2238.27	500.087
2237.53	580.543
2236.78	516.7
2236.04	509.906
2235.29	533.302
2234.55	492.972
2233.8	513.01
2233.06	489.459
2232.31	563.121
2231.57	496.002
2230.82	522.727
2230.07	485.789
2229.33	515.857
2228.58	509.075
2227.83	535.781
2227.09	518.953
2226.34	522.216
2225.59	505.395
2224.85	495.273
2224.1	488.501
2223.35	562.019
2222.6	511.755
2221.86	541.77
2221.11	498.213
2220.36	504.818
2219.61	538.162
2218.87	494.627
2218.12	524.62
2217.37	534.557
2216.62	521.108
2215.87	567.781
2215.12	520.938
2214.37	527.53
2213.63	577.518
2212.88	503.994
2212.13	533.946
2211.38	587.244
2210.63	517.091
2209.88	510.335
2209.13	546.937
2208.38	566.854
2207.63	550.092
2206.88	563.335
2206.13	503.253
2205.38	543.157
2204.63	539.737
2203.88	516.331
2203.13	522.907
2202.38	529.482
2201.63	519.407
2200.88	545.954
2200.12	545.864
2199.37	572.398
2198.62	568.977
2197.87	499.021
2197.12	532.202
2196.37	538.766
2195.62	522.052
2194.86	568.512
2194.11	561.771
2193.36	578.296
2192.61	574.879
2191.85	624.621
2191.1	578.012
2190.35	544.704
2189.6	547.936
2188.84	498.042
2188.09	567.675
2187.34	574.22
2186.58	577.445
2185.83	550.805
2185.08	567.303
2184.32	550.625
2183.57	557.168
2182.82	580.288
2182.06	520.516
2181.31	573.468
2180.55	580.003
2179.8	613.045
2179.04	563.247
2178.29	563.154
2177.53	526.629
2176.78	599.397
2176.02	592.677
2175.27	519.749
2174.51	605.722
2173.76	549.363
2173	588.98
2172.25	641.816
2171.49	552.401
2170.74	591.997
2169.98	631.58
2169.22	591.803
2168.47	601.623
2167.71	618.049
2166.95	624.557
2166.2	578.199
2165.44	581.407
2164.68	607.735
2163.93	581.217
2163.17	594.329
2162.41	630.545
2161.65	620.54
2160.9	561.034
2160.14	574.141
2159.38	607.038
2158.62	564.057
2157.87	629.925
2157.11	586.954
2156.35	600.045
2155.59	566.983
2154.83	566.89
2154.07	576.682
2153.31	652.368
2152.56	592.964
2151.8	569.811
2151.04	632.288
2150.28	628.891
2149.52	605.743
2148.76	605.644
2148	595.671
2147.24	582.412
2146.48	648.114
2145.72	605.246
2144.96	647.901
2144.2	614.912
2143.44	608.235
2142.68	575.263
2141.92	624.469
2141.16	598.077
2140.4	597.979
2139.64	574.885
2138.87	607.636
2138.11	610.82
2137.35	591.019
2136.59	613.902
2135.83	613.801
2135.07	646.518
2134.31	630.006
2133.54	626.621
2132.78	610.117
2132.02	626.415
2131.26	655.824
2130.49	662.273
2129.73	629.384
2128.97	619.448
2128.21	635.731
2127.44	635.626
2126.68	651.901
2125.92	648.519
2125.15	638.587
2124.39	628.66
2123.63	625.282
2122.86	589.174
2122.1	618.531
2121.33	651.151
2120.57	673.944
2119.81	621.497
2119.04	699.886
2118.28	631.102
2117.51	624.459
2116.75	601.474
2115.98	650.4
2115.22	666.632
2114.45	620.781
2113.69	669.68
2112.92	630.375
2112.16	675.99
2111.39	636.697
2110.62	705.149
2109.86	633.224
2109.09	626.592
2108.33	691.748
2107.56	714.471
2106.79	649.116
2106.03	684.884
2105.26	691.292
2104.49	635.754
2103.73	694.324
2102.96	671.395
2102.19	668.026
2101.42	674.432
2100.66	680.836
2099.89	651.41
2099.12	670.842
2098.35	638.172
2097.59	631.556
2096.82	686.785
2096.05	663.891
2095.28	663.781
2094.51	673.432
2093.74	624.529
2092.98	702.48
2092.21	669.847
2091.44	689.243
2090.67	682.628
2089.9	637.015
2089.13	672.654
2088.36	682.29
2087.59	688.675
2086.82	662.578
2086.05	633.242
2085.28	642.878
2084.51	646.018
2083.74	662.14
2082.97	668.521
2082.2	697.613
2081.43	658.568
2080.66	697.383
2079.89	642.135
2079.12	658.242
2078.35	726.216
2077.57	696.922
2076.8	670.88
2076.03	693.452
2075.26	673.898
2074.49	634.914
2073.72	725.496
2072.94	728.615
2072.17	712.306
2071.4	686.29
2070.63	708.834
2069.86	676.355
2069.08	656.829
2068.31	682.601
2067.54	705.13
2066.76	701.78
2065.99	695.197
2065.22	611.026
2064.44	675.573
2063.67	701.316
2062.9	723.819
2062.12	697.853
2061.35	781.725
2060.58	717.001
2059.8	723.34
2059.03	713.535
2058.25	719.873
2057.48	771.395
2056.7	726.089
2055.93	764.687
2055.15	706.493
2054.38	728.954
2053.6	677.235
2052.83	709.366
2052.05	709.249
2051.28	718.802
2050.5	699.346
2049.72	721.786
2048.95	786.101
2048.17	682.893
2047.4	779.399
2046.62	698.767
2045.84	746.945
2045.07	750.041
2044.29	685.546
2043.51	759.446
2042.74	743.233
2041.96	727.025
2041.18	681.876
2040.4	659.252
2039.63	710.588
2038.85	784.41
2038.07	707.138
2037.29	713.448
2036.52	703.69
2035.74	777.465
2034.96	742.003
2034.18	716.187
2033.4	770.656
2032.62	764.108
2031.84	760.771
2031.07	779.902
2030.29	738.056
2029.51	725.1
2028.73	782.722
2027.95	789.006
2027.17	753.601
2026.39	766.301
2025.61	769.379
2024.83	746.815
2024.05	791.557
2023.27	740.159
2022.49	746.444
2021.71	755.929
2020.93	720.576
2020.15	707.648
2019.37	765.157
2018.59	774.633
2017.8	796.908
2017.02	780.776
2016.24	739.055
2015.46	828.5
2014.68	754.801
2013.9	751.478
2013.11	751.353
2012.33	776.802
2011.55	760.692
2010.77	754.175
2009.99	766.83
2009.2	801.843
2008.42	772.963
2007.64	843.093
2006.85	759.934
2006.07	833.235
2005.29	782.026
2004.5	769.13
2003.72	769.002
2002.94	730.59
2002.15	781.506
2001.37	774.998
2000.59	809.945
1999.8	806.622
1999.02	749.11
1998.23	841.413
1997.45	796.66
1996.66	876.181
1995.88	828.251
1995.09	777.153
1994.31	697.41
1993.52	786.446
1992.74	805.416
1991.95	818.014
1991.17	849.702
1990.38	849.561
1989.6	785.793
1988.81	804.747
1988.02	779.171
1987.24	794.94
1986.45	750.298
1985.67	772.424
1984.88	829.503
1984.09	775.345
1983.3	810.164
1982.52	768.734
1981.73	863.888
1980.94	787.531
1980.16	803.275
1979.37	825.363
1978.58	844.269
1977.79	828.261
1977.01	786.876
1976.22	843.847
1975.43	834.191
1974.64	830.881
1973.85	795.864
1973.06	840.115
1972.27	846.315
1971.49	820.82
1970.7	839.695
1969.91	830.051
1969.12	842.583
1968.33	877.281
1967.54	851.802
1966.75	867.49
1965.96	883.173
1965.17	860.871
1964.38	898.701
1963.59	819.454
1962.8	831.971
1962.01	850.809
1961.22	847.505
1960.43	885.305
1959.64	853.545
1958.85	862.885
1958.06	862.741
1957.26	875.236
1956.47	887.727
1955.68	824.406
1954.89	824.268
1954.1	887.282
1953.31	909.234
1952.51	915.395
1951.72	852.122
1950.93	861.447
1950.14	889.698
1949.34	854.85
1948.55	857.862
1947.76	889.252
1946.97	876.493
1946.17	847.975
1945.38	857.289
1944.59	932.777
1943.79	866.455
1943	885.212
1942.21	916.561
1941.41	884.916
1940.62	865.877
1939.82	862.584
1939.03	903.359
1938.24	915.796
1937.44	874.738
1936.65	862.008
1935.85	871.301
1935.06	805.111
1934.26	915.032
1933.47	874.008
1932.67	921.013
1931.88	902.002
1931.08	854.716
1930.28	948.827
1929.49	920.397
1928.69	835.443
1927.9	838.443
1927.1	948.193
1926.3	894.669
1925.51	897.658
1924.71	888.093
1923.91	966.385
1923.12	916.03
1922.32	937.833
1921.52	978.445
1920.73	924.977
1919.93	943.632
1919.13	962.281
1918.33	924.513
1917.53	924.359
1916.74	849.014
1915.94	927.182
1915.14	977.136
1914.34	1005.15
1913.54	1004.99
1912.74	882.738
1911.95	932.666
1911.15	907.476
1910.35	929.225
1909.55	960.351
1908.75	1025.87
1907.95	909.996
1907.15	956.742
1906.35	937.826
1905.55	915.79
1904.75	956.262
1903.95	902.985
1903.15	930.95
1902.35	915.177
1901.55	946.253
1900.75	927.36
1899.95	945.936
1899.15	1011.33
1898.35	911.29
1897.54	992.266
1896.74	973.38
1895.94	963.859
1895.14	1019.84
1894.34	1019.66
1893.54	1010.14
1892.73	1006.85
1891.93	944.352
1891.13	1015.87
1890.33	984.539
1889.53	1009.29
1888.72	943.719
1887.92	977.816
1887.12	943.403
1886.31	1005.5
1885.51	1027.12
1884.71	986.496
1883.9	1020.56
1883.1	979.943
1882.3	1017.1
1881.49	1044.92
1880.69	1029.2
1879.88	1007.27
1879.08	985.338
1878.28	950.987
1877.47	969.471
1876.67	975.522
1875.86	922.552
1875.06	1021.78
1874.25	1015.4
1873.45	950.03
1872.64	1021.27
1871.84	1036.61
1871.03	1036.44
1870.22	1005.24
1869.42	961.641
1868.61	1014.21
1867.81	952.015
1867	1010.76
1866.19	1007.49
1865.39	1007.33
1864.58	979.266
1863.77	1034.87
1862.97	1040.9
1862.16	1065.5
1861.35	1006.48
1860.54	1043.47
1859.74	975.184
1858.93	1052.4
1858.12	971.761
1857.31	1014.92
1856.51	1073.53
1855.7	1011.48
1854.89	1085.54
1854.08	1004.96
1853.27	976.965
1852.46	1029.35
1851.65	1050.81
1850.84	1022.82
1850.04	973.218
1849.23	1068.82
1848.42	1043.93
1847.61	981.991
1846.8	988.001
1845.99	1108.23
1845.18	1040.14
1844.37	1058.48
1843.56	1107.67
1842.75	1061.21
1841.94	1030.19
1841.13	1008.43
1840.31	1082.26
1839.5	1069.74
1838.69	1011
1837.88	1041.65
1837.07	1013.74
1836.26	1041.3
1835.45	1096.56
1834.64	1040.95
1833.82	1099.27
1833.01	1092.93
1832.2	1052.73
1831.39	1092.56
1830.57	1083.15
1829.76	1052.2
1828.95	1107.39
1828.14	1076.45
1827.32	1033.22
1826.51	1042.27
1825.7	1045.17
1824.88	1084.95
1824.07	1109.35
1823.26	1099.94
1822.44	1062.89
1821.63	1059.64
1820.81	1176.16
1820	1123.76
1819.19	1080.6
1818.37	1114.18
1817.56	1098.65
1816.74	1067.78
1815.93	1067.6
1815.11	1107.29
1814.3	1058.04
1813.48	1097.72
1812.67	1023.96
1811.85	1121.87
1811.03	1048.13
1810.22	1090.85
1809.4	1182.58
1808.59	1075.17
1807.77	1102.55
1806.95	1062.56
1806.14	1092.99
1805.32	1126.48
1804.5	1123.23
1803.69	1116.92
1802.87	1141.21
1802.05	1153.25
1801.24	1098
1800.42	1110.05
1799.6	1140.44
1798.78	1134.13
1797.96	1167.56
1797.15	1133.75
1796.33	1078.56
1795.51	1050.88
1794.69	1093.47
1793.87	1062.74
1793.05	1123.63
1792.23	1132.6
1791.42	1107.99
1790.6	1098.65
1789.78	1135.08
1788.96	1180.65
1788.14	1134.69
1787.32	1137.55
1786.5	1097.72
1785.68	1198.14
1784.86	1140.02
1784.04	1118.5
1783.22	1170.11
1782.4	1166.87
1781.58	1114.88
1780.76	1078.15
1779.93	1144.96
1779.11	1163.03
1778.29	1141.53
1777.47	1147.42
1776.65	1162.44
1775.83	1189.63
1775.01	1143.8
1774.18	1137.52
1773.36	1204.23
1772.54	1137.14
1771.72	1127.82
1770.89	1221.85
1770.07	1191.26
1769.25	1197.13
1768.43	1193.89
1767.6	1151.17
1766.78	1175.27
1765.96	1181.14
1765.13	1208.26
1764.31	1113.96
1763.49	1153.23
1762.66	1186.41
1761.84	1177.11
1761.01	1131.41
1760.19	1185.81
1759.36	1115.87
1758.54	1185.41
1757.72	1109.43
1756.89	1157.73
1756.07	1112.08
1755.24	1148.25
1754.41	1099.59
1753.59	1250.83
1752.76	1168.86
1751.94	1201.97
1751.11	1153.33
1750.29	1168.27
1749.46	1252.8
1748.63	1140.64
1747.81	1188.85
1746.98	1131.18
1746.15	1215.66
1745.33	1173.13
1744.5	1203.16
1743.67	1205.98
1742.85	1214.84
1742.02	1226.72
1741.19	1223.49
1740.36	1238.38
1739.54	1177.77
1738.71	1240.98
1737.88	1186.43
1737.05	1219.43
1736.22	1189.05
1735.39	1249.19
1734.57	1245.96
1733.74	1161.29
1732.91	1182.21
1732.08	1215.18
1731.25	1169.75
1730.42	1193.66
1729.59	1250.72
1728.76	1244.48
1727.93	1235.24
1727.1	1108.51
1726.27	1126.39
1725.44	1225.57
1724.61	1273.54
1723.78	1195.05
1722.95	1224.95
1722.12	1197.66
1721.29	1266.65
1720.46	1290.5
1719.62	1194.04
1718.79	1181.81
1717.96	1259.78
1717.13	1256.56
1716.3	1232.3
1715.47	1259.14
1714.63	1270.94
1713.8	1219.66
1712.97	1255.49
1712.14	1267.29
1711.31	1240.05
1710.47	1341.91
1709.64	1254.64
1708.81	1260.43
1707.97	1275.22
1707.14	1230
1706.31	1283.78
1705.47	1244.58
1704.64	1241.37
1703.81	1325.1
1702.97	1258.93
1702.14	1285.69
1701.3	1219.55
1700.47	1198.37
1699.63	1228.12
1698.8	1227.91
1697.96	1305.55
1697.13	1182.58
1696.29	1254.22
1695.46	1251.02
1694.62	1277.73
1693.79	1271.53
1692.95	1301.23
1692.12	1274.09
1691.28	1232.01
1690.44	1288.61
1689.61	1222.62
1688.77	1234.37
1687.93	1231.17
1687.1	1314.62
1686.26	1239.71
1685.42	1218.59
1684.59	1266.17
1683.75	1271.92
1682.91	1280.66
1682.07	1322.23
1681.24	1283.21
1680.4	1378.47
1679.56	1369.29
1678.72	1300.45
1677.88	1294.26
1677.05	1317.9
1676.21	1332.58
1675.37	1317.45
1674.53	1329.14
1673.69	1433.2
1672.85	1459.77
1672.01	1385.06
1671.17	1414.6
1670.33	1444.14
1669.49	1405.19
1668.65	1399
1667.81	1354.12
1666.97	1490.76
1666.13	1416.13
1665.29	1487.28
1664.45	1495.95
1663.61	1427.3
1662.77	1468.68
1661.93	1459.51
1661.09	1462.23
1660.25	1432.27
1659.4	1432.03
1658.56	1464.46
1657.72	1458.27
1656.88	1431.29
1656.04	1401.36
1655.19	1427.83
1654.35	1323.71
1653.51	1365.03
1652.67	1379.63
1651.82	1385.33
1650.98	1349.5
1650.14	1476.79
1649.3	1375.73
1648.45	1390.31
1647.61	1333.76
1646.77	1401.69
1645.92	1374.79
1645.08	1294.57
1644.23	1350.62
1643.39	1424.42
1642.54	1364.96
1641.7	1403.22
1640.86	1405.94
1640.01	1396.82
1639.17	1290.06
1638.32	1375.63
1637.48	1416.81
1636.63	1357.42
1635.78	1401.54
1634.94	1395.38
1634.09	1368.54
1633.25	1335.8
1632.4	1356.26
1631.56	1341.25
1630.71	1373.52
1629.86	1367.37
1629.02	1281.51
1628.17	1393.48
1627.32	1348.96
1626.47	1316.27
1625.63	1375.06
1624.78	1377.77
1623.93	1356.89
1623.09	1347.81
1622.24	1294.5
1621.39	1356.19
1620.54	1414.91
1619.69	1361.62
1618.84	1331.92
1618	1440.7
1617.15	1340.3
1616.3	1340.07
1615.45	1398.74
1614.6	1407.33
1613.75	1454.19
1612.9	1386.25
1612.05	1397.78
1611.2	1453.44
1610.35	1341.41
1609.5	1388.24
1608.65	1355.65
1607.8	1349.54
1606.95	1364.01
1606.1	1375.53
1605.25	1445.82
1604.4	1404.44
1603.55	1366.01
1602.7	1415.71
1601.85	1394.91
1600.99	1391.73
1600.14	1485.43
1599.29	1373.64
1598.44	1344.06
1597.59	1367.3
1596.74	1358.27
1595.88	1396.17
1595.03	1390.06
1594.18	1410.35
1593.32	1410.11
1592.47	1404
1591.62	1389.11
1590.77	1362.5
1589.91	1379.84
1589.06	1444.05
1588.21	1320.8
1587.35	1338.14
1586.5	1414.03
1585.64	1425.49
1584.79	1463.29
1583.93	1386.96
1583.08	1342.84
1582.23	1439.14
1581.37	1348.23
1580.52	1397.71
1579.66	1400.39
1578.81	1467.38
1577.95	1437.9
1577.09	1332.46
1576.24	1419.88
1575.38	1425.48
1574.53	1369.74
1573.67	1454.19
1572.81	1395.55
1571.96	1395.31
1571.1	1470.95
1570.24	1459.03
1569.39	1490.87
1568.53	1365.18
1567.67	1481.61
1566.82	1437.61
1565.96	1475.27
1565.1	1384.65
1564.24	1404.81
1563.39	1352.12
1562.53	1436.38
1561.67	1444.87
1560.81	1415.5
1559.95	1403.6
1559.09	1540.2
1558.23	1318.7
1557.38	1408.7
1556.52	1443.38
1555.66	1411.13
1554.8	1323.61
1553.94	1471.72
1553.08	1515.09
1552.22	1462.49
1551.36	1421.54
1550.5	1409.67
1549.64	1467.55
1548.78	1371.41
1547.92	1394.42
1547.06	1443.55
1546.2	1382.32
1545.34	1411.12
1544.47	1492.16
1543.61	1413.53
1542.75	1395.88
1541.89	1471.08
1541.03	1514.34
1540.17	1458.97
1539.3	1371.72
1538.44	1435.27
1537.58	1423.43
1536.72	1466.66
1535.85	1431.63
1534.99	1327.07
1534.13	1547.02
1533.27	1471.44
1532.4	1427.75
1531.54	1392.76
1530.68	1380.94
1529.81	1435.69
1528.95	1435.45
1528.08	1461.24
1527.22	1406.02
1526.36	1414.46
1525.49	1425.78
1524.63	1468.91
1523.76	1471.55
1522.9	1427.93
1522.03	1456.59
1521.17	1482.34
1520.3	1513.87
1519.44	1478.94
1518.57	1507.57
1517.7	1429.34
1516.84	1443.53
1515.97	1584.72
1515.11	1434.38
1514.24	1474.53
1513.37	1494.47
1512.51	1445.17
1511.64	1467.99
1510.77	1424.49
1509.91	1412.71
1509.04	1424
1508.17	1409.34
1507.3	1417.74
1506.44	1374.28
1505.57	1466.22
1504.7	1434.29
1503.83	1405.24
1502.96	1471.22
1502.09	1436.42
1501.23	1493.74
1500.36	1499.23
1499.49	1475.96
1498.62	1550.49
1497.75	1417.92
1496.88	1506.82
1496.01	1541.07
1495.14	1526.43
1494.27	1483.05
1493.4	1454.06
1492.53	1482.54
1491.66	1516.75
1490.79	1525.11
1489.92	1450.18
1489.05	1493
1488.18	1550.15
1487.31	1489.61
1486.44	1480.74
1485.56	1563.69
1484.69	1497.44
1483.82	1540.21
1482.95	1531.34
1482.08	1565.48
1481.21	1487.81
1480.33	1573.54
1479.46	1510.22
1478.59	1593.05
1477.72	1503.97
1476.84	1503.71
1475.97	1532.08
1475.1	1549
1474.22	1571.63
1473.35	1651.5
1472.48	1651.21
1471.6	1705.29
1470.73	1653.5
1469.85	1670.38
1468.98	1701.55
1468.11	1589.74
1467.23	1743.84
1466.36	1743.54
1465.48	1700.37
1464.61	1828.65
1463.73	1816.91
1462.86	1865.15
1461.98	1836.27
1461.11	1827.38
1460.23	1795.66
1459.35	1926.65
1458.48	1800.75
1457.6	1871.77
1456.73	1834.36
1455.85	1893.94
1454.97	1870.8
1454.1	1796.34
1453.22	1830.24
1452.34	1875.52
1451.46	1855.25
1450.59	1872.02
1449.71	1880.25
1448.83	1871.37
1447.95	1879.59
1447.08	1921.98
1446.2	1822
1445.32	1895.69
1444.44	1957.97
1443.56	1892.19
1442.68	1999.97
1441.81	1979.71
1440.93	2124.41
1440.05	2030.2
1439.17	2095.24
1438.29	2157.41
1437.41	2154.19
1436.53	2060.05
1435.65	2054.01
1434.77	2087.74
1433.89	2078.86
1433.01	1893.93
1432.13	1907.8
1431.25	1918.82
1430.37	1853.21
1429.48	1753.58
1428.6	1713.55
1427.72	1713.26
1426.84	1695.94
1425.96	1738.18
1425.08	1718.03
1424.19	1658.21
1423.31	1706.1
1422.43	1717.14
1421.55	1634.68
1420.67	1634.4
1419.78	1713.41
1418.9	1673.47
1418.02	1695.83
1417.13	1670.06
1416.25	1715.05
1415.37	1771.34
1414.48	1674.85
1413.6	1742.44
1412.71	1617.7
1411.83	1688.11
1410.95	1521.01
1410.06	1571.63
1409.18	1608.1
1408.29	1573.91
1407.41	1545.38
1406.52	1545.11
1405.64	1550.49
1404.75	1567.17
1403.87	1541.48
1402.98	1532.75
1402.1	1453.46
1401.21	1523.75
1400.32	1506.56
1399.44	1562.71
1398.55	1506.03
1397.66	1542.43
1396.78	1525.24
1395.89	1516.52
1395	1519.07
1394.12	1563.89
1393.23	1510.09
1392.34	1495.74
1391.45	1560.26
1390.57	1579.7
1389.68	1545.64
1388.79	1565.07
1387.9	1559.17
1387.01	1544.83
1386.12	1547.38
1385.24	1597.74
1384.35	1572.15
1383.46	1403.16
1382.57	1565.98
1381.68	1591
1380.79	1548.57
1379.9	1596.07
1379.01	1626.69
1378.12	1637.65
1377.23	1499.74
1376.34	1583.72
1375.45	1659.25
1374.56	1616.86
1373.67	1641.83
1372.78	1560.17
1371.89	1551.48
1370.99	1624.14
1370.1	1598.62
1369.21	1637.6
1368.32	1626.1
1367.43	1651.04
1366.54	1642.34
1365.64	1611.23
1364.75	1608.15
1363.86	1663.89
1362.97	1593.59
1362.07	1570.91
1361.18	1553.83
1360.29	1511.57
1359.39	1612.06
1358.5	1575.41
1357.61	1538.76
1356.71	1628
1355.82	1619.33
1354.93	1610.66
1354.03	1551.66
1353.14	1618.48
1352.24	1531.56
1351.35	1528.5
1350.45	1519.85
1349.56	1625.73
1348.66	1608.69
1347.77	1560.94
1346.87	1557.87
1345.98	1565.97
1345.08	1627.1
1344.18	1649.14
1343.29	1540.04
1342.39	1581.61
1341.5	1637.12
1340.6	1628.47
1339.7	1552.9
1338.81	1625.11
1337.91	1580.23
1337.01	1577.17
1336.11	1576.89
1335.22	1610.04
1334.32	1573.56
1333.42	1581.63
1332.52	1617.55
1331.63	1569.95
1330.73	1516.79
1329.83	1594.44
1328.93	1569.12
1328.03	1652.3
1327.13	1663.13
1326.23	1632.25
1325.33	1573.58
1324.43	1667.82
1323.53	1689.76
1322.64	1544.97
1321.74	1672.5
1320.84	1686.09
1319.94	1638.59
1319.03	1632.74
1318.13	1615.8
1317.23	1668.26
1316.33	1701.27
1315.43	1700.97
1314.53	1614.67
1313.63	1683.73
1312.73	1666.8
1311.83	1705.32
1310.92	1685.62
1310.02	1671.46
1309.12	1660.09
1308.22	1737.38
1307.32	1665.04
1306.41	1706.3
1305.51	1656.15
1304.61	1655.86
1303.71	1652.8
1302.8	1788.15
1301.9	1782.3
1301	1690.67
1300.09	1789.97
1299.19	1864.34
1298.28	1844.66
1297.38	1849.86
1296.48	1960.12
1295.57	2062.05
1294.67	2335.29
1293.76	2475.8
1292.86	2389.73
1291.95	2162.81
1291.05	1966.34
1290.14	1794.8
1289.24	1717.19
1288.33	1645.12
1287.42	1650.35
1286.52	1578.32
1285.61	1600.11
1284.71	1627.41
1283.8	1605.06
1282.89	1673.72
1281.99	1535.58
1281.08	1532.55
1280.17	1587.4
1279.26	1534.77
1278.36	1619.9
1277.45	1514.95
1276.54	1495.4
1275.63	1563.98
1274.72	1516.9
1273.82	1522.14
1272.91	1524.63
1272	1502.34
1271.09	1535.09
1270.18	1532.07
1269.27	1493.3
1268.36	1471.04
1267.45	1528.52
1266.54	1517.25
1265.64	1571.95
1264.73	1431.54
1263.82	1488.98
1262.91	1532.67
1261.99	1532.4
1261.08	1548.6
1260.17	1452.24
1259.26	1493.16
1258.35	1539.55
1257.44	1454.22
1256.53	1517.06
1255.62	1467.42
1254.71	1527.5
1253.79	1436.75
1252.88	1455.68
1251.97	1518.47
1251.06	1427.77
1250.15	1435.73
1249.23	1449.18
1248.32	1457.14
1247.41	1404.85
1246.49	1481.27
1245.58	1486.48
1244.67	1491.7
1243.75	1548.9
1242.84	1491.17
1241.93	1510.06
1241.01	1479.7
1240.1	1468.5
1239.18	1492.85
1238.27	1506.26
1237.35	1459.53
1236.44	1464.74
1235.53	1442.62
1234.61	1425.98
1233.69	1447.57
1232.78	1496.47
1231.86	1406.11
1230.95	1493.22
1230.03	1443.82
1229.12	1399.91
1228.2	1478.78
1227.28	1467.61
1226.37	1415.53
1225.45	1472.55
1224.53	1368.68
1223.62	1477.48
1222.7	1433.61
1221.78	1449.71
1220.86	1476.7
1219.95	1454.64
1219.03	1536.09
1218.11	1465.02
1217.19	1380.36
1216.27	1450.9
1215.35	1431.59
1214.44	1447.66
1213.52	1477.33
1212.6	1430.83
1211.68	1479.53
1210.76	1481.99
1209.84	1438.23
1208.92	1424.38
1208	1454.03
1207.08	1527.14
1206.16	1505.13
1205.24	1510.3
1204.32	1455.71
1203.4	1496.19
1202.48	1485.06
1201.56	1454.94
1200.64	1476.4
1199.71	1508.7
1198.79	1473.16
1197.87	1429.5
1196.95	1478.07
1196.03	1445.27
1195.1	1461.28
1194.18	1469.15
1193.26	1444.5
1192.34	1444.24
1191.41	1435.86
1190.49	1459.98
1189.57	1454.31
1188.65	1529.87
1187.72	1356.33
1186.8	1412.94
1185.87	1477.64
1184.95	1455.73
1184.03	1479.82
1183.1	1487.67
1182.18	1468.48
1181.25	1479.03
1180.33	1424.7
1179.4	1497.43
1178.48	1464.74
1177.55	1459.07
1176.63	1448.01
1175.7	1415.34
1174.78	1455.6
1173.85	1482.34
1172.92	1422.69
1172	1446.73
1171.07	1473.46
1170.15	1532.55
1169.22	1543.07
1168.29	1526.62
1167.36	1488.59
1166.44	1477.54
1165.51	1442.24
1164.58	1471.63
1163.65	1428.25
1162.73	1473.8
1161.8	1478.93
1160.87	1540.61
1159.94	1518.8
1159.01	1461.99
1158.08	1499.41
1157.16	1493.77
1156.23	1552.7
1155.3	1498.62
1154.37	1482.21
1153.44	1508.84
1152.51	1495.13
1151.58	1508.31
1150.65	1510.73
1149.72	1462.08
1148.79	1475.26
1147.86	1531.42
1146.93	1412.95
1146	1514.76
1145.07	1511.81
1144.13	1506.17
1143.2	1540.8
1142.27	1521.74
1141.34	1473.17
1140.41	1489
1139.48	1510.2
1138.54	1542.11
1137.61	1429.22
1136.68	1514.75
1135.75	1527.89
1134.81	1567.82
1133.88	1578.26
1132.95	1650.31
1132.01	1706.27
1131.08	1732.75
1130.15	1769.92
1129.21	1890.08
1128.28	2010.2
1127.35	1945.61
1126.41	1921.18
1125.48	1821.86
1124.54	1797.46
1123.61	1679.47
1122.67	1652.43
1121.74	1646.79
1120.8	1609.08
1119.87	1622.16
1118.93	1563.08
1117.99	1618.91
1117.06	1498.42
1116.12	1468.78
1115.19	1540.61
1114.25	1476.27
1113.31	1494.69
1112.38	1505.1
1111.44	1571.53
1110.5	1549.91
1109.56	1461.62
1108.63	1437.36
1107.69	1525.09
1106.75	1594.13
1105.81	1532.54
1104.88	1478.97
1103.94	1534.66
1103	1505.08
1102.06	1539.44
1101.12	1544.49
1100.18	1533.57
1099.24	1501.35
1098.3	1498.42
1097.36	1527.43
1096.42	1460.64
1095.49	1529.54
1094.55	1465.44
1093.6	1566.22
1092.66	1536.7
1091.72	1555.03
1090.78	1552.1
1089.84	1472.1
1088.9	1548.89
1087.96	1553.92
1087.02	1450.07
1086.08	1633.03
1085.14	1550.44
1084.19	1571.4
1083.25	1555.19
1082.31	1602.68
1081.37	1536.07
1080.43	1562.32
1079.48	1458.61
1078.54	1535.25
1077.6	1595.95
1076.65	1606.26
1075.71	1613.93
1074.77	1576.55
1073.82	1496.79
1072.88	1565.39
1071.93	1496.25
1070.99	1543.65
1070.05	1551.31
1069.1	1553.68
1068.16	1656.61
1067.21	1624.57
1066.27	1658.67
1065.32	1772.1
1064.38	1814.1
1063.43	1943.33
1062.49	2006.43
1061.54	1889.77
1060.59	1841.87
1059.65	1778.13
1058.7	1717.06
1057.75	1677.13
1056.81	1587.05
1055.86	1610.53
1054.91	1546.88
1053.97	1559.8
1053.02	1617.58
1052.07	1498.57
1051.12	1508.85
1050.18	1492.76
1049.23	1558.41
1048.28	1479.04
1047.33	1449.78
1046.38	1594.47
1045.43	1559.93
1044.48	1512.23
1043.54	1514.59
1042.59	1509.06
1041.64	1498.25
1040.69	1529.58
1039.74	1458.23
1038.79	1529.03
1037.84	1455.08
1036.89	1494.28
1035.94	1480.86
1034.99	1483.23
1034.04	1480.33
1033.08	1569.45
1032.13	1492.95
1031.18	1553.12
1030.23	1544.96
1029.28	1500.02
1028.33	1562.79
1027.37	1509.99
1026.42	1436.2
1025.47	1412.32
1024.52	1501.31
1023.57	1388.2
1022.61	1456.17
1021.66	1482.14
1020.71	1508.1
1019.75	1510.45
1018.8	1426.28
1017.85	1483.7
1016.89	1509.64
1015.94	1456.96
1014.98	1448.84
1014.03	1469.54
1013.07	1416.89
1012.12	1505.67
1011.16	1484.45
1010.21	1512.98
1009.25	1486.54
1008.3	1528.14
1007.34	1577.57
1006.39	1472.66
1005.43	1433.17
1004.48	1482.59
1003.52	1597.35
1002.56	1612.75
1001.61	1602.01
1000.65	1729.75
999.693	1609.27
998.736	1608.98
997.778	1619.14
996.821	1535.29
995.863	1454.09
994.905	1537.35
993.947	1560.56
992.989	1482.01
992.031	1424.35
991.072	1525.82
990.114	1494.25
989.155	1535.7
988.196	1496.32
987.237	1436.1
986.277	1540.08
985.318	1495.51
984.358	1536.92
983.398	1453.3
982.438	1468.67
981.478	1510.06
980.517	1395.25
979.557	1478.29
978.596	1592.51
977.635	1475.15
976.674	1469.69
975.713	1469.42
974.751	1437.95
973.79	1474.09
972.828	1614.19
971.866	1470.96
970.904	1408.34
969.942	1483.42
968.979	1475.36
968.017	1477.7
967.054	1485.22
966.091	1443.42
965.128	1453.54
964.164	1505.18
963.201	1440.04
962.237	1406.06
961.273	1501.77
960.309	1408.14
959.345	1503.83
958.381	1451.71
957.416	1420.34
956.451	1404.54
955.486	1474.24
954.521	1466.21
953.556	1463.35
952.591	1465.68
951.625	1488.71
950.659	1423.73
949.693	1446.77
948.727	1456.86
947.761	1492.82
946.794	1425.29
945.828	1443.14
944.861	1476.49
943.894	1458.13
942.927	1463.04
941.959	1426.59
940.992	1483.18
940.024	1436.41
939.056	1503.31
938.088	1510.79
937.12	1500.19
936.152	1468.94
935.183	1497.07
934.214	1494.21
933.246	1488.78
932.276	1555.59
931.307	1452.14
930.338	1482.82
929.368	1536.7
928.398	1479.71
927.428	1471.71
926.458	1484.33
925.488	1463.45
924.517	1537.89
923.547	1483.52
922.576	1524.46
921.605	1462.39
920.634	1464.7
919.662	1526.21
918.691	1484.76
917.719	1497.36
916.747	1489.37
915.775	1532.82
914.803	1558.26
913.831	1521.98
912.858	1488.29
911.885	1477.74
910.912	1410.67
909.939	1551.71
908.966	1584.82
907.992	1525.47
907.019	1499.52
906.045	1514.65
905.071	1470.74
904.097	1478.17
903.122	1498.43
902.148	1487.9
901.173	1513.28
900.198	1530.96
899.223	1556.32
898.248	1515.02
897.273	1560.88
896.297	1596.48
895.321	1547.51
894.345	1567.72
893.369	1498.29
892.393	1510.82
891.416	1589.91
890.44	1525.63
889.463	1576.54
888.486	1586.49
887.509	1491.54
886.531	1514.3
885.554	1534.48
884.576	1590.46
883.598	1559.49
882.62	1579.66
881.642	1551.26
880.664	1561.2
879.685	1468.95
878.706	1519.77
877.727	1560.35
876.748	1486.02
875.769	1613.4
874.789	1513.56
873.81	1569.43
872.83	1528.32
871.85	1576.51
870.87	1594.08
869.889	1547.89
868.909	1585.85
867.928	1583.02
866.947	1582.73
865.966	1607.93
864.985	1528.65
864.003	1558.94
863.022	1558.66
862.04	1494.72
861.058	1593.74
860.076	1593.45
859.094	1616.07
858.111	1524.17
857.128	1610.39
856.146	1508.36
855.162	1635.24
854.179	1629.86
853.196	1525.33
852.212	1504.72
851.229	1595.93
850.245	1580.4
849.261	1615.68
848.276	1582.36
847.292	1635.41
846.307	1533.55
845.322	1589.12
844.337	1604.06
843.352	1664.67
842.367	1595.86
841.381	1582.89
840.396	1580.07
839.41	1671.07
838.424	1647.95
837.437	1599.49
836.451	1551.04
835.464	1677.46
834.477	1545.41
833.49	1610.99
832.503	1587.9
831.516	1623.06
830.528	1587.33
829.541	1521.23
828.553	1533.6
827.565	1556.1
826.577	1545.69
825.588	1631.41
824.6	1575.48
823.611	1600.48
822.622	1559.74
821.633	1716.16
820.643	1579.39
819.654	1599.31
818.664	1548.5
817.674	1588.63
816.684	1575.71
815.694	1580.48
814.704	1552.42
813.713	1602.61
812.723	1655.31
811.732	1589.42
810.741	1591.65
809.749	1490.48
808.758	1560.81
807.766	1573.13
806.774	1565.29
805.782	1529.72
804.79	1582.35
803.798	1579.55
802.805	1569.18
801.812	1626.82
800.819	1523.29
799.826	1538.12
798.833	1615.86
797.84	1608.02
796.846	1597.66
795.852	1577.25
794.858	1672.53
793.864	1644.57
792.87	1614.1
791.875	1631.4
790.88	1608.48
789.885	1598.14
788.89	1577.75
787.895	1595.04
786.9	1637.44
785.904	1574.37
784.908	1574.08
783.912	1593.88
782.916	1525.83
781.92	1588.28
780.923	1613.08
779.926	1600.24
778.929	1592.42
777.932	1599.66
776.935	1579.31
775.938	1626.64
774.94	1616.32
773.942	1626.05
772.944	1568.14
771.946	1632.97
770.948	1570.07
769.949	1657.41
768.95	1607.04
767.951	1604.25
766.952	1573.93
765.953	1641.19
764.954	1605.87
763.954	1658.09
762.954	1662.79
761.954	1627.49
760.954	1612.19
759.954	1551.92
758.953	1566.63
757.952	1593.82
756.951	1653.48
755.95	1615.72
754.949	1585.46
753.948	1647.58
752.946	1627.31
751.944	1641.99
750.942	1721.52
749.94	1608.96
748.937	1688.47
747.935	1590.91
746.932	1695.33
745.929	1545.46
744.926	1649.85
743.923	1539.91
742.919	1676.65
741.916	1658.91
740.912	1613.78
739.908	1718.06
738.903	1643.06
737.899	1645.25
736.894	1627.53
735.89	1624.74
734.885	1639.37
733.88	1619.18
732.874	1651.21
731.869	1628.53
730.863	1660.55
729.857	1650.3
728.851	1602.78
727.845	1729.2
726.838	1624.55
725.832	1624.26
724.825	1633.89
723.818	1613.73
722.811	1640.74
721.804	1630.51
720.796	1659.99
719.788	1649.76
718.78	1642.02
717.772	1656.6
716.764	1621.58
715.756	1720.44
714.747	1658.16
713.738	1630.6
712.729	1704.63
711.72	1706.8
710.71	1694.1
709.701	1644.26
708.691	1733.09
707.681	1648.61
706.671	1601.28
705.661	1598.52
704.65	1650.18
703.64	1662.24
702.629	1602.58
701.618	1656.69
700.606	1597.05
699.595	1606.64
698.583	1658.25
697.572	1682.65
696.56	1588.47
695.547	1642.51
694.535	1612.58
693.523	1649.32
692.51	1666.29
691.497	1624.03
690.484	1660.75
689.471	1623.43
688.457	1704.54
687.443	1674.63
686.43	1718.71
685.416	1686.34
684.401	1710.68
683.387	1752.26
682.372	1574.53
681.358	1694.96
680.343	1694.64
679.327	1709.11
678.312	1726.03
677.297	1703.56
676.281	1658.94
675.265	1572.5
674.249	1673.09
673.233	1724.44
672.216	1736.43
671.2	1709.06
670.183	1671.86
669.166	1634.68
668.148	1649.13
667.131	1668.48
666.113	1611.67
665.096	1643.31
664.078	1652.83
663.06	1728.64
662.041	1662.04
661.023	1622.46
660.004	1668.79
658.985	1661.12
657.966	1682.89
656.947	1792.96
655.927	1770.56
654.908	1674.61
653.888	1698.81
652.868	1764.68
651.848	1712.89
650.827	1636.62
649.807	1758.8
648.786	1633.57
647.765	1689.59
646.744	1748.04
645.723	1750.16
644.701	1722.92
643.679	1720.16
642.657	1710.05
641.635	1638.8
640.613	1726.54
639.591	1696.88
638.568	1716.13
637.545	1715.81
636.522	1717.94
635.499	1671.2
634.475	1773.49
633.452	1690.12
632.428	1726.44
631.404	1770.07
630.38	1694.07
629.356	1742.57
628.331	1637.32
627.306	1768.76
626.281	1826.97
625.256	1794.93
624.231	1792.16
623.205	1718.7
622.18	1752.5
621.154	1754.62
620.128	1795.71
619.102	1841.67
618.075	1792.62
617.049	1665.66
616.022	1799.26
614.995	1813.53
613.968	1764.52
612.94	1783.66
611.913	1800.36
610.885	1831.65
609.857	1802.13
608.829	1758.03
607.8	1721.24
606.772	1810.85
605.743	1744.9
604.714	1785.89
603.685	1729.68
602.656	1714.79
601.626	1760.61
600.597	1757.86
599.567	1796.37
598.537	1781.48
597.507	1812.7
596.476	1715.31
595.446	1819.3
594.415	1804.41
593.384	1794.38
592.353	1740.71
591.321	1750.09
590.29	1781.27
589.258	1768.82
588.226	1814.52
587.194	1794.81
586.162	1712.14
585.129	1682.77
584.096	1808.34
583.063	1762.02
582.03	1732.65
580.997	1894.44
579.964	1811.84
578.93	1685.74
577.896	1745.88
576.862	1791.49
575.828	1766.99
574.793	1718.32
573.759	1725.26
572.724	1715.27
571.689	1756.02
570.654	1719.47
569.618	1762.61
568.583	1774.35
567.547	1747.47
566.511	1633.73
565.475	1746.83
564.438	1732.03
563.402	1719.65
562.365	1753.09
561.328	1728.66
560.291	1798.24
559.254	1831.65
558.216	1903.6
557.178	1852.65
556.141	1806.54
555.102	1803.8
554.064	1769.75
553.026	1767.02
551.987	1764.28
550.948	1824.12
549.909	1845.43
548.87	1840.28
547.83	1755.76
546.791	1777.07
545.751	1764.72
544.711	1786.03
543.671	1754.45
542.63	1833.43
541.59	1833.08
540.549	1782.3
539.508	1822.8
538.467	1863.28
537.425	1795.71
536.384	1814.58
535.342	1792.65
534.3	1799.51
533.258	1799.18
532.216	1863.6
531.173	1791.31
530.13	1747.83
529.088	1771.47
528.044	1802.3
527.001	1730.08
525.958	1696.21
524.914	1739.02
523.87	1719.53
522.826	1776.68
521.782	1687.77
520.737	1740.12
519.693	1766.12
518.648	1772.97
517.603	1844.4
516.557	1829.71
515.512	1910.67
514.466	1809.9
513.42	1819.13
512.374	1866.59
511.328	1770.66
510.282	1727.32
509.235	1765.22
508.188	1686.08
507.141	1802.77
506.094	1683.07
505.047	1747.2
503.999	1677.67
502.951	1710.76
501.903	1684.2
500.855	1834.15
499.807	1809.96
