3200.66	8.41982
3200.06	8.41982
3199.47	21.0464
3198.87	-12.6259
3198.28	12.624
3197.69	12.6221
3197.09	4.20673
3196.5	16.8244
3195.9	4.20546
3195.31	29.4338
3194.71	8.40838
3194.12	4.20355
3193.52	12.6087
3192.93	0
3192.33	0
3191.74	-12.603
3191.14	16.8015
3190.55	25.1984
3189.95	8.39821
3189.36	20.9923
3188.76	8.39567
3188.17	25.1832
3187.57	16.7863
3186.97	20.9796
3186.38	8.39059
3185.78	20.9733
3185.19	0
3184.59	0
3183.99	4.19276
3183.4	8.38424
3182.8	4.19149
3182.2	16.7634
3181.61	16.7609
3181.01	8.37917
3180.41	16.7558
3179.82	16.7533
3179.22	0
3178.62	12.5611
3178.03	12.5592
3177.43	4.18578
3176.83	8.37029
3176.23	8.36903
3175.64	4.18388
3175.04	8.36649
3174.44	16.7305
3173.84	-12.5459
3173.25	0
3172.65	-4.18071
3172.05	-16.7203
3171.45	4.17945
3170.85	8.35763
3170.26	20.8909
3169.66	4.17755
3169.06	16.7077
3168.46	20.8814
3167.86	25.0539
3167.26	12.525
3166.66	20.8719
3166.06	12.5213
3165.47	20.8656
3164.87	16.6899
3164.27	-4.17185
3163.67	16.6849
3163.07	12.5118
3162.47	-12.5099
3161.87	4.16933
3161.27	-8.33739
3160.67	-4.16806
3160.07	20.8371
3159.47	16.6672
3158.87	8.33233
3158.27	0
3157.67	0
3157.07	-8.32854
3156.47	-8.32728
3155.87	0
3155.27	-12.4871
3154.67	8.32349
3154.07	0
3153.46	8.32097
3152.86	0
3152.26	8.31844
3151.66	8.31718
3151.06	24.9478
3150.46	-8.31466
3149.86	12.4701
3149.26	-4.15607
3148.65	16.6217
3148.05	4.15481
3147.45	-4.15417
3146.85	0
3146.25	-4.15291
3145.64	8.30457
3145.04	0
3144.44	24.9061
3143.84	16.6016
3143.24	8.29953
3142.63	20.7457
3142.03	0
3141.43	8.29575
3140.82	-8.29449
3140.22	4.14661
3139.62	41.4598
3139.02	4.14535
3138.41	-4.14473
3137.81	8.28819
3137.21	12.4304
3136.6	8.28567
3136	4.14221
3135.4	0
3134.79	8.2819
3134.19	16.5613
3133.58	0
3132.98	4.13906
3132.38	-8.27687
3131.77	20.689
3131.17	0
3130.56	8.2731
3129.96	12.4078
3129.35	-16.5412
3128.75	8.26932
3128.14	-20.6702
3127.54	12.4002
3126.93	28.9294
3126.33	12.3964
3125.72	16.5261
3125.12	8.26179
3124.51	20.6513
3123.91	8.25927
3123.3	-16.516
3122.7	8.25676
3122.09	-12.3833
3121.49	0
3120.88	8.253
3120.27	4.12587
3119.67	0
3119.06	16.4985
3118.46	20.6199
3117.85	-8.24672
3117.24	16.4909
3116.64	20.6105
3116.03	32.9718
3115.42	8.2417
3114.82	-4.12023
3114.21	-8.2392
3113.6	16.4759
3113	12.355
3112.39	0
3111.78	20.5855
3111.17	8.23293
3110.57	-8.23168
3109.96	8.23042
3109.35	16.4583
3108.74	4.11396
3108.14	12.34
3107.53	0
3106.92	4.11208
3106.31	12.3344
3105.7	0
3105.1	-8.22041
3104.49	16.4383
3103.88	4.10895
3103.27	8.21665
3102.66	20.5385
3102.05	-4.10707
3101.44	0
3100.84	36.9524
3100.23	0
3099.62	20.5229
3099.01	4.10395
3098.4	0
3097.79	8.20539
3097.18	12.3062
3096.57	0
3095.96	-16.4033
3095.35	-4.1002
3094.74	-16.3983
3094.13	0
3093.52	-8.19665
3092.91	4.0977
3092.3	0
3091.69	-12.2893
3091.08	16.3833
3090.47	-4.0952
3089.86	16.3783
3089.25	8.1879
3088.64	4.09333
3088.03	-4.0927
3087.42	4.09208
3086.81	0
3086.19	0
3085.58	20.451
3084.97	16.3583
3084.36	-8.17792
3083.75	8.17667
3083.14	12.2631
3082.53	-12.2613
3081.91	12.2594
3081.3	8.17169
3080.69	16.3409
3080.08	-16.3384
3079.47	8.16795
3078.85	8.1667
3078.24	8.16545
3077.63	12.2463
3077.02	4.08148
3076.4	16.3234
3075.79	8.16047
3075.18	12.2388
3074.57	0
3073.95	8.15674
3073.34	28.5442
3072.73	8.15425
3072.11	-8.153
3071.5	20.3794
3070.89	12.2258
3070.27	0
3069.66	0
3069.05	4.07339
3068.43	16.2911
3067.82	0
3067.2	4.07152
3066.59	16.2836
3065.98	4.07028
3065.36	-4.06966
3064.75	8.13807
3064.13	8.13683
3063.52	16.2712
3062.9	8.13434
3062.29	8.1331
3061.67	-4.06593
3061.06	12.1959
3060.44	24.3881
3059.83	4.06407
3059.21	4.06345
3058.6	12.1885
3057.98	16.2488
3057.37	0
3056.75	8.12192
3056.14	0
3055.52	28.418
3054.9	-4.0591
3054.29	16.2339
3053.67	4.05786
3053.06	12.1717
3052.44	4.05662
3051.82	4.056
3051.21	12.1661
3050.59	0
3049.97	20.2707
3049.36	16.2141
3048.74	0
3048.12	8.10455
3047.51	-16.2066
3046.89	12.1531
3046.27	16.2017
3045.65	24.2988
3045.04	-4.04918
3044.42	24.2914
3043.8	12.1438
3043.18	-8.09464
3042.57	16.1868
3041.95	0
3041.33	12.1364
3040.71	32.3588
3040.09	-8.08845
3039.48	20.218
3038.86	24.2579
3038.24	4.04237
3037.62	12.1252
3037	-4.04113
3036.38	-4.04051
3035.76	4.03989
3035.14	12.1178
3034.53	16.1546
3033.91	8.07608
3033.29	16.1497
3032.67	0
3032.05	16.1447
3031.43	8.07113
3030.81	8.06989
3030.19	12.103
3029.57	-4.03371
3028.95	12.0993
3028.33	20.1624
3027.71	4.03186
3027.09	-4.03124
3026.47	0
3025.85	12.09
3025.23	-8.05877
3024.61	12.0863
3023.99	0
3023.37	8.05507
3022.75	16.1077
3022.13	44.2893
3021.5	12.0771
3020.88	8.05013
3020.26	16.0978
3019.64	4.02383
3019.02	12.0696
3018.4	0
3017.78	16.0879
3017.15	-16.0855
3016.53	12.0622
3015.91	20.1007
3015.29	20.0976
3014.67	16.0756
3014.04	16.0731
3013.42	0
3012.8	28.1194
3012.18	8.03287
3011.56	8.03164
3010.93	0
3010.31	4.01459
3009.69	16.0559
3009.06	16.0534
3008.44	0
3007.82	0
3007.19	0
3006.57	4.01089
3005.95	4.01028
3005.32	12.029
3004.7	0
3004.08	8.01686
3003.45	40.0782
3002.83	12.0216
3002.21	12.0198
3001.58	28.0418
3000.96	8.01071
3000.33	4.00474
2999.71	4.00413
2999.08	0
2998.46	-8.00579
2997.84	16.0091
2997.21	4.00167
2996.59	-4.00105
2995.96	-4.00044
2995.34	15.9993
2994.71	31.9937
2994.09	-11.9958
2993.46	3.99798
2992.83	-3.99737
2992.21	11.9903
2991.58	11.9884
2990.96	7.99105
2990.33	0
2989.71	-11.9829
2989.08	7.98737
2988.45	0
2987.83	0
2987.2	11.9755
2986.58	19.9561
2985.95	23.9437
2985.32	0
2984.7	15.9576
2984.07	-15.9551
2983.44	11.9645
2982.82	0
2982.19	3.98694
2981.56	31.8906
2980.93	7.97142
2980.31	0
2979.68	11.9535
2979.05	11.9516
2978.42	15.933
2977.8	0
2977.17	11.9461
2976.54	0
2975.91	11.9424
2975.28	3.9802
2974.66	19.8979
2974.03	3.97897
2973.4	11.9351
2972.77	7.95549
2972.14	15.9085
2971.51	3.97652
2970.88	19.8796
2970.26	3.9753
2969.63	7.94937
2969	15.8963
2968.37	7.94693
2967.74	11.9186
2967.11	-11.9167
2966.48	11.9149
2965.85	-11.9131
2965.22	23.8224
2964.59	11.9094
2963.96	0
2963.33	19.8429
2962.7	11.9039
2962.07	19.8368
2961.44	15.867
2960.81	0
2960.18	7.93104
2959.55	7.92981
2958.92	15.8572
2958.29	0
2957.66	23.7785
2957.03	-3.96246
2956.4	7.92371
2955.76	7.92249
2955.13	0
2954.5	7.92005
2953.87	23.7565
2953.24	11.8764
2952.61	15.8328
2951.98	7.91517
2951.34	3.95697
2950.71	0
2950.08	7.91151
2949.45	3.95514
2948.82	3.95453
2948.18	23.7235
2947.55	15.8133
2946.92	-7.90541
2946.29	3.9521
2945.65	3.95149
2945.02	3.95088
2944.39	15.8011
2943.76	15.7986
2943.12	3.94905
2942.49	11.8453
2941.86	19.7392
2941.22	-3.94722
2940.59	7.89323
2939.96	3.946
2939.32	-3.9454
2938.69	11.8344
2938.05	-3.94418
2937.42	3.94357
2936.79	3.94296
2936.15	11.8271
2935.52	27.5922
2934.88	15.7645
2934.25	11.8216
2933.61	27.5794
2932.98	0
2932.34	11.8161
2931.71	-7.87619
2931.08	23.6249
2930.44	7.87376
2929.81	15.7451
2929.17	7.87133
2928.53	-3.93506
2927.9	3.93445
2927.26	-15.7354
2926.63	7.86647
2925.99	7.86525
2925.36	11.7961
2924.72	19.6571
2924.08	7.86161
2923.45	11.7906
2922.81	-15.7184
2922.18	23.5739
2921.54	19.6419
2920.9	23.5666
2920.27	11.7815
2919.63	3.92656
2918.99	27.4816
2918.36	19.6267
2917.72	7.84947
2917.08	3.92413
2916.44	0
2915.81	-3.92292
2915.17	0
2914.53	-11.7651
2913.9	11.7633
2913.26	15.682
2912.62	15.6795
2911.98	7.83856
2911.34	19.5934
2910.71	15.6723
2910.07	7.83492
2909.43	23.5011
2908.79	-7.8325
2908.15	35.2408
2907.51	0
2906.88	15.6577
2906.24	19.5691
2905.6	15.6529
2904.96	27.3883
2904.32	46.9441
2903.68	3.91141
2903.04	15.6432
2902.4	3.9102
2901.76	7.81918
2901.12	27.3629
2900.48	0
2899.84	7.81555
2899.2	19.5359
2898.56	11.7197
2897.92	15.6239
2897.28	15.6214
2896.64	15.619
2896	7.8083
2895.36	-3.90354
2894.72	35.1265
2894.08	0
2893.44	0
2892.8	15.6045
2892.16	27.3037
2891.52	-7.79984
2890.88	11.6979
2890.24	27.291
2889.59	11.6943
2888.95	19.4875
2888.31	15.5876
2887.67	15.5852
2887.03	27.2699
2886.39	19.4754
2885.74	31.1559
2885.1	11.6816
2884.46	23.3597
2883.82	11.678
2883.18	7.78415
2882.53	27.2403
2881.89	38.9087
2881.25	42.7929
2880.6	15.5586
2879.96	19.4453
2879.32	23.3307
2878.68	38.8785
2878.03	34.9852
2877.39	23.3199
2876.75	11.6581
2876.1	31.0835
2875.46	34.9636
2874.82	23.3054
2874.17	31.0691
2873.53	19.4152
2872.88	27.177
2872.24	11.6455
2871.6	46.5747
2870.95	15.5225
2870.31	7.76004
2869.66	23.2765
2869.02	19.3941
2868.37	19.3911
2867.73	7.75523
2867.08	15.5081
2866.44	11.6292
2865.79	15.5032
2865.15	11.6256
2864.5	7.74922
2863.86	11.622
2863.21	15.4936
2862.57	27.1096
2861.92	30.9776
2861.28	30.9728
2860.63	30.968
2859.98	30.9632
2859.34	38.698
2858.69	3.8692
2858.05	3.8686
2857.4	7.73599
2856.75	3.8674
2856.11	30.9344
2855.46	15.4648
2854.81	3.86559
2854.17	30.92
2853.52	19.322
2852.87	27.0466
2852.23	23.1792
2851.58	27.0382
2850.93	27.034
2850.28	15.4456
2849.64	38.6079
2848.99	19.301
2848.34	15.4384
2847.69	27.013
2847.05	34.7255
2846.4	19.289
2845.75	23.1432
2845.1	23.1396
2844.45	19.28
2843.8	38.554
2843.16	15.4192
2842.51	23.1252
2841.86	7.7072
2841.21	7.706
2840.56	15.4096
2839.91	7.7036
2839.26	11.5536
2838.61	-3.8506
2837.96	19.25
2837.31	19.247
2836.66	15.3952
2836.01	7.69642
2835.36	0
2834.72	0
2834.07	23.0785
2833.42	26.9207
2832.76	19.2261
2832.11	3.84462
2831.46	34.5962
2830.81	11.5303
2830.16	7.68565
2829.51	42.2645
2828.86	-7.68325
2828.21	23.0462
2827.56	19.2022
2826.91	34.5585
2826.26	42.2316
2825.61	3.83864
2824.96	3.83804
2824.3	30.6995
2823.65	0
2823	3.83625
2822.35	7.6713
2821.7	15.3402
2821.04	15.3378
2820.39	-7.66772
2819.74	3.83326
2819.09	7.66533
2818.44	15.3283
2817.78	38.3147
2817.13	7.66175
2816.48	15.3211
2815.83	7.65936
2815.17	0
2814.52	11.4855
2813.87	19.1395
2813.21	19.1365
2812.56	11.4801
2811.91	11.4783
2811.25	0
2810.6	-3.82491
2809.95	11.4729
2809.29	7.64744
2808.64	15.2925
2807.98	3.82253
2807.33	7.64386
2806.68	30.5707
2806.02	15.283
2805.37	26.741
2804.71	0
2804.06	0
2803.4	-7.63671
2802.75	11.4533
2802.09	15.2687
2801.44	26.716
2800.78	0
2800.13	7.63076
2799.47	22.8887
2798.82	0
2798.16	7.62719
2797.51	7.626
2796.85	15.2496
2796.19	3.81181
2795.54	0
2794.88	15.2425
2794.23	30.4802
2793.57	26.666
2792.91	15.2353
2792.26	7.61648
2791.6	11.4229
2790.94	7.6141
2790.29	7.61292
2789.63	-3.80586
2788.97	7.61054
2788.32	15.2187
2787.66	26.6286
2787	15.2139
2786.34	19.0145
2785.69	11.4069
2785.03	19.0085
2784.37	0
2783.71	11.4016
2783.06	15.1997
2782.4	7.59866
2781.74	18.9937
2781.08	11.3944
2780.42	3.79755
2779.76	18.9848
2779.11	22.7782
2778.45	18.9789
2777.79	-3.79518
2777.13	18.9729
2776.47	11.382
2775.81	22.7604
2775.15	18.964
2774.49	22.7533
2773.83	7.58324
2773.17	-7.58205
2772.51	34.1139
2771.86	7.57968
2771.2	7.5785
2770.54	15.1546
2769.88	26.5165
2769.22	0
2768.56	18.9344
2767.9	7.57258
2767.23	18.9285
2766.57	22.7106
2765.91	0
2765.25	-7.56784
2764.59	15.1333
2763.93	18.9137
2763.27	11.3464
2762.61	11.3447
2761.95	11.3429
2761.29	-3.78037
2760.63	7.55956
2759.96	7.55837
2759.3	7.55719
2758.64	3.778
2757.98	15.1096
2757.32	7.55364
2756.65	0
2755.99	11.3269
2755.33	15.1002
2754.67	11.3234
2754.01	18.8693
2753.34	0
2752.68	22.6361
2752.02	3.77209
2751.35	7.54301
2750.69	15.0836
2750.03	30.1626
2749.37	7.53946
2748.7	3.76914
2748.04	7.5371
2747.38	-7.53592
2746.71	26.3716
2746.05	0
2745.38	15.0648
2744.72	15.0624
2744.06	37.6501
2743.39	18.8221
2742.73	26.3468
2742.06	15.053
2741.4	22.5759
2740.73	0
2740.07	15.0459
2739.41	15.0435
2738.74	15.0412
2738.08	11.2791
2737.41	11.2773
2736.75	22.5511
2736.08	3.75793
2735.41	-7.51469
2734.75	7.51351
2734.08	26.2932
2733.42	11.2667
2732.75	0
2732.09	26.2808
2731.42	15.0152
2730.75	3.75322
2730.09	18.7632
2729.42	18.7602
2728.76	26.2602
2728.09	22.5052
2727.42	15.0011
2726.76	11.2491
2726.09	18.7455
2725.42	14.9941
2724.75	18.7396
2724.09	7.49468
2723.42	18.7338
2722.75	0
2722.09	18.7279
2721.42	14.9799
2720.75	14.9776
2720.08	29.9505
2719.41	26.2026
2718.75	37.4264
2718.08	7.48409
2717.41	7.48292
2716.74	14.9635
2716.07	3.74028
2715.41	18.6985
2714.74	33.652
2714.07	11.2156
2713.4	18.6897
2712.73	11.212
2712.06	11.2103
2711.39	14.9447
2710.72	7.47118
2710.05	14.94
2709.38	14.9377
2708.71	-14.9353
2708.04	14.933
2707.37	7.46531
2706.7	7.46413
2706.03	22.3889
2705.36	33.578
2704.69	22.3818
2704.02	18.6486
2703.35	18.6457
2702.68	52.1997
2702.01	22.3678
2701.34	14.9095
2700.67	26.0875
2700	3.72621
2699.33	26.0793
2698.66	14.9001
2697.99	22.3467
2697.32	29.7909
2696.64	18.6164
2695.97	7.44538
2695.3	18.6105
2694.63	0
2693.96	7.44187
2693.29	14.8814
2692.61	-3.71976
2691.94	18.5959
2691.27	0
2690.6	7.43602
2689.92	18.5871
2689.25	11.1505
2688.58	26.0138
2687.91	18.5783
2687.23	18.5754
2686.56	11.1435
2685.89	7.42783
2685.21	22.28
2684.54	25.9892
2683.87	3.71216
2683.19	14.8463
2682.52	11.133
2681.85	22.2624
2681.17	11.1295
2680.5	14.837
2679.82	7.41731
2679.15	7.41614
2678.48	18.5374
2677.8	25.9483
2677.13	18.5316
2676.45	33.3516
2675.78	25.9361
2675.1	18.5228
2674.43	25.9279
2673.75	25.9238
2673.08	22.2169
2672.4	18.5112
2671.73	14.8066
2671.05	14.8043
2670.37	3.70048
2669.7	18.4995
2669.02	18.4966
2668.35	7.39747
2667.67	7.3963
2667	18.4878
2666.32	0
2665.64	18.482
2664.97	22.1749
2664.29	-3.69524
2663.61	22.1679
2662.94	11.0822
2662.26	7.38698
2661.58	18.4645
2660.91	-3.69232
2660.23	3.69174
2659.55	3.69116
2658.87	25.834
2658.2	7.37999
2657.52	11.0682
2656.84	22.133
2656.16	29.506
2655.49	18.4383
2654.81	3.68708
2654.13	18.4325
2653.45	7.37184
2652.77	22.112
2652.09	0
2651.42	18.4209
2650.74	25.7852
2650.06	18.4151
2649.38	3.68243
2648.7	25.7729
2648.02	11.0438
2647.34	11.0421
2646.66	22.0806
2645.98	7.35905
2645.3	22.0737
2644.62	14.7135
2643.94	7.35556
2643.26	22.0632
2642.58	3.67662
2641.9	11.0281
2641.22	0
2640.54	18.3744
2639.86	14.6972
2639.18	18.3686
2638.5	11.0194
2637.82	0
2637.14	18.3599
2636.46	14.6856
2635.78	14.6833
2635.1	22.0214
2634.42	11.009
2633.73	29.3526
2633.05	18.3425
2632.37	-3.66792
2631.69	36.6734
2631.01	-3.66676
2630.33	10.9985
2629.64	29.3248
2628.96	10.995
2628.28	18.3222
2627.6	0
2626.91	0
2626.23	25.6389
2625.55	18.3106
2624.87	7.32308
2624.18	0
2623.5	14.6415
2622.82	36.598
2622.13	0
2621.45	14.6346
2620.77	3.65807
2620.08	3.65749
2619.4	18.2845
2618.72	-3.65633
2618.03	10.9673
2617.35	18.2759
2616.67	21.9276
2615.98	3.65402
2615.3	3.65344
2614.61	29.2229
2613.93	36.5228
2613.24	10.9551
2612.56	18.2556
2611.87	3.65055
2611.19	3.64997
2610.5	21.8963
2609.82	14.5952
2609.13	10.9447
2608.45	14.5906
2607.76	32.8237
2607.08	3.6465
2606.39	10.9378
2605.71	32.8081
2605.02	18.2238
2604.33	-3.64419
2603.65	43.7234
2602.96	14.5721
2602.27	10.9274
2601.59	25.4932
2600.9	14.5652
2600.21	29.1258
2599.53	0
2598.84	0
2598.15	18.195
2597.47	10.9153
2596.78	18.1892
2596.09	7.27453
2595.41	0
2594.72	3.63611
2594.03	36.3554
2593.34	18.1748
2592.65	10.9031
2591.97	25.4366
2591.28	29.0658
2590.59	21.7959
2589.9	18.1604
2589.21	21.789
2588.52	3.63093
2587.84	10.891
2587.15	21.7786
2586.46	25.4044
2585.77	14.5145
2585.08	7.25609
2584.39	-7.25494
2583.7	21.7614
2583.01	7.25264
2582.32	14.503
2581.63	18.1258
2580.94	10.8738
2580.25	28.9921
2579.56	18.1172
2578.87	14.4915
2578.18	3.62229
2577.49	14.4869
2576.8	32.5903
2576.11	39.8262
2575.42	25.3399
2574.73	21.7165
2574.04	25.3319
2573.35	28.9461
2572.66	14.4708
2571.97	3.61712
2571.28	14.4662
2570.58	28.9278
2569.89	0
2569.2	3.61482
2568.51	7.22849
2567.82	28.9094
2567.13	32.5179
2566.43	14.4501
2565.74	25.2836
2565.05	10.8341
2564.36	39.7188
2563.66	14.4409
2562.97	14.4386
2562.28	36.0908
2561.59	7.21701
2560.89	25.2555
2560.2	28.8589
2559.51	14.4271
2558.81	14.4248
2558.12	18.0282
2557.43	14.4203
2556.73	7.20898
2556.04	14.4157
2555.35	18.0167
2554.65	7.20554
2553.96	28.8176
2553.26	7.20325
2552.57	10.8032
2551.88	25.2034
2551.18	21.5994
2550.49	39.5927
2549.79	14.395
2549.1	7.19638
2548.4	14.3905
2547.71	17.9852
2547.01	21.5788
2546.32	21.5754
2545.62	17.9766
2544.93	21.5685
2544.23	17.9709
2543.53	28.7489
2542.84	21.5582
2542.14	32.3322
2541.45	17.9595
2540.75	14.3653
2540.05	0
2539.36	-3.59018
2538.66	7.17921
2537.97	10.7671
2537.27	3.58846
2536.57	17.9395
2535.88	21.5239
2535.18	10.7602
2534.48	25.1032
2533.78	25.0992
2533.09	28.6803
2532.39	0
2531.69	28.6711
2530.99	17.9166
2530.3	10.7482
2529.6	35.8218
2528.9	10.7448
2528.2	35.8104
2527.5	25.0633
2526.81	0
2526.11	28.6346
2525.41	17.8938
2524.71	17.8909
2524.01	28.6209
2523.31	32.1934
2522.61	35.7647
2521.91	21.4554
2521.21	0
2520.52	3.57476
2519.82	10.7226
2519.12	17.8681
2518.42	28.5844
2517.72	10.7174
2517.02	32.1472
2516.32	14.2854
2515.62	28.5662
2514.92	3.5702
2514.22	24.9874
2513.52	7.13812
2512.82	7.13699
2512.11	21.4075
2511.41	14.2694
2510.71	24.9675
2510.01	28.5297
2509.31	17.8282
2508.61	21.3905
2507.91	17.8225
2507.21	46.3312
2506.5	24.9436
2505.8	21.3768
2505.1	14.2489
2504.4	14.2466
2503.7	39.172
2503	21.3631
2502.29	17.7998
2501.59	21.3563
2500.89	3.55882
2500.19	21.3495
2499.48	24.9038
2498.78	35.5711
2498.08	14.2262
2497.37	35.5598
2496.67	35.5541
2495.97	21.329
2495.26	21.3256
2494.56	17.7685
2493.86	7.10627
2493.15	28.4205
2492.45	28.416
2491.75	14.2057
2491.04	35.5087
2490.34	24.8521
2489.63	17.7486
2488.93	-3.54916
2488.22	14.1944
2487.52	21.2882
2486.81	14.1898
2486.11	39.0158
2485.41	14.1853
2484.7	21.2745
2483.99	24.8163
2483.29	35.4462
2482.58	21.2643
2481.88	14.174
2481.17	14.1717
2480.47	7.08471
2479.76	28.3343
2479.06	17.7061
2478.35	42.4879
2477.64	14.1604
2476.94	38.9347
2476.23	14.1558
2475.52	3.53839
2474.82	21.2269
2474.11	3.53726
2473.4	14.1468
2472.7	35.3612
2471.99	21.2134
2471.28	21.21
2470.57	21.2066
2469.87	10.6016
2469.16	21.1998
2468.45	31.7946
2467.74	28.2573
2467.04	21.1896
2466.33	21.1862
2465.62	-7.06093
2464.91	24.7093
2464.2	17.6467
2463.5	17.6438
2462.79	24.6974
2462.08	28.2211
2461.37	14.1083
2460.66	24.6856
2459.95	31.7335
2459.24	28.203
2458.53	7.04963
2457.82	28.194
2457.11	21.1421
2456.4	21.1387
2455.69	14.0902
2454.99	3.52199
2454.28	28.1714
2453.57	17.6043
2452.85	0
2452.14	-7.03946
2451.43	10.5575
2450.72	14.0744
2450.01	24.6263
2449.3	38.6922
2448.59	21.1015
2447.88	31.6471
2447.17	21.0947
2446.46	31.6369
2445.75	10.544
2445.04	45.6831
2444.32	21.0811
2443.61	31.6166
2442.9	24.5868
2442.19	7.02367
2441.48	21.0676
2440.76	45.6392
2440.05	10.5304
2439.34	24.5671
2438.63	24.5631
2437.92	38.593
2437.2	14.0316
2436.49	14.0293
2435.78	3.50676
2435.06	35.062
2434.35	28.0451
2433.64	17.5254
2432.92	17.5226
2432.21	28.0316
2431.5	31.5305
2430.78	35.0282
2430.07	17.5113
2429.36	17.5085
2428.64	28.0091
2427.93	42.0069
2427.21	42.0001
2426.5	34.9945
2425.78	10.4967
2425.07	13.9933
2424.35	41.9731
2423.64	20.9832
2422.92	27.9731
2422.21	38.4568
2421.49	20.9731
2420.78	20.9697
2420.06	3.49439
2419.35	17.4691
2418.63	20.9596
2417.92	0
2417.2	24.445
2416.48	20.9495
2415.77	17.4551
2415.05	24.4332
2414.34	10.4697
2413.62	24.4253
2412.9	20.9326
2412.19	6.97642
2411.47	24.4136
2410.75	6.97418
2410.04	27.8922
2409.32	27.8877
2408.6	20.9124
2407.88	20.9091
2407.17	13.9371
2406.45	3.48372
2405.73	20.899
2405.01	13.9304
2404.29	13.9282
2403.58	31.3333
2402.86	20.8855
2402.14	27.8429
2401.42	13.9192
2400.7	31.3132
2399.98	27.8294
2399.27	27.825
2398.55	24.3429
2397.83	20.862
2397.11	27.8115
2396.39	41.7105
2395.67	24.3272
2394.95	31.2728
2394.23	38.2162
2393.51	13.8946
2392.79	34.7308
2392.07	27.7802
2391.35	0
2390.63	20.8284
2389.91	27.7667
2389.19	17.3514
2388.47	20.8183
2387.75	20.815
2387.03	20.8116
2386.31	27.7444
2385.59	20.8049
2384.87	20.8016
2384.14	17.3318
2383.42	48.5213
2382.7	20.7915
2381.98	17.3235
2381.26	13.8565
2380.54	24.245
2379.82	13.8521
2379.09	27.6997
2378.37	31.1571
2377.65	10.384
2376.93	34.6078
2376.2	27.6818
2375.48	20.758
2374.76	24.2138
2374.04	24.2098
2373.31	41.4959
2372.59	20.7446
2371.87	20.7413
2371.14	17.2816
2370.42	20.7346
2369.7	24.1864
2368.97	17.2732
2368.25	20.7245
2367.52	24.1747
2366.8	13.8119
2366.08	20.7145
2365.35	17.2593
2364.63	17.2565
2363.9	20.7045
2363.18	34.5018
2362.45	10.3489
2361.73	20.6944
2361	24.1396
2360.28	27.5836
2359.55	10.3422
2358.83	20.6811
2358.1	17.2314
2357.38	17.2286
2356.65	24.1162
2355.93	24.1123
2355.2	24.1084
2354.47	17.2175
2353.75	30.9865
2353.02	13.7696
2352.3	20.651
2351.57	13.7651
2350.84	0
2350.12	30.9615
2349.39	30.9565
2348.66	27.5124
2347.94	24.0695
2347.21	20.6276
2346.48	27.4991
2345.75	20.621
2345.03	17.1814
2344.3	13.7429
2343.57	20.611
2342.84	27.4768
2342.11	10.3021
2341.39	20.601
2340.66	24.0306
2339.93	27.4591
2339.2	27.4546
2338.47	17.1564
2337.74	13.7229
2337.02	34.3016
2336.29	20.5776
2335.56	20.5743
2334.83	30.8565
2334.1	17.1397
2333.37	30.8465
2332.64	23.9878
2331.91	20.5577
2331.18	23.9801
2330.45	0
2329.72	27.3969
2328.99	27.3925
2328.26	34.235
2327.53	41.0754
2326.8	30.8016
2326.07	23.9529
2325.34	3.42129
2324.61	20.5244
2323.88	23.9412
2323.14	20.5177
2322.41	10.2572
2321.68	34.1852
2320.95	34.1796
2320.22	27.3393
2319.49	30.7517
2318.76	17.0815
2318.02	20.4945
2317.29	47.8127
2316.56	27.3171
2315.83	30.7268
2315.1	20.4812
2314.36	34.1298
2313.63	44.3615
2312.9	17.0594
2312.16	20.4679
2311.43	30.6969
2310.7	37.5123
2309.97	44.3256
2309.23	40.9093
2308.5	17.0428
2307.76	34.08
2307.03	30.667
2306.3	17.0345
2305.56	37.4698
2304.83	34.0579
2304.1	30.6471
2303.36	6.80937
2302.63	13.6165
2301.89	27.2286
2301.16	23.8212
2300.42	23.8173
2299.69	30.6173
2298.95	17.0069
2298.22	10.2025
2297.48	10.2008
2296.75	27.1977
2296.01	44.1891
2295.28	20.3917
2294.54	16.9903
2293.8	16.9875
2293.07	37.3665
2292.33	30.5676
2291.6	27.1668
2290.86	50.9295
2290.12	6.7895
2289.39	30.5478
2288.65	16.9682
2287.91	27.1448
2287.18	-3.39254
2286.44	23.744
2285.7	16.9572
2284.97	13.5636
2284.23	23.7324
2283.49	20.3387
2282.75	30.5031
2282.01	44.0529
2281.28	23.717
2280.54	33.8759
2279.8	6.77407
2279.06	16.9324
2278.32	33.8593
2277.59	57.5515
2276.85	27.0787
2276.11	30.4585
2275.37	20.3024
2274.63	47.3645
2273.89	20.2958
2273.15	23.6746
2272.41	27.0522
2271.67	30.4288
2270.93	40.5652
2270.19	30.4189
2269.45	30.414
2268.71	27.0303
2267.97	23.6476
2267.23	20.2661
2266.49	33.7713
2265.75	23.6361
2265.01	20.2562
2264.27	20.2529
2263.53	23.6245
2262.79	16.8719
2262.05	23.6168
2261.31	33.7329
2260.57	10.1182
2259.83	33.7219
2259.09	43.8313
2258.34	26.9687
2257.6	30.3349
2256.86	64.0298
2256.12	26.9555
2255.38	13.4756
2254.63	20.2101
2253.89	20.2068
2253.15	16.8362
2252.41	26.9336
2251.66	23.5631
2250.92	26.9248
2250.18	47.1108
2249.43	23.5515
2248.69	26.9117
2247.95	23.5439
2247.21	30.2657
2246.46	23.5362
2245.72	33.6176
2244.97	26.8897
2244.23	30.246
2243.49	30.2411
2242.74	20.1574
2242	33.5903
2241.25	30.2263
2240.51	13.4317
2239.76	26.8591
2239.02	23.4978
2238.27	40.2754
2237.53	30.2017
2236.78	16.776
2236.04	36.9011
2235.29	20.1246
2234.55	43.5962
2233.8	26.824
2233.06	36.877
2232.31	50.2786
2231.57	13.4055
2230.82	33.5082
2230.07	30.1524
2229.33	13.3989
2228.58	30.1426
2227.83	30.1377
2227.09	13.3923
2226.34	30.1278
2225.59	16.7349
2224.85	40.1573
2224.1	26.7672
2223.35	40.1442
2222.6	20.0688
2221.86	33.4426
2221.11	36.7808
2220.36	23.4022
2219.61	36.7688
2218.87	40.1049
2218.12	36.7568
2217.37	23.3869
2216.62	26.7235
2215.87	26.7191
2215.12	30.0541
2214.37	50.082
2213.63	30.0443
2212.88	33.3771
2212.13	26.6973
2211.38	43.376
2210.63	36.6968
2209.88	30.0197
2209.13	13.3399
2208.38	46.6821
2207.63	30.005
2206.88	26.6668
2206.13	33.328
2205.38	39.9871
2204.63	26.6537
2203.88	26.6493
2203.13	36.6368
2202.38	36.6308
2201.63	26.6362
2200.88	26.6319
2200.12	43.2697
2199.37	26.6232
2198.62	29.9462
2197.87	16.634
2197.12	36.5889
2196.37	46.5601
2195.62	23.2762
2194.86	23.2724
2194.11	33.2409
2193.36	33.2354
2192.61	29.907
2191.85	39.8695
2191.1	29.8972
2190.35	16.6068
2189.6	63.0956
2188.84	13.2811
2188.09	46.4763
2187.34	19.9152
2186.58	33.1865
2185.83	39.8173
2185.08	13.2702
2184.32	39.8042
2183.57	49.7471
2182.82	29.8434
2182.06	29.8385
2181.31	29.8336
2180.55	29.8287
2179.8	23.1963
2179.04	43.0718
2178.29	33.1267
2177.53	39.7456
2176.78	16.5579
2176.02	43.0436
2175.27	19.863
2174.51	33.0996
2173.76	16.5471
2173	26.471
2172.25	23.1583
2171.49	23.1545
2170.74	19.8435
2169.98	23.1469
2169.22	33.0616
2168.47	26.445
2167.71	9.91523
2166.95	16.5227
2166.2	23.128
2165.44	26.4276
2164.68	36.332
2163.93	23.1166
2163.17	33.0183
2162.41	19.8077
2161.65	52.8119
2160.9	26.4016
2160.14	19.798
2159.38	32.9912
2158.62	49.4786
2157.87	29.6823
2157.11	13.19
2156.35	36.2665
2155.59	32.9641
2154.83	39.5504
2154.07	56.0206
2153.31	39.5374
2152.56	26.354
2151.8	23.0559
2151.04	36.2248
2150.28	36.2189
2149.52	16.4604
2148.76	23.0408
2148	19.746
2147.24	32.9046
2146.48	16.4496
2145.72	32.8938
2144.96	42.7549
2144.2	36.1713
2143.44	32.8776
2142.68	36.1594
2141.92	9.86003
2141.16	36.1475
2140.4	29.5704
2139.64	36.1356
2138.87	39.4142
2138.11	26.2718
2137.35	39.4013
2136.59	39.3948
2135.83	39.3883
2135.07	19.6909
2134.31	32.8128
2133.54	26.2459
2132.78	9.8406
2132.02	22.9576
2131.26	19.6747
2130.49	32.7858
2129.73	29.5024
2128.97	9.83251
2128.21	19.6618
2127.44	42.5935
2126.68	49.1383
2125.92	36.0288
2125.15	36.0229
2124.39	42.5655
2123.63	45.8322
2122.86	36.0051
2122.1	22.9086
2121.33	35.9932
2120.57	35.9873
2119.81	13.0841
2119.04	29.4345
2118.28	29.4296
2117.51	45.7719
2116.75	32.6888
2115.98	26.1468
2115.22	35.9459
2114.45	26.1381
2113.69	26.1338
2112.92	35.9281
2112.16	29.3909
2111.39	42.4465
2110.62	26.1166
2109.86	45.6966
2109.09	52.216
2108.33	32.6296
2107.56	35.8867
2106.79	32.6189
2106.03	29.3522
2105.26	26.0865
2104.49	32.6028
2103.73	29.3376
2102.96	29.3328
2102.19	42.3626
2101.42	26.065
2100.66	39.0911
2099.89	29.3135
2099.12	45.5912
2098.35	29.3038
2097.59	45.5762
2096.82	9.76471
2096.05	35.798
2095.28	32.5383
2094.51	39.0395
2093.74	29.2748
2092.98	45.5311
2092.21	32.5168
2091.44	16.2557
2090.67	35.7567
2089.9	55.2513
2089.13	25.9963
2088.36	38.988
2087.59	51.9755
2086.82	16.2396
2086.05	22.7318
2085.28	38.9623
2084.51	25.9706
2083.74	25.9663
2082.97	38.943
2082.2	25.9577
2081.43	16.2209
2080.66	42.1673
2079.89	25.9449
2079.12	35.6683
2078.35	22.6942
2077.57	38.898
2076.8	35.6506
2076.03	48.6064
2075.26	35.6388
2074.49	25.9149
2073.72	32.3882
2072.94	25.9063
2072.17	42.0908
2071.4	51.7955
2070.63	45.3136
2069.86	38.8338
2069.08	38.8274
2068.31	25.8806
2067.54	35.58
2066.76	29.1061
2065.99	29.1013
2065.22	51.727
2064.44	35.5565
2063.67	32.3187
2062.9	32.3134
2062.12	38.7696
2061.35	45.2237
2060.58	12.9189
2059.8	45.2088
2059.03	32.2866
2058.25	38.7376
2057.48	25.8208
2056.7	45.1789
2055.93	38.7183
2055.15	25.808
2054.38	19.3528
2053.6	48.3739
2052.83	61.2635
2052.05	35.4625
2051.28	25.7866
2050.5	38.6735
2049.72	29.0003
2048.95	25.7738
2048.17	38.6543
2047.4	51.5305
2046.62	28.9811
2045.84	48.2939
2045.07	25.7525
2044.29	32.1853
2043.51	35.3979
2042.74	28.9571
2041.96	38.6031
2041.18	32.1639
2040.4	51.4538
2039.63	28.938
2038.85	61.0811
2038.07	44.9997
2037.29	35.351
2036.52	44.9848
2035.74	38.552
2034.96	48.182
2034.18	44.9624
2033.4	41.7439
2032.62	54.5791
2031.84	64.2001
2031.07	51.3515
2030.29	32.0894
2029.51	35.2925
2028.73	51.326
2027.95	48.1102
2027.17	48.1022
2026.39	38.4754
2025.61	41.6747
2024.83	48.0782
2024.05	35.2515
2023.27	38.4498
2022.49	38.4435
2021.71	35.234
2020.93	48.0384
2020.15	48.0304
2019.37	64.0299
2018.59	54.4164
2017.8	32.0043
2017.02	41.5987
2016.24	41.5918
2015.46	70.3745
2014.68	47.9746
2013.9	28.78
2013.11	25.578
2012.33	47.9507
2011.55	51.139
2010.77	63.9131
2009.99	38.3415
2009.2	35.1405
2008.42	47.9109
2007.64	54.2901
2006.85	47.895
2006.07	54.272
2005.29	38.3033
2004.5	54.254
2003.72	76.5811
2002.94	51.0456
2002.15	51.0371
2001.37	51.0286
2000.59	41.4539
1999.8	63.7646
1999.02	54.1909
1998.23	66.9306
1997.45	41.4263
1996.66	70.0945
1995.88	41.4126
1995.09	38.2206
1994.31	73.244
1993.52	35.0239
1992.74	47.752
1991.95	60.4758
1991.17	57.2833
1990.38	50.91
1989.6	50.9015
1988.81	63.6163
1988.02	57.2452
1987.24	66.7749
1986.45	54.0469
1985.67	63.574
1984.88	57.2071
1984.09	31.7764
1983.3	47.6567
1982.52	34.9424
1981.73	53.993
1980.94	44.4574
1980.16	60.325
1979.37	44.4426
1978.58	66.6528
1977.79	82.5088
1977.01	66.6306
1976.22	47.5854
1975.43	57.0929
1974.64	57.0834
1973.85	63.4155
1973.06	63.4049
1972.27	44.376
1971.49	38.0303
1970.7	60.2046
1969.91	60.1945
1969.12	44.3465
1968.33	50.6733
1967.54	69.6641
1966.75	66.4865
1965.96	44.3169
1965.17	60.1344
1964.38	53.7955
1963.59	75.9339
1962.8	69.5945
1962.01	75.9086
1961.22	56.922
1960.43	50.5889
1959.64	72.7094
1958.85	53.7328
1958.06	66.3647
1957.26	63.1939
1956.47	66.3426
1955.68	56.8556
1954.89	63.1623
1954.1	85.2549
1953.31	78.9266
1952.51	63.1307
1951.72	69.4322
1950.93	56.7987
1950.14	53.6343
1949.34	75.7063
1948.55	69.3859
1947.76	59.9142
1946.97	50.4456
1946.17	72.5035
1945.38	85.0986
1944.59	66.1767
1943.79	72.4672
1943	81.9057
1942.21	66.1436
1941.41	59.8342
1940.62	66.1215
1939.82	72.4067
1939.03	88.1326
1938.24	62.9413
1937.44	78.6635
1936.65	91.2344
1935.85	81.7827
1935.06	78.6241
1934.26	78.611
1933.47	78.5978
1932.67	62.8678
1931.88	62.8573
1931.08	78.5584
1930.28	81.6871
1929.49	62.8258
1928.69	59.6745
1927.9	65.945
1927.1	119.309
1926.3	72.2013
1925.51	72.1893
1924.71	53.3484
1923.91	72.1651
1923.12	94.1127
1922.32	87.8238
1921.52	87.8091
1920.73	87.7944
1919.93	100.32
1919.13	68.9583
1918.33	72.0807
1917.53	84.6023
1916.74	78.3224
1915.94	84.574
1915.14	75.1643
1914.34	59.4951
1913.54	87.6624
1912.74	97.0385
1911.95	103.282
1911.15	59.4553
1910.35	93.8611
1909.55	90.7172
1908.75	103.213
1907.95	81.3055
1907.15	78.1652
1906.35	81.2782
1905.55	87.5158
1904.75	78.126
1903.95	99.9845
1903.15	87.4718
1902.35	74.9633
1901.55	93.6884
1900.75	84.3054
1899.95	87.4132
1899.15	74.9131
1898.35	90.5048
1897.54	87.3693
1896.74	71.7556
1895.94	71.7436
1895.14	99.8004
1894.34	99.7837
1893.54	81.0607
1892.73	90.3987
1891.93	93.5002
1891.13	81.0199
1890.33	99.7001
1889.53	84.1079
1888.72	68.5209
1887.92	80.9656
1887.12	99.6333
1886.31	80.9385
1885.51	74.6999
1884.71	65.3515
1883.9	84.0092
1883.1	71.5514
1882.3	96.4227
1881.49	80.8571
1880.69	83.9529
1879.88	93.2653
1879.08	83.9247
1878.28	96.3418
1877.47	102.54
1876.67	108.737
1875.86	93.1871
1875.06	74.5372
1874.25	86.9454
1873.45	99.3495
1872.64	99.3328
1871.84	90.0053
1871.03	74.4746
1870.22	83.7699
1869.42	105.47
1868.61	83.7418
1867.81	86.8287
1867	96.1157
1866.19	80.5996
1865.39	111.581
1864.58	96.0672
1863.77	77.4606
1862.97	114.622
1862.16	114.603
1861.35	105.293
1860.54	77.4085
1859.74	83.5872
1858.93	86.6684
1858.12	92.8434
1857.31	108.299
1856.51	126.843
1855.7	77.3305
1854.89	68.0394
1854.08	74.2123
1853.27	105.116
1852.46	108.19
1851.65	86.5374
1850.84	86.5228
1850.04	114.315
1849.23	86.4937
1848.42	129.719
1847.61	92.6407
1846.8	95.7126
1845.99	98.7835
1845.18	101.853
1844.37	80.2346
1843.56	123.417
1842.75	83.2925
1841.94	80.1941
1841.13	98.6838
1840.31	101.751
1839.5	92.485
1838.69	92.4694
1837.88	101.699
1837.07	95.5196
1836.26	73.9382
1835.45	98.5676
1834.64	123.189
1833.82	101.614
1833.01	110.833
1832.2	104.658
1831.39	98.4847
1830.57	110.777
1829.76	83.0685
1828.95	107.663
1828.14	107.645
1827.32	92.2517
1826.51	86.087
1825.7	104.517
1824.88	98.352
1824.07	104.481
1823.26	113.681
1822.44	89.0865
1821.63	82.9286
1820.81	119.766
1820	98.2526
1819.19	95.1662
1818.37	98.2195
1817.56	104.341
1816.74	122.733
1815.93	125.78
1815.11	110.422
1814.3	101.204
1813.48	101.186
1812.67	122.63
1811.85	76.6306
1811.03	95.0059
1810.22	91.9257
1809.4	119.483
1808.59	101.084
1807.77	101.067
1806.95	91.8636
1806.14	116.341
1805.32	107.138
1804.5	128.544
1803.69	113.222
1802.87	91.7862
1802.05	91.7707
1801.24	107.048
1800.42	82.5657
1799.6	91.7242
1798.78	116.164
1797.96	100.863
1797.15	110.013
1796.33	119.161
1795.51	103.866
1794.69	109.958
1793.87	100.777
1793.05	131.294
1792.23	88.5321
1791.42	79.3602
1790.6	115.968
1789.78	97.641
1788.96	112.878
1788.14	131.161
1787.32	118.94
1786.5	121.969
1785.68	100.607
1784.86	118.879
1784.04	106.669
1783.22	100.556
1782.4	112.726
1781.58	121.845
1780.76	88.3228
1779.93	115.714
1779.11	100.471
1778.29	91.3221
1777.47	121.742
1776.65	88.2482
1775.83	103.446
1775.01	82.1343
1774.18	82.1204
1773.36	121.639
1772.54	139.862
1771.72	97.2785
1770.89	112.459
1770.07	103.323
1769.25	91.1523
1768.43	118.478
1767.6	127.57
1766.78	124.512
1765.96	94.127
1765.13	112.326
1764.31	124.448
1763.49	112.288
1762.66	139.578
1761.84	94.0473
1761.01	121.331
1760.19	100.081
1759.36	118.258
1758.54	84.8885
1757.72	118.217
1756.89	115.167
1756.07	109.087
1755.24	130.276
1754.41	96.9333
1753.59	121.146
1752.76	133.238
1751.94	124.133
1751.11	96.8676
1750.29	102.904
1749.46	124.07
1748.63	127.074
1747.81	121.002
1746.98	136.105
1746.15	127.009
1745.33	130.011
1744.5	117.897
1743.67	111.832
1742.85	114.835
1742.02	120.859
1741.19	126.88
1740.36	117.797
1739.54	108.718
1738.71	132.855
1737.88	132.832
1737.05	111.681
1736.22	120.715
1735.39	132.764
1734.57	135.759
1733.74	132.719
1732.91	135.713
1732.08	108.552
1731.25	144.711
1730.42	114.544
1729.59	102.469
1728.76	138.611
1727.93	105.447
1727.1	123.503
1726.27	126.493
1725.44	126.472
1724.61	144.515
1723.78	132.449
1722.95	141.456
1722.12	129.395
1721.29	111.321
1720.46	120.327
1719.62	117.299
1718.79	150.357
1717.96	114.252
1717.13	138.282
1716.3	102.191
1715.47	93.1582
1714.63	138.211
1713.8	132.18
1712.97	141.168
1712.14	156.159
1711.31	129.11
1710.47	105.071
1709.64	123.063
1708.81	129.044
1707.97	126.021
1707.14	123
1706.31	122.979
1705.47	146.95
1704.64	122.937
1703.81	137.906
1702.97	104.911
1702.14	125.871
1701.3	119.857
1700.47	143.804
1699.63	119.816
1698.8	143.755
1697.96	116.781
1697.13	146.7
1696.29	128.715
1695.46	134.679
1694.62	140.641
1693.79	137.625
1692.95	122.645
1692.12	119.633
1691.28	131.574
1690.44	140.521
1689.61	140.497
1688.77	119.552
1687.93	134.473
1687.1	116.523
1686.26	143.389
1685.42	137.391
1684.59	143.34
1683.75	116.444
1682.91	122.394
1682.07	125.358
1681.24	134.289
1680.4	116.364
1679.56	128.277
1678.72	122.29
1677.88	131.216
1677.05	149.083
1676.21	116.265
1675.37	113.265
1674.53	134.106
1673.69	131.104
1672.85	148.956
1672.01	134.038
1671.17	151.884
1670.33	148.88
1669.49	116.107
1668.65	148.829
1667.81	130.948
1666.97	142.827
1666.13	121.978
1665.29	142.779
1664.45	124.91
1663.61	118.942
1662.77	154.598
1661.93	139.709
1661.09	148.601
1660.25	124.804
1659.4	142.608
1658.56	166.348
1657.72	133.65
1656.88	142.535
1656.04	130.635
1655.19	130.613
1654.35	148.398
1653.51	133.536
1652.67	160.215
1651.82	109.758
1650.98	151.263
1650.14	145.306
1649.3	157.141
1648.45	133.399
1647.61	148.196
1646.77	136.317
1645.92	139.256
1645.08	162.932
1644.23	151.056
1643.39	127.339
1642.54	162.848
1641.7	118.415
1640.86	124.314
1640.01	147.968
1639.17	130.189
1638.32	130.167
1637.48	133.103
1636.63	124.208
1635.78	147.841
1634.94	141.904
1634.09	153.703
1633.25	171.408
1632.4	124.102
1631.56	153.624
1630.71	153.597
1629.86	138.805
1629.02	115.159
1628.17	138.757
1627.32	141.685
1626.47	132.807
1625.63	141.637
1624.78	141.613
1623.93	153.387
1623.09	156.31
1622.24	135.642
1621.39	132.671
1620.54	97.2753
1619.69	153.256
1618.84	144.39
1618	182.666
1617.15	141.394
1616.3	144.315
1615.45	153.125
1614.6	176.652
1613.75	153.072
1612.9	150.103
1612.05	150.077
1611.2	135.341
1610.35	144.143
1609.5	135.294
1608.65	149.975
1607.8	135.248
1606.95	173.44
1606.1	132.262
1605.25	164.565
1604.4	138.093
1603.55	135.132
1602.7	170.355
1601.85	176.199
1600.99	137.999
1600.14	132.104
1599.29	179.043
1598.44	114.451
1597.59	176.048
1596.74	134.947
1595.88	155.456
1595.03	173.025
1594.18	167.131
1593.32	175.897
1592.47	164.142
1591.62	146.53
1590.77	149.435
1589.91	169.917
1589.06	181.604
1588.21	161.073
1587.35	128.836
1586.5	166.873
1585.64	122.938
1584.79	175.595
1583.93	146.304
1583.08	152.13
1582.23	152.104
1581.37	172.55
1580.52	154.976
1579.66	143.255
1578.81	172.461
1577.95	146.129
1577.09	166.558
1576.24	169.451
1575.38	169.422
1574.53	143.108
1573.67	163.523
1572.81	181.013
1571.96	180.982
1571.1	143.009
1570.24	163.411
1569.39	183.806
1568.53	154.604
1567.67	172.077
1566.82	148.719
1565.96	157.44
1565.1	154.498
1564.24	169.044
1563.39	169.015
1562.53	171.899
1561.67	163.13
1560.81	168.927
1559.95	177.635
1559.09	160.135
1558.23	163.018
1557.38	180.453
1556.52	174.602
1555.66	180.391
1554.8	194.905
1553.94	162.878
1553.08	168.666
1552.22	151.192
1551.36	171.515
1550.5	148.233
1549.64	174.362
1548.78	177.238
1547.92	171.397
1547.06	174.272
1546.2	142.298
1545.34	174.212
1544.47	139.346
1543.61	168.347
1542.75	203.142
1541.89	176.994
1541.03	156.656
1540.17	165.331
1539.3	176.902
1538.44	179.771
1537.58	176.841
1536.72	153.622
1535.85	170.984
1534.99	182.545
1534.13	196.999
1533.27	182.482
1532.4	139.01
1531.54	162.15
1530.68	188.178
1529.81	170.778
1528.95	185.219
1528.08	182.293
1527.22	176.476
1526.36	185.123
1525.49	202.443
1524.63	187.951
1523.76	170.572
1522.9	164.762
1522.03	156.063
1521.17	184.932
1520.3	179.122
1519.44	184.868
1518.57	164.619
1517.7	150.153
1516.84	178.998
1515.97	155.875
1515.11	138.531
1514.24	152.935
1513.37	190.415
1512.51	187.497
1511.64	170.16
1510.77	178.782
1509.91	158.569
1509.04	138.364
1508.17	158.515
1507.3	158.487
1506.44	184.39
1505.57	169.955
1504.7	158.405
1503.83	158.378
1502.96	181.383
1502.09	158.323
1501.23	164.052
1500.36	141.003
1499.49	163.995
1498.62	161.09
1497.75	195.576
1496.88	161.035
1496.01	149.506
1495.14	140.857
1494.27	181.07
1493.4	160.923
1492.53	189.627
1491.66	137.887
1490.79	172.328
1489.92	178.042
1489.05	152.171
1488.18	200.946
1487.31	177.95
1486.44	183.658
1485.56	172.15
1484.69	186.463
1483.82	177.826
1482.95	183.531
1482.08	160.562
1481.21	180.601
1480.33	151.908
1479.46	154.747
1478.59	169.046
1477.72	160.423
1476.84	189.037
1475.97	157.504
1475.1	134.571
1474.22	168.9
1473.35	183.182
1472.48	177.427
1471.6	180.257
1470.73	165.922
1469.85	194.496
1468.98	174.444
1468.11	174.414
1467.23	188.678
1466.36	174.354
1465.48	160.035
1464.61	151.435
1463.73	174.263
1462.86	182.802
1461.98	214.183
1461.11	171.317
1460.23	176.997
1459.35	179.821
1458.48	182.643
1457.6	194.025
1456.73	182.58
1455.85	179.696
1454.97	176.813
1454.1	188.188
1453.22	185.304
1452.34	208.075
1451.46	170.991
1450.59	159.564
1449.71	202.269
1448.83	182.295
1447.95	193.655
1447.08	196.469
1446.2	196.435
1445.32	185.015
1444.44	196.367
1443.56	187.796
1442.68	190.609
1441.81	193.42
1440.93	184.855
1440.05	181.979
1439.17	199.005
1438.29	187.601
1437.41	193.252
1436.53	179.011
1435.65	213.072
1434.77	201.673
1433.89	207.318
1433.01	176.048
1432.13	178.856
1431.25	198.694
1430.37	229.878
1429.48	207.138
1428.6	192.917
1427.72	187.21
1426.84	175.834
1425.96	204.158
1425.08	206.958
1424.19	204.087
1423.31	189.882
1422.43	221.018
1421.55	192.649
1420.67	209.611
1419.78	189.75
1418.9	192.548
1418.02	184.021
1417.13	161.345
1416.25	212.259
1415.37	209.392
1414.48	195.21
1413.6	186.69
1412.71	206.455
1411.83	164.004
1410.95	192.247
1410.06	180.907
1409.18	169.571
1408.29	161.064
1407.41	183.638
1406.52	192.08
1405.64	177.925
1404.75	166.6
1403.87	183.51
1402.98	169.364
1402.1	194.735
1401.21	174.949
1400.32	208.774
1399.44	174.888
1398.55	203.06
1397.66	197.385
1396.78	186.074
1395.89	200.135
1395	214.192
1394.12	185.977
1393.23	202.848
1392.34	180.278
1391.45	191.512
1390.57	183.031
1389.68	211.153
1388.79	163.263
1387.9	185.75
1387.01	180.09
1386.12	180.058
1385.24	216.595
1384.35	216.557
1383.46	210.896
1382.57	177.121
1381.68	199.578
1380.79	179.87
1379.9	202.319
1379.01	174.188
1378.12	205.057
1377.23	182.553
1376.34	202.177
1375.45	202.142
1374.56	199.3
1373.67	227.331
1372.78	162.752
1371.89	187.973
1370.99	173.915
1370.1	162.666
1369.21	201.895
1368.32	176.628
1367.43	182.203
1366.54	159.75
1365.64	176.535
1364.75	212.926
1363.86	210.088
1362.97	215.652
1362.07	212.814
1361.18	193.179
1360.29	173.551
1359.39	207.105
1358.5	170.692
1357.61	167.865
1356.71	198.605
1355.82	167.806
1354.93	178.962
1354.03	190.114
1353.14	190.08
1352.24	190.047
1351.35	192.808
1350.45	189.981
1349.56	209.501
1348.66	167.572
1347.77	198.258
1346.87	206.599
1345.98	170.275
1345.08	181.409
1344.18	189.749
1343.29	172.976
1342.39	158.998
1341.5	156.182
1340.6	203.558
1339.7	192.371
1338.81	175.612
1337.91	183.942
1337.01	178.337
1336.11	172.734
1335.22	142.063
1334.32	167.103
1333.42	186.566
1332.52	167.045
1331.63	194.851
1330.73	130.806
1329.83	169.74
1328.93	183.621
1328.03	175.244
1327.13	155.745
1326.23	186.305
1325.33	155.69
1324.43	164.002
1323.53	166.753
1322.64	161.166
1321.74	155.581
1320.84	138.887
1319.94	174.968
1319.03	169.383
1318.13	144.367
1317.23	172.1
1316.33	188.722
1315.43	138.742
1314.53	130.394
1313.63	122.05
1312.73	166.402
1311.83	135.871
1310.92	124.758
1310.02	144.14
1309.12	146.886
1308.22	155.173
1307.32	119.13
1306.41	160.658
1305.51	146.783
1304.61	138.45
1303.71	177.185
1302.8	121.793
1301.9	130.074
1301	154.955
1300.09	127.262
1299.19	141.07
1298.28	132.749
1297.38	129.96
1296.48	154.819
1295.57	116.094
1294.67	132.656
1293.76	163.027
1292.86	157.473
1291.95	121.537
1291.05	127.039
1290.14	143.584
1289.24	126.994
1288.33	99.3695
1287.42	126.95
1286.52	124.168
1285.61	132.423
1284.71	115.85
1283.8	110.314
1282.89	113.052
1281.99	135.087
1281.08	126.794
1280.17	118.504
1279.26	107.461
1278.36	99.1777
1277.45	115.687
1276.54	115.667
1275.63	110.139
1274.72	123.885
1273.82	112.853
1272.91	85.313
1272	101.807
1271.09	107.291
1270.18	99.0209
1269.27	107.254
1268.36	120.983
1267.45	96.2195
1266.54	123.689
1265.64	126.415
1264.73	107.159
1263.82	87.9102
1262.91	82.4013
1261.99	98.8642
1261.08	85.1181
1260.17	98.8294
1259.26	90.5777
1258.35	93.3061
1257.44	104.265
1256.53	106.99
1255.62	123.428
1254.71	87.7556
1253.79	93.224
1252.88	101.432
1251.97	90.4502
1251.06	109.617
1250.15	68.4988
1249.23	90.4024
1248.32	93.1255
1247.41	98.5861
1246.49	71.1885
1245.58	101.289
1244.67	90.3228
1243.75	95.7801
1242.84	109.444
1241.93	93.0107
1241.01	82.0538
1240.1	101.182
1239.18	84.759
1238.27	109.347
1237.35	92.9288
1236.44	87.4469
1235.53	87.4315
1234.61	71.0256
1233.69	98.3258
1232.78	103.77
1231.86	101.021
1230.95	90.0843
1230.03	106.444
1229.12	114.612
1228.2	87.3083
1227.28	92.7487
1226.37	76.3678
1225.45	79.0812
1224.53	92.6996
1223.62	95.4092
1222.7	119.922
1221.78	89.9255
1220.86	95.3587
1219.95	106.238
1219.03	78.9836
1218.11	87.1389
1217.19	108.904
1216.27	89.8303
1215.35	114.309
1214.44	97.9621
1213.52	95.2241
1212.6	62.5648
1211.68	67.9932
1210.76	84.2966
1209.84	100.594
1208.92	95.14
1208	86.9698
1207.08	76.0851
1206.16	103.24
1205.24	81.491
1204.32	84.1924
1203.4	76.0313
1202.48	89.5925
1201.56	95.0056
1200.64	86.8469
1199.71	73.2641
1198.79	65.1121
1197.87	92.2259
1196.95	78.6493
1196.03	78.6354
1195.1	67.7772
1194.18	84.0288
1193.26	97.5646
1192.34	86.7088
1191.41	62.3109
1190.49	108.348
1189.57	86.6628
1188.65	97.4784
1187.72	75.8031
1186.8	83.91
1185.87	97.4266
1184.95	81.1745
1184.03	97.3921
1183.1	91.9652
1182.18	67.6095
1181.25	78.4131
1180.33	83.8061
1179.4	83.7912
1178.48	75.669
1177.55	75.6556
1176.63	89.1497
1175.7	81.0309
1174.78	99.9204
1173.85	75.602
1172.92	75.5886
1172	83.6726
1171.07	78.2605
1170.15	56.6613
1169.22	48.5583
1168.29	89.0077
1167.36	88.9919
1166.44	97.0649
1165.51	83.5688
1164.58	80.8587
1163.65	75.4548
1162.73	80.8301
1161.8	61.9587
1160.87	75.4147
1159.94	64.6297
1159.01	88.85
1158.08	69.9906
1157.16	86.1271
1156.23	59.2018
1155.3	69.9534
1154.37	72.631
1153.44	61.8599
1152.51	61.8489
1151.58	53.7721
1150.65	86.0202
1149.72	69.879
1148.79	72.5537
1147.86	75.2276
1146.93	59.0969
1146	59.0864
1145.07	88.6139
1144.13	61.7502
1143.2	72.4765
1142.27	67.096
1141.34	72.4508
1140.41	83.1694
1139.48	61.6954
1138.54	56.3206
1137.61	77.7622
1136.68	80.4294
1135.75	72.3736
1134.81	69.6807
1133.88	96.4638
1132.95	93.7676
1132.01	69.6436
1131.08	80.3437
1130.15	80.3294
1129.21	77.638
1128.28	66.9174
1127.35	80.2866
1126.41	88.2995
1125.48	77.5828
1124.54	56.1706
1123.61	64.1836
1122.67	74.8676
1121.74	69.5075
1120.8	64.1494
1119.87	77.5
1118.93	61.4546
1117.99	69.4581
1117.06	53.4198
1116.12	45.3987
1115.19	66.751
1114.25	56.0608
1113.31	64.0581
1112.38	58.7095
1111.44	66.7035
1110.5	61.3563
1109.56	69.3469
1108.63	66.6679
1107.69	74.6547
1106.75	69.3099
1105.81	66.6323
1104.88	63.9556
1103.94	61.2798
1103	77.2521
1102.06	69.2482
1101.12	63.91
1100.18	61.2362
1099.24	61.2253
1098.3	42.5839
1097.36	71.8476
1096.42	66.5137
1095.49	53.2014
1094.55	66.49
1093.6	71.7964
1092.66	63.8076
1091.72	61.1381
1090.78	63.7849
1089.84	45.1729
1088.9	58.4486
1087.96	63.7508
1087.02	69.051
1086.08	69.0387
1085.14	87.6104
1084.19	58.3965
1083.25	66.3479
1082.31	61.0291
1081.37	66.3242
1080.43	53.0499
1079.48	71.6046
1078.54	63.6371
1077.6	71.579
1076.65	63.6144
1075.71	60.953
1074.77	63.5917
1073.82	45.0361
1072.88	55.6229
1071.93	55.613
1070.99	37.0687
1070.05	68.8296
1069.1	55.5832
1068.16	74.0977
1067.21	63.501
1066.27	58.1988
1065.32	71.4131
1064.38	50.2447
1063.43	60.8116
1062.49	60.8008
1061.54	63.433
1060.59	73.9919
1059.65	55.484
1058.7	60.7573
1057.75	60.7465
1056.81	52.8136
1055.86	58.0846
1054.91	52.7947
1053.97	39.589
1053.02	63.331
1052.07	73.873
1051.12	58.0327
1050.18	47.4728
1049.23	42.1905
1048.28	47.4558
1047.33	52.7192
1046.38	50.0743
1045.43	63.2405
1044.48	65.8637
1043.54	55.3156
1042.59	52.6721
1041.64	52.6627
1040.69	63.1839
1039.74	36.8507
1038.79	71.0565
1037.84	57.8875
1036.89	49.9848
1035.94	36.8243
1034.99	49.9669
1034.04	49.958
1033.08	44.6912
1032.13	57.8254
1031.18	57.815
1030.23	44.6672
1029.28	52.5403
1028.33	68.2901
1027.37	47.2693
1026.42	60.3889
1025.47	52.5026
1024.52	52.4932
1023.57	62.9806
1022.61	57.7219
1021.66	41.972
1020.71	57.7012
1019.75	41.957
1018.8	73.4116
1017.85	60.2915
1016.89	49.7971
1015.94	62.8904
1014.98	44.5394
1014.03	39.2924
1013.07	54.9995
1012.12	60.2267
1011.16	52.3617
1010.21	31.4114
1009.25	60.1943
1008.3	54.9502
1007.34	60.1727
1006.39	57.5462
1005.43	54.9206
1004.48	57.5256
1003.52	39.2149
1002.56	33.9802
1001.61	52.2678
1000.65	57.4843
999.693	47.0241
998.736	44.4037
997.778	54.8418
996.821	44.3878
995.863	49.601
994.905	46.982
993.947	54.8024
992.989	75.666
992.031	52.1741
991.072	41.7317
990.114	46.9398
989.155	73.0043
988.196	54.7434
987.237	52.1272
986.277	46.9061
985.318	39.0814
984.358	52.0991
983.398	52.0898
982.438	49.4764
981.478	59.8817
980.517	49.4586
979.557	57.2576
978.596	62.4516
977.635	62.4403
976.674	54.6255
975.713	52.0149
974.751	59.8064
973.79	44.1968
972.828	62.3842
971.866	41.582
970.904	44.1729
969.942	62.3506
968.979	44.157
968.017	54.5371
967.054	44.1411
966.091	41.5371
965.128	41.5297
964.164	44.1173
963.201	75.2454
962.237	62.2609
961.273	49.281
960.309	33.7125
959.345	33.7064
958.381	46.662
957.416	54.4292
956.451	49.2366
955.486	41.455
954.521	38.857
953.556	67.34
952.591	64.7384
951.625	67.3158
950.659	49.1834
949.693	43.9983
948.727	51.7534
947.761	46.5697
946.794	41.3878
945.828	43.9666
944.861	49.1303
943.894	62.0481
942.927	41.358
941.959	41.3505
940.992	56.8467
940.024	46.5026
939.056	59.4092
938.088	54.2334
937.12	61.9699
936.152	69.7035
935.183	59.3664
934.214	54.1943
933.246	43.8637
932.276	33.5368
931.307	43.8479
930.338	59.3129
929.368	51.5671
928.398	74.7588
927.428	54.1259
926.458	33.5005
925.488	64.4124
924.517	41.2165
923.547	43.7846
922.576	56.6522
921.605	36.0449
920.634	43.7609
919.662	38.6056
918.691	64.331
917.719	51.4555
916.747	56.5908
915.775	72.0117
914.803	48.8562
913.831	46.2765
912.858	56.55
911.885	66.8197
910.912	38.5429
909.939	66.7956
908.966	59.0777
907.992	61.6352
907.019	48.7857
906.045	51.3441
905.071	59.035
904.097	48.7592
903.122	35.9214
902.148	69.2644
901.173	35.9084
900.198	53.8528
899.223	51.2791
898.248	46.1429
897.273	66.6387
896.297	43.5636
895.321	61.4904
894.345	53.7944
893.369	56.3458
892.393	58.8964
891.416	53.7652
890.44	61.4348
889.463	61.4237
888.486	51.1772
887.509	40.9343
886.531	53.7166
885.554	66.4942
884.576	46.0261
883.598	40.9047
882.62	66.4581
881.642	63.8904
880.664	74.0995
879.685	56.2032
878.706	71.5184
877.727	61.2904
876.748	45.9595
875.769	48.504
874.789	58.7047
873.81	66.3498
872.83	76.5436
871.85	61.2238
870.87	58.6622
869.889	76.502
868.909	68.8393
867.928	58.6303
866.947	68.8144
865.966	61.1573
864.985	63.6939
864.003	58.5878
863.022	58.5772
862.04	43.2883
861.058	61.1018
860.076	61.0907
859.094	50.8997
858.111	86.5138
857.128	58.5134
856.146	63.59
855.162	73.7511
854.179	48.3109
853.196	66.0976
852.212	68.6274
851.229	60.9911
850.245	55.8983
849.261	66.0497
848.276	40.6386
847.292	66.0257
846.307	63.4747
845.322	48.232
844.337	73.6039
843.352	76.1282
842.367	50.7429
841.381	60.8804
840.396	73.5505
839.41	60.8583
838.424	81.1297
837.437	65.9059
836.451	65.8939
835.464	50.6784
834.477	58.2696
833.49	58.259
832.503	35.4556
831.516	63.302
830.528	35.4427
829.541	40.4985
828.553	75.921
827.565	65.7862
826.577	65.7742
825.588	65.7623
824.6	75.8658
823.611	65.7384
822.622	73.3102
821.633	65.7145
820.643	73.2836
819.654	70.7437
818.664	63.1525
817.674	73.2436
816.684	60.6043
815.694	65.6428
814.704	90.8734
813.713	58.0475
812.723	47.9435
811.732	63.0721
810.741	60.5382
809.749	73.137
808.758	65.5592
807.766	57.9841
806.774	63.0147
805.782	60.4831
804.79	70.5508
803.798	68.0187
802.805	65.4876
801.812	75.5488
800.819	67.9816
799.826	62.9344
798.833	62.923
797.84	70.4609
796.846	62.9
795.852	62.8886
794.858	65.3922
793.864	70.4095
792.87	67.8825
791.875	65.3564
790.88	75.3975
789.885	47.7431
788.89	55.2714
787.895	67.8207
786.9	55.2512
785.904	57.7521
784.908	60.2521
783.912	52.7109
782.916	60.2301
781.92	75.2739
780.923	60.2081
779.926	60.1971
778.929	80.2482
777.932	62.6825
776.935	55.1505
775.938	72.6851
774.94	55.1304
773.942	57.6258
772.944	72.6453
771.946	65.1184
770.948	67.6106
769.949	80.1165
768.95	80.1018
767.951	60.0654
766.952	50.0454
765.953	52.538
764.954	67.5366
763.954	65.0233
762.954	55.0097
761.954	72.4995
760.954	82.4844
759.954	59.9777
758.953	57.4681
757.952	67.4502
756.951	57.4471
755.95	74.9173
754.949	59.9229
753.948	82.3789
752.946	82.3639
751.944	72.3671
750.942	77.3438
749.94	72.3407
748.937	77.3155
747.935	74.8078
746.932	74.7941
745.929	79.7658
744.926	67.2901
743.923	74.7531
742.919	82.2133
741.916	49.8172
740.912	77.2025
739.908	54.7788
738.903	74.6847
737.899	79.6491
736.894	87.1003
735.89	74.6437
734.885	52.241
733.88	67.1548
732.874	82.063
731.869	89.5069
730.863	82.033
729.857	72.0764
728.851	64.6084
727.845	64.5965
726.838	77.0048
725.832	79.4743
724.825	67.0441
723.818	86.8932
722.811	79.4306
721.804	64.5256
720.796	71.9576
719.788	74.4253
718.78	69.4509
717.772	69.4381
716.764	84.3023
715.756	76.8497
714.747	84.2714
713.738	71.8653
712.729	71.8522
711.72	81.7478
710.71	74.3026
709.701	89.1467
708.691	56.9444
707.681	81.6879
706.671	76.723
705.661	86.6069
704.65	74.2208
703.64	69.2601
702.629	79.1398
701.618	71.7073
700.606	71.6942
699.595	84.0398
698.583	69.1965
697.572	56.8296
696.56	69.1711
695.547	59.2787
694.535	81.4932
693.523	61.7259
692.51	69.1203
691.497	96.2571
690.484	69.095
689.471	71.5495
688.457	71.5363
687.443	61.6579
686.43	88.7711
685.416	88.7548
684.401	93.6684
683.387	66.5416
682.372	88.7059
681.358	64.0536
680.343	61.5787
679.327	68.9554
678.312	78.7917
677.297	81.239
676.281	63.9947
675.265	66.4439
674.249	83.6547
673.233	81.1793
672.216	86.0834
671.2	73.7722
670.183	66.3828
669.166	49.1634
668.148	83.5624
667.131	100.748
666.113	78.618
665.096	63.8654
664.078	85.9568
663.06	81.0301
662.041	76.1051
661.023	93.273
660.004	68.7148
658.985	90.785
657.966	85.8619
656.947	83.3934
655.927	78.4734
654.908	71.1034
653.888	56.382
652.868	68.6263
651.848	53.9107
650.827	88.2013
649.807	73.4876
648.786	78.3723
647.765	93.05
646.744	68.5505
645.723	66.0901
644.701	88.1039
643.679	61.172
642.657	83.1785
641.635	70.9333
640.613	83.1479
639.591	85.5776
638.568	70.8941
637.545	105.099
636.522	92.8615
635.499	97.7309
634.475	68.399
633.452	70.8288
632.428	87.9091
631.404	65.9197
630.38	73.2306
629.356	80.5388
628.331	75.6437
627.306	80.5091
626.281	51.2236
625.256	82.9181
624.231	87.7795
623.205	82.8875
622.18	60.9355
621.154	65.7982
620.128	85.2782
619.102	95.0067
618.075	63.3261
617.049	80.3606
616.022	80.3458
614.995	82.7652
613.968	85.1837
612.94	90.0347
611.913	80.2864
610.885	82.704
609.857	80.2567
608.829	70.5156
607.8	75.3648
606.772	89.935
605.743	77.7672
604.714	65.604
603.685	70.4505
602.656	97.1551
601.626	89.8519
600.597	77.6954
599.567	97.1012
598.537	77.6666
597.507	77.6523
596.476	92.195
595.446	89.7522
594.415	92.1609
593.384	87.2942
592.353	101.824
591.321	77.5661
590.29	116.328
589.258	75.1144
588.226	72.6779
587.194	79.9309
586.162	84.7595
585.129	84.7438
584.096	87.1489
583.063	101.655
582.03	87.1167
580.997	77.4227
579.964	67.7323
578.93	84.6497
577.896	84.634
576.862	87.036
575.828	89.4371
574.793	91.8373
573.759	84.5714
572.724	74.8922
571.689	74.8783
570.654	103.844
569.618	86.9232
568.583	101.392
567.547	94.1319
566.511	82.0485
565.475	84.4461
564.438	94.0796
563.402	84.4148
562.365	91.6333
561.328	74.7396
560.291	101.241
559.254	110.863
558.216	86.7461
557.178	115.64
556.141	103.575
555.102	84.2896
554.064	105.944
553.026	84.2583
551.987	103.498
550.948	101.072
549.909	105.866
548.87	115.469
547.83	110.637
546.791	98.5928
545.751	117.809
544.711	103.364
543.671	88.9244
542.63	105.728
541.59	103.306
540.549	100.885
539.508	103.268
538.467	86.4407
537.425	96.0274
536.384	100.81
535.342	107.991
534.3	88.7759
533.258	100.754
532.216	119.923
531.173	100.716
530.13	105.493
529.088	115.062
528.044	86.2803
527.001	100.642
525.958	107.81
524.914	100.604
523.87	114.955
522.826	119.722
521.782	105.336
520.737	117.284
519.693	98.1176
518.648	95.7067
517.603	95.6889
516.557	117.197
515.512	86.0879
514.466	83.681
513.42	105.179
512.374	97.9899
511.328	107.53
510.282	95.5643
509.235	114.656
508.188	119.411
507.141	100.286
506.094	107.43
505.047	105.023
503.999	102.617
502.951	112.142
501.903	104.964
500.855	104.945
499.807	124.002
