#Wave		#Intensity
3200.600830	84.197044
3200.007080	37.888672
3199.413086	8.418432
3198.819092	0.000000
3198.224854	29.455606
3197.630615	42.073078
3197.036377	0.000000
3196.442139	33.648285
3195.847656	54.670200
3195.252930	46.252407
3194.658447	46.245411
3194.063721	37.831436
3193.468750	42.028572
3192.873779	42.022217
3192.278809	-4.201586
3191.683838	33.607605
3191.088623	63.004734
3190.493164	41.996803
3189.897949	62.985676
3189.302490	67.174561
3188.706787	25.186649
3188.111328	33.577118
3187.515381	33.572041
3186.919678	88.113274
3186.323730	58.733295
3185.727783	33.556805
3185.131592	41.939659
3184.535400	4.193331
3183.939209	37.734272
3183.342773	46.112686
3182.746338	33.531425
3182.149902	37.717144
3181.553223	29.331116
3180.956543	33.516201
3180.359619	67.022263
3179.762695	25.129543
3179.165771	41.876232
3178.568604	37.682903
3177.971436	58.608974
3177.374268	41.857216
3176.776855	29.295614
3176.179443	33.475632
3175.581787	25.102922
3174.984131	12.549562
3174.386475	58.555752
3173.788574	58.546883
3173.190674	62.719303
3172.592773	54.348495
3171.994629	58.520287
3171.396484	58.511421
3170.798340	33.430035
3170.199951	29.246849
3169.601563	25.064930
3169.002930	37.591698
3168.404297	70.995781
3167.805664	33.404720
3167.206787	37.574615
3166.607910	29.220272
3166.008789	29.215845
3165.409912	41.730595
3164.810547	25.034563
3164.211426	4.171795
3163.612061	50.053951
3163.012695	20.852652
3162.413086	66.718369
3161.813477	-4.169266
3161.213623	45.854977
3160.614014	79.192039
3160.013916	37.506332
3159.414063	41.667385
3158.813965	45.827175
3158.213867	45.820225
3157.613525	29.153904
3157.013184	29.149483
3156.412598	62.453705
3155.812256	62.444237
3155.211426	49.947811
3154.610840	37.455177
3154.010010	29.127386
3153.409180	24.962543
3152.808105	33.278343
3152.207031	83.183235
3151.605957	62.377964
3151.004639	41.579002
3150.403320	33.258156
3149.801758	49.879662
3149.200195	58.184109
3148.598633	24.932262
3147.996826	20.773733
3147.395020	12.462348
3146.793213	53.995316
3146.191162	37.375698
3145.589111	66.435600
3144.986816	24.909569
3144.384766	37.358681
3143.782227	66.405350
3143.179932	49.796455
3142.577393	41.490746
3141.974609	62.226669
3141.371826	33.182518
3140.769043	33.177479
3140.166260	20.732777
3139.563232	16.583702
3138.960205	49.743553
3138.356934	49.736000
3137.753662	53.872482
3137.150391	37.290668
3136.546875	33.142227
3135.943359	45.563641
3135.339600	33.132160
3134.735840	28.986237
3134.132080	41.402618
3133.528076	12.418899
3132.924072	49.668049
3132.320068	49.660503
3131.715820	41.377464
3131.111572	8.274236
3130.507080	49.637867
3129.902588	37.222744
3129.298096	66.163712
3128.693604	45.480637
3128.088867	57.875652
3127.483887	57.866856
3126.878906	53.725338
3126.273926	61.981354
3125.668945	37.183159
3125.063721	49.570007
3124.458252	70.213501
3123.853027	28.907047
3123.247559	33.031601
3122.641846	61.924835
3122.036133	82.553894
3121.430420	53.651871
3120.824707	70.149467
3120.218750	78.390427
3119.612549	53.627396
3119.006592	37.121014
3118.400391	45.363228
3117.793945	28.863117
3117.187500	37.104076
3116.581055	28.854336
3115.974609	65.942734
3115.367920	53.570320
3114.760986	86.523506
3114.154297	57.673561
3113.547363	45.308044
3112.940186	45.301151
3112.333008	53.529579
3111.725830	78.223633
3111.118408	69.978912
3110.510986	32.926243
3109.903564	61.727306
3109.295898	37.030746
3108.688232	65.822418
3108.080566	65.812401
3107.472656	74.027679
3106.864746	41.120224
3106.256592	61.670948
3105.648438	86.326180
3105.040039	61.652168
3104.431885	45.204708
3103.823486	45.197823
3103.214844	45.190941
3102.606201	61.614624
3101.997559	49.284191
3101.388672	45.170296
3100.779785	32.846123
3100.170898	45.156536
3099.561768	45.149658
3098.952637	90.285561
3098.343262	53.342430
3097.733887	41.026390
3097.124512	53.326180
3096.514893	45.115276
3095.905273	45.108402
3095.295410	16.400557
3094.685791	57.393200
3094.075684	49.186672
3093.465820	45.080914
3092.855713	40.976402
3092.245361	77.843300
3091.635254	65.542259
3091.024658	40.957668
3090.414307	57.331993
3089.803711	77.795845
3089.193115	32.751152
3088.582275	65.492317
3087.971436	32.741165
3087.360596	65.472351
3086.749512	36.822578
3086.138428	53.180061
3085.527100	44.991650
3084.915771	24.537157
3084.304443	57.244637
3083.692871	53.147625
3083.081299	53.139519
3082.469482	65.392509
3081.857910	32.691269
3081.245850	73.544128
3080.634033	81.703239
3080.021973	28.591770
3079.409668	36.755238
3078.797607	28.583046
3078.185059	61.240040
3077.572754	61.230694
3076.960205	8.162847
3076.347656	65.292809
3075.734863	69.363022
3075.122070	73.431992
3074.509033	89.736511
3073.895996	57.096336
3073.282959	77.476059
3072.669922	69.310104
3072.056641	8.152884
3071.443115	69.288940
3070.829834	8.150395
3070.216064	69.267784
3069.602539	61.109303
3068.988770	32.586651
3068.375000	52.945221
3067.760986	52.937138
3067.146973	57.000519
3066.532715	69.204346
3065.918701	61.053329
3065.304199	73.252808
3064.689941	77.310593
3064.075439	56.957001
3063.460693	44.745094
3062.846191	48.805370
3062.231445	73.196877
3061.616455	69.119820
3061.001465	65.044006
3060.386475	77.227959
3059.771240	81.280167
3059.156006	56.887421
3058.540771	48.753193
3057.925293	69.056473
3057.309814	85.292015
3056.694092	64.974457
3056.078369	64.964523
3055.462646	85.252907
3054.846680	85.239876
3054.230713	48.701054
3053.614502	73.040413
3052.998291	60.857704
3052.382080	56.791840
3051.765625	56.783157
3051.149170	56.774475
3050.532715	52.711094
3049.916016	44.594872
3049.299316	36.481136
3048.682373	52.686913
3048.065430	44.574417
3047.448486	64.825600
3046.831299	20.254900
3046.214111	68.856125
3045.596680	72.895332
3044.979248	60.736816
3044.361816	72.873032
3043.744141	52.622471
3043.126465	93.087051
3042.508545	68.792946
3041.890869	48.552292
3041.272705	64.726486
3040.654785	97.074867
3040.036621	88.971680
3039.418213	64.696770
3038.799805	60.643940
3038.181396	68.719276
3037.562988	84.875526
3036.944336	109.108971
3036.325439	52.525906
3035.706543	60.597538
3035.087646	72.705910
3034.468750	88.849174
3033.849609	84.797592
3033.230469	64.597794
3032.611084	92.845108
3031.991699	52.469635
3031.372070	88.781166
3030.752441	68.593117
3030.132813	88.753975
3029.513184	76.639420
3028.893066	60.495533
3028.273193	68.551102
3027.653076	48.381599
3027.032959	84.654831
3026.412598	56.427906
3025.792480	76.569000
3025.171875	56.410618
3024.551270	40.287125
3023.930664	80.561897
3023.310059	92.631989
3022.689209	44.295464
3022.068115	48.314919
3021.447266	72.461273
3020.826172	72.450165
3020.204834	60.365883
3019.583496	100.594383
3018.962158	96.555801
3018.340576	104.586082
3017.718994	48.263100
3017.097412	88.468781
3016.475586	60.310375
3015.853760	72.361351
3015.231689	60.291882
3014.609619	68.320320
3013.987549	68.309845
3013.365234	68.299362
3012.742920	52.220917
3012.120361	36.147396
3011.497803	100.394035
3010.875244	88.333199
3010.252441	56.203411
3009.629639	72.250443
3009.006836	60.199467
3008.383789	76.240959
3007.760498	100.301659
3007.137451	120.343521
3006.514160	96.260040
3005.890625	76.194176
3005.267090	72.172874
3004.643555	64.143822
3004.019775	92.192589
3003.395996	80.155167
3002.772217	92.164291
3002.148193	116.189308
3001.524170	80.118256
3000.899902	68.090065
3000.275635	96.112389
2999.651367	64.065094
2999.026855	92.079430
2998.402344	88.062447
2997.777588	112.062271
2997.152832	40.016094
2996.528076	120.029846
2995.903076	80.007607
2995.278076	103.993912
2994.653076	111.976242
2994.027832	87.967819
2993.402344	127.933540
2992.777100	99.932724
2992.151367	63.947117
2991.525879	107.894180
2990.900146	87.900269
2990.274414	83.891914
2989.648438	87.873260
2989.022461	147.764145
2988.396240	119.790352
2987.770264	119.771942
2987.143799	107.778183
2986.517578	123.726303
2985.891113	143.660065
2985.264404	115.708382
2984.637695	123.669258
2984.010986	119.661530
2983.384033	139.583649
2982.757080	107.662262
2982.130127	131.566986
2981.502930	107.629158
2980.875732	107.612610
2980.248291	127.521263
2979.620850	123.517227
2978.993408	139.433487
2978.365723	115.512833
2977.738037	135.408005
2977.110107	115.477303
2976.482178	119.440903
2975.854248	155.249298
2975.226074	155.225403
2974.597900	123.365318
2973.969482	135.283081
2973.341309	151.175476
2972.712646	171.040665
2972.083984	159.083115
2971.455322	131.223373
2970.826660	174.937576
2970.197754	182.861130
2969.568604	166.934479
2968.939697	242.415131
2968.310547	198.670349
2967.681152	202.612564
2967.051758	198.609192
2966.422363	202.550186
2965.792725	246.199570
2965.163086	266.013428
2964.533203	242.154037
2963.903564	265.931519
2963.273438	246.047989
2962.643311	230.138474
2962.013184	242.004913
2961.383057	329.234680
2960.752686	289.523254
2960.122314	309.305969
2959.491699	273.574677
2958.861084	313.174927
2958.230225	317.090302
2957.599609	352.708618
2956.968506	324.917450
2956.337646	328.829193
2955.706299	293.127838
2955.075195	312.885559
2954.443848	316.797302
2953.812500	372.179474
2953.180908	387.957123
2952.549316	352.274109
2951.917725	364.092377
2951.285889	375.907013
2950.653809	344.198639
2950.021973	399.525330
2949.389893	332.227264
2948.757568	355.902924
2948.125244	371.663513
2947.492920	355.793182
2946.860352	383.406860
2946.227783	276.642700
2945.595215	320.065765
2944.962402	323.967255
2944.329590	316.016876
2943.696533	308.068909
2943.063477	304.072418
2942.430420	292.180359
2941.797119	284.239746
2941.163574	299.984589
2940.530273	303.884857
2939.896729	315.675812
2939.262939	284.064423
2938.629150	303.744232
2937.995361	283.976776
2937.361328	279.989441
2936.727295	291.774963
2936.093262	307.499115
2935.458984	342.926849
2934.824707	323.168518
2934.190186	354.642426
2933.555664	350.647827
2932.921143	362.411469
2932.286377	362.355530
2931.651367	421.370178
2931.016602	452.804596
2930.381592	381.871857
2929.746338	421.175049
2929.111084	464.401703
2928.475830	515.484985
2927.840332	499.667847
2927.204834	523.193420
2926.569336	507.379883
2925.933594	534.829529
2925.297607	534.746948
2924.661865	550.389771
2924.025879	632.850464
2923.389648	597.381409
2922.753418	569.782410
2922.117188	585.410095
2921.480713	561.749756
2920.844238	573.446106
2920.207764	620.482788
2919.571045	577.195435
2918.934082	655.624084
2918.297363	549.540039
2917.660156	521.982361
2917.023193	557.218323
2916.385986	584.596497
2915.748779	541.354675
2915.111328	580.493530
2914.473877	603.933716
2913.836182	599.919312
2913.198486	603.747009
2912.560791	568.375183
2911.922852	580.044983
2911.284912	568.199463
2910.646729	615.127747
2910.008545	603.280396
2909.370361	630.604736
2908.731934	677.501526
2908.093506	661.734375
2907.455078	739.931702
2906.816406	728.074097
2906.177490	743.616577
2905.538574	755.241089
2904.899658	802.074951
2904.260498	841.070435
2903.621338	770.536011
2902.982178	836.899475
2902.342773	836.769958
2901.703369	895.283508
2901.063721	879.509277
2900.424072	844.198242
2899.784424	863.606201
2899.144531	871.286804
2898.504639	839.899841
2897.864502	894.452515
2897.224365	937.272400
2896.583984	827.795776
2895.943848	901.845398
2895.303223	808.022095
2894.662842	819.605652
2894.021973	760.944580
2893.381348	764.728394
2892.740479	834.829285
2892.099609	897.107483
2891.458496	932.067322
2890.817383	877.333374
2890.176025	846.008240
2889.534668	1017.391479
2888.893311	939.284973
2888.251709	1001.488953
2887.610107	1001.333801
2886.968262	1059.613281
2886.326416	1036.078857
2885.684570	1098.229248
2885.042480	1117.528198
2884.400391	1203.005981
2883.758057	1284.564575
2883.115723	1249.337402
2882.473389	1284.166504
2881.830811	1307.312378
2881.188232	1474.388672
2880.545410	1513.056274
2879.902588	1633.380737
2879.259766	1672.011597
2878.616699	1714.518188
2877.973633	1667.606079
2877.330322	1620.708374
2876.687012	1515.535400
2876.043457	1367.655762
2875.399902	1278.093750
2874.756348	1258.474609
2874.112549	1211.676514
2873.468750	1126.063110
2872.824707	1044.358643
2872.180664	1036.433105
2871.536621	997.460693
2870.892334	1016.708801
2870.248047	966.111572
2869.603760	973.720398
2868.958984	977.448120
2868.314453	969.540161
2867.669678	961.634644
2867.024902	1019.639771
2866.379883	941.954468
2865.734863	1023.199097
2865.089844	968.788208
2864.444580	1003.508789
2863.799316	1038.218628
2863.153809	995.450623
2862.508301	898.477478
2861.862549	933.187317
2861.216797	960.143250
2860.571045	890.317200
2859.925049	859.216248
2859.279053	878.431580
2858.632813	797.043213
2857.986572	804.656555
2857.340332	800.663635
2856.693848	831.478027
2856.047363	750.147400
2855.400635	819.621399
2854.753906	842.687317
2854.107178	854.151245
2853.460205	792.189209
2852.813232	822.976013
2852.166016	873.068970
2851.518799	915.421265
2850.871338	942.312561
2850.223877	907.414185
2849.576416	1015.373779
2848.928711	1011.355896
2848.281006	1026.636841
2847.633301	1049.630981
2846.985352	1103.484619
2846.337158	1215.187500
2845.688965	1153.284424
2845.040771	1160.818237
2844.392578	1214.620972
2843.743896	1202.866089
2843.095459	1183.405396
2842.446777	1206.346313
2841.798096	1125.234375
2841.149170	1240.647705
2840.500244	1217.340820
2839.851074	1224.854980
2839.202148	1062.916382
2838.552734	1051.199463
2837.903320	1000.986633
2837.253906	1016.228333
2836.604492	1004.524048
2835.954834	938.949219
2835.304932	823.376526
2834.655029	784.778870
2834.005127	811.581299
2833.354980	673.007751
2832.704834	638.296570
2832.054688	611.285339
2831.404297	576.594543
2830.753906	518.854370
2830.103271	430.389954
2829.452637	391.901276
2828.801758	353.424591
2828.150879	414.825165
2827.500000	337.953064
2826.848877	330.220917
2826.197754	330.169525
2825.546387	307.086609
2824.895020	318.552765
2824.243408	260.942352
2823.591797	283.922485
2822.940186	264.697296
2822.288330	268.491669
2821.636475	233.934891
2820.984619	299.083282
2820.332520	256.864868
2819.680176	210.826370
2819.028076	233.789185
2818.375488	218.424728
2817.723145	229.884949
2817.070557	252.834061
2816.417725	252.794662
2815.764893	218.288651
2815.112061	187.622421
2814.458984	218.220642
2813.805908	187.563950
2813.152832	176.053009
2812.499512	179.852219
2811.845947	187.476288
2811.192383	179.796158
2810.538818	233.316101
2809.885010	217.982697
2809.231201	206.477737
2808.577393	179.684097
2807.923340	202.590897
2807.269287	214.024933
2806.614990	183.421341
2805.960693	210.137527
2805.306152	198.644501
2804.651611	210.072006
2803.997070	213.858139
2803.342285	187.096695
2802.687500	183.249802
2802.032471	187.038330
2801.377441	175.559631
2800.722412	198.427750
2800.067139	186.950836
2799.411621	198.365845
2798.756348	167.821838
2798.100586	194.490433
2797.445068	194.460083
2796.789307	182.992691
2796.133301	137.223114
2795.477539	182.935593
2794.821289	182.907043
2794.165283	167.638626
2793.509033	167.612473
2792.852539	220.909225
2792.196045	209.450180
2791.539551	167.533997
2790.882813	201.770813
2790.226074	163.675293
2789.569092	178.872971
2788.912109	178.845047
2788.255127	178.817123
2787.597900	174.985168
2786.940430	144.530396
2786.283203	186.339050
2785.625488	186.309952
2784.968018	167.272598
2784.310303	182.450699
2783.652588	205.224976
2782.994629	186.193573
2782.336426	155.770294
2781.678467	148.148590
2781.020264	144.327362
2780.361816	193.672241
2779.703369	182.251282
2779.044922	182.222809
2778.386230	174.602905
2777.727539	193.551239
2777.068604	132.808517
2776.409668	159.345322
2775.750732	163.113754
2775.091553	155.502762
2774.432373	151.686295
2773.772949	204.744492
2773.113525	200.921524
2772.453857	162.986313
2771.794189	204.648483
2771.134521	204.616501
2770.474609	193.218689
2769.814697	193.188477
2769.154541	181.796021
2768.494385	189.341248
2767.833984	159.021774
2767.173584	147.639984
2766.513184	166.542130
2765.852539	162.731628
2765.191895	189.193222
2764.531006	189.163635
2763.870117	170.220642
2763.209229	200.450714
2762.548096	196.637863
2761.886719	189.045288
2761.225586	151.212570
2760.563965	188.986130
2759.902588	158.723511
2759.240967	222.933838
2758.579102	181.341522
2757.917236	162.426361
2757.255371	207.722122
2756.593262	162.375519
2755.931152	196.330353
2755.269043	207.624588
2754.606689	218.915298
2753.944092	200.011963
2753.281494	211.300308
2752.618896	184.858826
2751.956055	211.234146
2751.293213	222.515411
2750.630371	196.084564
2749.967285	233.756531
2749.303955	229.950241
2748.640625	207.299713
2747.977295	233.646698
2747.313721	237.378006
2746.650146	210.969620
2745.986572	226.003479
2745.322754	222.201935
2744.658691	240.994843
2743.994873	214.602402
2743.330566	237.154968
2742.666504	248.409119
2742.002197	255.896561
2741.337646	218.230515
2740.673096	214.434311
2740.008545	199.355026
2739.343750	259.497009
2738.678955	218.093719
2738.013916	266.934967
2737.348877	266.893097
2736.683594	304.435944
2736.018311	251.777908
2735.353027	255.495728
2734.687500	236.672165
2734.021973	236.635056
2733.356201	225.331375
2732.690430	236.560837
2732.024658	266.558502
2731.358643	266.516693
2730.692383	228.943207
2730.026367	288.948578
2729.359863	277.647278
2728.693604	292.609314
2728.027100	333.822357
2727.360352	281.266846
2726.693604	311.219788
2726.026855	292.425720
2725.359863	329.864441
2724.692871	288.586090
2724.025635	341.002777
2723.358398	385.909576
2722.691162	329.657410
2722.023682	295.895996
2721.355957	340.788727
2720.688477	351.968262
2720.020508	340.681763
2719.352783	363.087280
2718.684814	359.287689
2718.016602	340.521332
2717.348389	385.364716
2716.680176	377.822571
2716.011719	329.140259
2715.343262	306.650696
2714.674561	306.602539
2714.005859	295.338989
2713.337158	321.457764
2712.668213	325.144562
2711.999023	336.303619
2711.329834	358.667511
2710.660645	317.520294
2709.991455	332.410187
2709.321777	302.483093
2708.652344	321.104431
2707.982666	358.385834
2707.312988	272.479736
2706.643066	324.685089
2705.972900	309.708374
2705.302979	276.082123
2704.632813	276.038727
2703.962402	261.076691
2703.291992	290.868286
2702.621582	264.723114
2701.950928	272.137299
2701.280273	283.276489
2700.609375	283.231964
2699.938477	272.008972
2699.267334	260.789520
2698.596191	234.673645
2697.925049	234.636749
2697.253662	215.980804
2696.582031	256.902283
2695.910645	215.912872
2695.239014	294.041962
2694.567139	230.730820
2693.895264	234.415405
2693.223145	297.623535
2692.551270	260.379608
2691.878906	238.023911
2691.206543	275.171844
2690.534180	234.231049
2689.861816	260.215759
2689.189209	230.440552
2688.516357	260.133881
2687.843506	330.689606
2687.170654	237.761826
2686.497559	282.297729
2685.824463	237.686981
2685.151123	263.642487
2684.477783	282.164429
2683.804199	226.438431
2683.130615	259.806488
2682.457031	326.562439
2681.783203	300.538544
2681.109375	222.586090
2680.435303	263.352051
2679.761230	252.184784
2679.086914	252.145065
2678.412598	263.227661
2677.738281	244.651947
2677.063721	244.613419
2676.389160	229.752167
2675.714355	244.536346
2675.039551	233.384293
2674.364502	281.498596
2673.689453	248.124130
2673.014404	285.112671
2672.339111	262.854675
2671.663574	214.692505
2670.988037	207.256653
2670.312500	203.523560
2669.636719	251.589462
2668.960938	221.955719
2668.285156	247.811478
2667.609131	251.470505
2666.932861	225.548279
2666.256592	251.391235
2665.580322	266.136993
2664.903809	255.007721
2664.227295	251.272339
2663.550781	266.011108
2662.874023	243.805069
2662.197021	232.686310
2661.520020	265.885284
2660.843018	217.843857
2660.165771	262.109711
2659.488525	243.612854
2658.811035	250.955475
2658.133545	287.815277
2657.455811	273.012451
2656.778076	284.035706
2656.100342	276.614502
2655.422363	261.820404
2654.744385	283.901276
2654.066162	232.246201
2653.387939	272.754059
2652.709473	265.340454
2652.031006	272.667969
2651.352539	276.309052
2650.673828	235.746521
2649.994873	276.221832
2649.316162	254.083969
2648.636963	276.134644
2647.958008	276.091034
2647.278809	239.241119
2646.599365	220.803085
2645.919922	283.319214
2645.240479	309.026703
2644.560791	268.516510
2643.880859	239.052277
2643.201172	272.108826
2642.520996	301.478394
2641.841064	253.642960
2641.160889	235.225876
2640.480469	202.115295
2639.800049	249.848526
2639.119629	282.872009
2638.438965	260.788818
2637.758301	246.057617
2637.077393	238.674896
2636.396484	279.021912
2635.715332	223.916412
2635.034180	216.540665
2634.353027	238.524048
2633.671631	271.507538
2632.989990	278.801483
2632.308350	245.746674
2631.626709	216.369583
2630.944824	249.335678
2630.262939	249.296265
2629.581055	245.591309
2628.898926	252.882385
2628.216553	289.486237
2627.534180	238.147202
2626.851807	249.099213
2626.169189	249.059814
2625.486572	252.682495
2624.803711	263.626984
2624.120850	281.889801
2623.437988	281.845215
2622.754883	245.203156
2622.071533	296.392731
2621.388184	252.442749
2620.704834	259.718842
2620.021240	270.650024
2619.337646	277.920898
2618.653809	248.626724
2617.969971	263.210175
2617.286133	270.478760
2616.602051	263.126862
2615.917725	270.393127
2615.233398	263.043579
2614.549072	233.779495
2613.864502	303.134766
2613.179932	284.828552
2612.495117	284.783447
2611.810303	248.233444
2611.125488	255.493958
2610.440430	262.752167
2609.755127	262.710571
2609.069824	248.076233
2608.384521	269.922546
2607.698975	302.703033
2607.013428	288.069305
2606.327637	280.731934
2605.641846	255.170410
2604.956055	291.577118
2604.270020	240.513016
2603.583740	265.979828
2602.897461	280.509613
2602.211182	287.749969
2601.524658	254.927933
2600.838135	276.735016
2600.151367	283.972504
2599.464600	276.647308
2598.777832	254.766357
2598.090820	287.476440
2597.403564	221.940308
2596.716309	283.747528
2596.029053	243.693207
2595.341553	305.477386
2594.654053	276.340485
2593.966309	287.203094
2593.278564	276.252838
2592.590820	279.843353
2591.902832	279.798981
2591.214600	236.156494
2590.526367	272.445038
2589.838135	279.665863
2589.149658	330.461792
2588.461182	261.422791
2587.772461	279.532806
2587.083740	275.858734
2586.394775	283.073273
2585.705811	333.828308
2585.016846	286.611420
2584.327637	272.056274
2583.638184	268.386261
2582.948975	290.101257
2582.259277	286.429535
2581.569824	242.882690
2580.879883	268.215912
2580.190186	250.053528
2579.500244	268.130768
2578.810059	271.711029
2578.119873	311.512512
2577.429688	249.894775
2576.739258	249.855087
2576.048584	318.605164
2575.358154	267.875458
2574.667236	264.213531
2573.976563	285.884308
2573.285645	282.220703
2572.594482	311.116974
2571.903320	325.535828
2571.212158	285.702728
2570.520752	245.882263
2569.829102	296.457977
2569.137451	267.492737
2568.445801	281.907013
2567.753906	299.930298
2567.062012	299.882660
2566.370117	249.260422
2565.677979	299.787354
2564.985596	274.460449
2564.293213	270.806091
2563.600830	306.864777
2562.908203	299.596802
2562.215332	292.331116
2561.522705	306.718475
2560.829590	292.238190
2560.136719	270.547882
2559.443604	284.931793
2558.750244	292.098816
2558.056885	255.996521
2557.363525	310.030975
2556.669922	266.728424
2555.976074	252.270538
2555.282227	263.040283
2554.588379	309.833801
2553.894287	259.354462
2553.200195	255.711639
2552.505859	262.872955
2551.811523	324.038391
2551.117188	323.986847
2550.422607	269.946075
2549.727783	320.285034
2549.032959	287.850861
2548.338135	295.000153
2547.643066	244.595352
2546.947998	330.870453
2546.252686	309.242706
2545.557373	298.407684
2544.861816	287.576080
2544.166260	280.342041
2543.470703	309.045868
2542.774902	326.961578
2542.078857	316.132294
2541.382813	276.571716
2540.686768	287.301483
2539.990479	283.665009
2539.294189	280.029724
2538.597656	265.626923
2537.901123	297.885437
2537.204346	308.603210
2536.507568	265.500000
2535.810791	294.155853
2535.113770	286.935608
2534.416504	290.476013
2533.719238	319.114136
2533.021973	322.648285
2532.324463	297.506012
2531.626953	283.123230
2530.929199	290.244659
2530.231445	275.867615
2529.533447	282.987915
2528.835449	304.432129
2528.137451	264.992798
2527.439209	290.013428
2526.740723	282.807526
2526.042236	275.603882
2525.343750	268.402557
2524.645020	339.922363
2523.946289	321.980377
2523.247314	304.044067
2522.548340	303.995605
2521.849121	296.795410
2521.149902	289.597534
2520.450684	300.275452
2519.751221	332.394806
2519.051514	289.458984
2518.351807	303.704803
2517.652100	303.656342
2516.952148	325.039063
2516.252197	328.558472
2515.552002	321.364624
2514.851807	296.322296
2514.151367	335.540375
2513.450928	285.520721
2512.750244	296.180481
2512.049561	253.318756
2511.348877	324.624329
2510.647949	324.572510
2509.946777	292.425262
2509.245605	295.944183
2508.544434	278.071808
2507.843018	292.285217
2507.141602	352.824615
2506.439941	299.318542
2505.738281	306.396240
2505.036377	295.660767
2504.334473	341.914490
2503.632568	284.883240
2502.930420	309.761017
2502.228027	284.792236
2501.525635	316.780762
2500.823242	327.406464
2500.120605	270.423004
2499.417969	313.071350
2498.715088	298.793091
2498.012207	330.753754
2497.309082	320.033142
2496.605957	277.317749
2495.902588	341.259583
2495.199219	376.747253
2494.495605	351.811493
2493.791992	312.671326
2493.088379	294.858795
2492.384521	309.019440
2491.680664	323.175568
2490.976563	294.717407
2490.272461	315.971741
2489.568115	323.020599
2488.863770	354.910919
2488.159180	372.596893
2487.454590	312.221741
2486.749756	351.193268
2486.044922	276.653473
2485.339844	322.710785
2484.634766	308.476349
2483.929688	361.604065
2483.224365	340.278809
2482.519043	315.416351
2481.813477	340.169952
2481.107666	333.029785
2480.402100	322.349579
2479.696045	364.798828
2478.990234	347.034607
2478.284180	329.276062
2477.577881	290.282990
2476.871582	375.183807
2476.165039	332.656891
2475.458496	336.141998
2474.751953	346.701508
2474.045166	336.034393
2473.338379	321.834045
2472.631348	268.741455
2471.924072	342.944031
2471.217041	318.144531
2470.509521	318.093597
2469.802246	367.515961
2469.094482	349.790894
2468.386963	325.006165
2467.679199	317.889893
2466.971191	317.838959
2466.263184	377.814697
2465.554932	381.284576
2464.846680	360.044434
2464.138428	331.752472
2463.429932	342.285492
2462.721436	373.984009
2462.012695	313.955109
2461.303955	363.283112
2460.594971	324.433868
2459.885986	349.063110
2459.176758	359.583130
2458.467529	317.228394
2457.758057	384.137238
2457.048584	317.126709
2456.338867	366.398773
2455.629150	369.862549
2454.919434	376.847107
2454.209473	331.008881
2453.499512	362.643066
2452.789307	352.024170
2452.078857	387.164490
2451.368408	323.758392
2450.657959	383.521790
2449.947266	348.280426
2449.236572	365.811676
2448.525879	330.584442
2447.814697	355.145447
2447.103760	390.245758
2446.392578	400.728638
2445.681152	323.343140
2444.969727	390.057953
2444.258301	432.157013
2443.546631	386.419861
2442.834717	340.697388
2442.122803	375.760498
2441.410889	389.745087
2440.698730	375.639893
2439.986572	336.968628
2439.274170	305.328796
2438.561768	336.860443
2437.849121	396.449158
2437.136475	368.322815
2436.423584	371.770966
2435.710693	371.711273
2434.997803	396.194611
2434.284424	308.491394
2433.571289	354.007111
2432.857910	367.968079
2432.144287	378.420685
2431.430908	381.863220
2430.717041	409.824036
2430.003174	423.767029
2429.289307	350.164429
2428.575195	346.607086
2427.861084	364.054016
2427.146729	395.495117
2426.432373	384.933380
2425.717773	363.878540
2425.003174	328.837372
2424.288330	409.231781
2423.573486	360.205994
2422.858643	377.631012
2422.143555	388.058350
2421.428223	374.014160
2420.712891	380.943817
2419.997559	408.837250
2419.281982	352.871155
2418.566162	398.226166
2417.850586	401.654785
2417.134521	387.621857
2416.418457	408.508667
2415.702393	390.988159
2414.986084	356.021210
2414.269775	415.291290
2413.553223	362.885254
2412.836670	359.338165
2412.120117	415.090912
2411.403076	373.172943
2410.686279	394.035126
2409.969238	380.025848
2409.251953	390.422424
2408.534668	439.154572
2407.817383	442.568695
2407.099854	362.360138
2406.382080	404.105865
2405.664307	365.726593
2404.946533	421.388550
2404.228516	383.018829
2403.510498	400.364319
2402.792236	400.299866
2402.073975	417.636963
2401.355469	389.731720
2400.636963	445.335968
2399.918213	389.606232
2399.199463	379.109283
2398.480469	389.480774
2397.761475	375.510254
2397.042480	337.209503
2396.323242	424.050873
2395.603760	399.655701
2394.884277	410.015442
2394.164795	420.371826
2393.445068	427.251282
2392.725098	402.871246
2392.005127	402.806335
2391.285156	413.157166
2390.564941	371.434387
2389.844727	461.615082
2389.124268	416.427673
2388.403809	416.360565
2387.683105	430.169891
2386.962402	412.757813
2386.241455	371.075348
2385.520508	377.950378
2384.799316	419.491974
2384.078125	412.491699
2383.356689	440.151245
2382.635254	408.893494
2381.913818	412.292206
2381.192139	426.082031
2380.470215	453.721497
2379.748291	415.555725
2379.026367	432.800720
2378.304199	387.726898
2377.581787	394.586945
2376.859375	453.355682
2376.136963	415.220673
2375.414307	446.290192
2374.691650	422.004791
2373.968750	404.644226
2373.245850	435.700378
2372.522705	439.087463
2371.799316	411.362000
2371.076172	432.033203
2370.352783	431.963470
2369.629150	473.355560
2368.905518	431.824036
2368.181641	421.392212
2367.457764	404.056824
2366.733643	452.332458
2366.009521	438.449982
2365.285400	438.379181
2364.561035	469.369598
2363.836426	424.434845
2363.111816	431.266571
2362.387207	424.297760
2361.662354	424.229248
2360.937256	427.609192
2360.212158	430.988007
2359.487061	444.707764
2358.761719	427.401978
2358.036377	451.456573
2357.310791	506.514465
2356.584961	454.755829
2355.859375	440.904083
2355.133301	396.060760
2354.407471	402.883636
2353.681152	416.590118
2352.955078	492.254181
2352.228516	450.873260
2351.502197	416.388123
2350.775635	436.964844
2350.048828	443.774414
2349.322021	464.339996
2348.594971	464.264923
2347.867920	453.874542
2347.140869	446.925354
2346.413330	481.226410
2345.686035	470.838257
2344.958496	439.836151
2344.230713	446.636322
2343.502930	460.304535
2342.775146	487.706482
2342.047119	470.457611
2341.319092	484.115265
2340.590820	508.067139
2339.862305	432.473663
2339.133789	487.312103
2338.405273	411.746399
2337.676514	435.694427
2336.947754	480.215363
2336.218750	462.989868
2335.489746	438.911926
2334.760498	555.408020
2334.031250	507.327637
2333.301758	428.416840
2332.572266	435.201050
2331.842529	417.999451
2331.112793	421.357452
2330.382813	441.839905
2329.652832	469.164856
2328.922607	451.968872
2328.192383	496.400543
2327.462158	479.205658
2326.731689	455.171661
2326.000977	485.894012
2325.270264	448.181732
2324.539307	461.791870
2323.808350	434.356049
2323.077393	441.124817
2322.346191	468.405487
2321.614746	485.421936
2320.883301	451.164154
2320.151855	505.768768
2319.420166	410.016327
2318.688232	495.356110
2317.956299	478.197327
2317.224365	519.101563
2316.492188	478.042328
2315.760010	491.620972
2315.027588	518.849121
2314.295166	491.461609
2313.562500	467.495300
2312.829590	508.361359
2312.096924	484.400055
2311.363770	474.089355
2310.630615	501.293762
2309.897461	467.116394
2309.164063	456.813446
2308.430664	473.781891
2307.697021	518.008362
2306.963379	487.257782
2306.229492	500.806122
2305.495605	507.537445
2304.761719	510.860840
2304.027344	534.614258
2303.293213	503.885803
2302.558838	486.783630
2301.824219	476.494049
2301.089600	558.088135
2300.354736	510.363647
2299.619873	520.486450
2298.885010	503.395355
2298.149658	479.508240
2297.414551	499.831696
2296.679199	523.548218
2295.943604	469.077423
2295.208008	550.566711
2294.472412	496.109161
2293.736572	485.836243
2293.000488	546.901611
2292.264404	523.038330
2291.528320	533.140808
2290.791992	488.915955
2290.055420	512.599426
2289.318848	485.362976
2288.582275	559.943237
2287.845459	515.742676
2287.108398	495.303955
2286.371582	566.454224
2285.634277	512.099976
2284.896973	542.534302
2284.159668	542.446106
2283.422119	508.460602
2282.684570	538.880615
2281.946777	565.902161
2281.208740	572.586304
2280.470703	518.292725
2279.732666	579.174133
2278.994385	514.737793
2278.256104	555.284668
2277.517578	511.185059
2276.779053	500.947601
2276.040283	500.866150
2275.301514	477.098938
2274.562500	490.553864
2273.823486	547.977966
2273.084229	554.652893
2272.344971	534.273804
2271.605469	557.853394
2270.865967	611.848694
2270.126221	547.532410
2269.386475	544.064026
2268.646484	611.550110
2267.906494	506.727020
2267.166260	516.777466
2266.426025	536.955811
2265.685547	509.856201
2264.945068	543.533020
2264.204346	506.314819
2263.463623	560.230530
2262.722656	587.133972
2261.981689	560.048157
2261.240723	509.358459
2260.499268	590.219971
2259.758057	580.007446
2259.016602	596.770935
2258.274902	569.705505
2257.533203	610.058594
2256.791260	606.589294
2256.049316	559.319031
2255.307129	549.121399
2254.564941	522.085571
2253.822754	572.516724
2253.080322	585.892212
2252.337646	552.130310
2251.594971	578.969116
2250.852051	558.681519
2250.109131	598.970520
2249.366211	538.312744
2248.623047	602.139221
2247.879639	484.323547
2247.136230	554.863586
2246.392578	598.482605
2245.648926	571.491333
2244.905273	557.953491
2244.161377	547.780701
2243.417236	591.372314
2242.673096	557.680664
2241.928955	560.948669
2241.184570	581.007813
2240.439941	496.966064
2239.695313	647.964905
2238.950439	594.150696
2238.205566	587.341309
2237.460693	593.956909
2236.715576	580.439453
2235.970215	587.053955
2235.224854	613.790588
2234.479492	600.276428
2233.733887	600.178528
2232.988037	603.432983
2232.242188	539.649231
2231.496338	623.343933
2230.750244	536.122314
2230.003906	559.486328
2229.257568	602.940735
2228.511230	579.398499
2227.764648	636.229736
2227.017822	589.253418
2226.270996	579.114746
2225.523926	568.979431
2224.776855	535.422607
2224.029785	608.943787
2223.282471	625.570801
2222.534912	612.089661
2221.787354	591.924438
2221.039795	598.515137
2220.291992	585.044922
2219.543945	618.375000
2218.795898	634.984131
2218.047852	618.173035
2217.299561	621.412964
2216.551025	601.269104
2215.802490	654.608276
2215.053955	544.304688
2214.305176	587.619446
2213.556152	564.156006
2212.807129	567.401489
2212.058105	587.331421
2211.308838	590.571960
2210.559326	617.163574
2209.809814	577.036987
2209.060303	640.306335
2208.310547	653.539185
2207.560547	640.096985
2206.810547	603.326111
2206.060303	629.889465
2205.310059	553.145752
2204.559814	616.356812
2203.809326	646.236023
2203.058594	569.527283
2202.307861	632.704590
2201.557129	569.340942
2200.806152	645.813354
2200.054932	565.826294
2199.303711	599.012207
2198.552246	642.169128
2197.800781	642.064026
2197.049316	661.916260
2196.297607	591.968933
2195.545654	668.349915
2194.793701	648.293030
2194.041504	631.566772
2193.289307	644.757324
2192.537109	677.881287
2191.784668	644.546265
2191.031982	654.406311
2190.279297	680.869751
2189.526367	607.701294
2188.773438	564.438782
2188.020508	660.617249
2187.267090	643.913330
2186.513916	630.533508
2185.760498	663.610779
2185.006836	663.502075
2184.253174	709.830933
2183.499268	630.120483
2182.745361	676.439636
2181.991211	616.652710
2181.237061	672.903198
2180.482666	686.049927
2179.728271	636.231934
2178.973877	685.825134
2178.218994	649.273926
2177.464355	629.295044
2176.709229	639.126526
2175.954346	668.820679
2175.198975	655.469238
2174.443848	638.812256
2173.688232	651.945007
2172.932861	615.441101
2172.177002	684.814087
2171.421387	654.932129
2170.665283	677.975098
2169.909424	743.997009
2169.153076	674.446655
2168.396729	637.974792
2167.640381	611.429932
2166.883789	723.682129
2166.127197	624.445190
2165.370361	716.837952
2164.613525	686.994629
2163.856445	690.184265
2163.099365	670.260376
2162.342041	683.355286
2161.584473	650.236267
2160.826904	683.131042
2160.069336	679.719360
2159.311523	689.505005
2158.553711	735.571167
2157.795654	682.682739
2157.037354	643.001343
2156.279053	715.427612
2155.520752	606.530273
2154.762207	665.755432
2154.003662	668.941406
2153.244873	741.315796
2152.485840	685.192749
2151.726807	648.850037
2150.967773	747.536865
2150.208252	589.370605
2149.448975	688.034790
2148.689453	651.715332
2147.929688	697.681580
2147.169922	671.243713
2146.410156	743.510559
2145.650146	595.368591
2144.889893	720.244751
2144.129639	739.855896
2143.369141	739.734314
2142.608643	719.889771
2141.847900	673.758667
2141.087158	696.650513
2140.326416	676.822754
2139.565186	647.146423
2138.804199	775.134277
2138.042725	653.501526
2137.281494	709.211670
2136.519775	653.286682
2135.758301	613.791565
2134.996338	725.270752
2134.234619	702.182861
2133.472412	744.716370
2132.710449	770.835083
2131.947998	708.395752
2131.185547	665.651306
2130.423096	750.783630
2129.660400	701.490234
2128.897705	694.819885
2128.134766	704.536316
2127.371826	766.671509
2126.608643	766.545410
2125.845215	753.318054
2125.081787	717.171753
2124.318359	766.166992
2123.554688	694.019958
2122.790771	743.002869
2122.026855	752.698364
2121.262939	690.405273
2120.498779	713.192261
2119.734375	755.597656
2118.969971	762.014160
2118.205322	722.649780
2117.440674	729.069580
2116.676025	725.680664
2115.911133	774.585571
2115.145996	699.299622
2114.380859	771.063232
2113.615479	787.269653
2112.850098	731.615540
2112.084473	796.807068
2111.318848	793.410767
2110.552979	767.163818
2109.787109	718.077576
2109.020996	747.330322
2108.254883	717.841003
2107.488525	796.019714
2106.722168	733.913574
2105.955566	795.757385
2105.188965	743.453979
2104.422119	691.167847
2103.655029	723.650818
2102.887939	805.010254
2102.120850	755.998352
2101.353516	765.647949
2100.585938	749.234009
2099.818359	739.339478
2099.050781	762.012817
2098.282959	761.887146
2097.514893	716.186035
2096.746826	784.419861
2095.978760	800.562073
2095.210449	793.922424
2094.441895	751.499329
2093.673340	790.407837
2092.904541	793.529602
2092.135742	848.676453
2091.366699	816.025452
2090.597656	806.139099
2089.828369	763.755737
2089.059082	796.124573
2088.289551	795.993225
2087.520020	769.874512
2086.750244	769.747437
2085.980469	756.630981
2085.210449	750.012451
2084.440186	772.612549
2083.670166	850.382629
2082.899658	837.261475
2082.129150	807.921204
2081.358643	817.520203
2080.587891	810.898010
2079.816895	732.930725
2079.045898	804.145142
2078.274902	820.222229
2077.503662	820.086792
2076.732178	790.783081
2075.960693	803.613953
2075.188965	735.444458
2074.417236	803.348450
2073.645264	780.544312
2072.873291	841.941833
2072.101074	780.286377
2071.328857	796.343262
2070.556396	770.318604
2069.783936	815.496643
2069.011230	838.010803
2068.238525	786.111816
2067.465576	792.450867
2066.692627	792.319824
2065.919434	827.756531
2065.145996	850.249878
2064.372559	759.603333
2063.599121	827.345947
2062.825439	769.046021
2062.051514	807.687866
2061.277588	772.021851
2060.503662	784.812927
2059.729248	826.662048
2058.955078	878.183105
2058.180664	790.879639
2057.406006	819.796753
2056.631348	774.482910
2055.856445	829.204895
2055.081543	871.005005
2054.306396	886.987915
2053.531250	835.243103
2052.755859	867.348267
2051.980225	799.504761
2051.204590	799.372375
2050.428955	883.031372
2049.653076	789.441162
2048.877197	860.187317
2048.101074	827.833496
2047.324707	872.784912
2046.548340	817.899170
2045.771851	859.617737
2044.995239	872.351440
2044.218506	856.114563
2043.441528	868.844543
2042.664551	871.918091
2041.887329	833.171143
2041.110107	894.143616
2040.332642	852.190002
2039.555176	871.340454
2038.777466	858.337097
2037.999634	925.693359
2037.221802	854.838989
2036.443726	893.255127
2035.665527	870.618774
2034.887207	876.898682
2034.108765	851.060913
2033.330200	838.075806
2032.551514	825.094910
2031.772705	844.217834
2030.993774	882.590942
2030.214600	892.071289
2029.435425	847.006409
2028.656128	891.775513
2027.876587	926.907837
2027.097046	949.201477
2026.317261	936.219116
2025.537476	939.269531
2024.757446	974.370605
2023.977295	916.525574
2023.197021	929.189941
2022.416626	845.742920
2021.636230	903.257324
2020.855591	925.525024
2020.074707	918.967529
2019.293823	873.994751
2018.512817	937.868042
2017.731689	886.506226
2016.950439	892.758789
2016.168945	950.198425
2015.387451	918.052795
2014.605713	933.891724
2013.823975	952.923035
2013.041992	1000.722778
2012.260010	891.869995
2011.477783	930.075562
2010.695435	949.094727
2009.912964	907.401184
2009.130371	894.472290
2008.347656	951.815979
2007.564819	996.366638
2006.781860	999.394104
2005.998779	919.417542
2005.215576	938.416199
2004.432129	896.772583
2003.648682	970.012695
2002.864990	953.900024
2002.081299	931.413147
2001.297363	924.879883
2000.513428	956.613281
1999.729248	953.266113
1998.944946	959.483032
1998.160522	940.200806
1997.375977	955.977478
1996.591309	837.934265
1995.806519	942.917542
1995.021606	914.095764
1994.236572	952.157471
1993.451416	920.159668
1992.666016	980.491577
1991.880615	961.231201
1991.094971	897.424255
1990.309326	957.729675
1989.523438	963.932983
1988.737549	922.422668
1987.951416	969.972778
1987.165161	972.991150
1986.378784	921.962402
1985.592285	937.702271
1984.805664	966.149353
1984.018921	978.698975
1983.232056	981.713135
1982.444946	946.607910
1981.657837	968.682434
1980.870605	978.047607
1980.083130	993.759583
1979.295654	990.419739
1978.507935	980.733154
1977.720093	1015.476929
1976.932129	989.925171
1976.144165	907.280334
1975.355957	964.221313
1974.567627	989.430786
1973.779053	957.558777
1972.990479	963.739685
1972.201782	935.052124
1971.412964	1017.294067
1970.623901	1007.618774
1969.834839	1029.627563
1969.045532	1026.288452
1968.256226	1022.950439
1967.466675	1006.947449
1966.677002	1025.775513
1965.887207	993.950134
1965.097290	996.949402
1964.307251	1018.934021
1963.517090	1018.764221
1962.726807	983.797729
1961.936401	1056.378296
1961.145874	967.658325
1960.355103	992.791077
1959.564331	1024.237793
1958.773315	1011.424255
1957.982178	1011.255615
1957.191040	1083.758911
1956.399658	1004.600159
1955.608154	1020.225586
1954.816528	1035.845825
1954.024780	1079.878540
1953.232910	1032.343262
1952.440918	1088.987793
1951.648682	1009.907166
1950.856445	990.806030
1950.063965	1145.231201
1949.271484	1091.415649
1948.478760	1059.694946
1947.685913	1031.138184
1946.893066	1046.730103
1946.099976	1024.489502
1945.306763	986.497559
1944.513428	1118.684204
1943.719971	1083.839844
1942.926270	1058.457520
1942.132568	1051.981567
1941.338745	1117.937378
1940.544678	1064.224731
1939.750610	1042.010498
1938.956299	1079.607056
1938.161865	1063.691650
1937.367310	1154.762207
1936.572632	1022.438843
1935.777832	1141.794800
1934.982910	1037.821899
1934.187866	1116.258301
1933.392700	1090.920898
1932.597290	1112.741943
1931.801880	1049.699829
1931.006226	1128.081665
1930.210571	1071.341309
1929.414673	1033.467529
1928.618652	1108.671875
1927.822510	1045.682861
1927.026245	1123.999634
1926.229858	1117.533447
1925.433350	1126.762573
1924.636719	1154.817017
1923.839844	1063.634521
1923.042969	1163.841919
1922.245850	1119.736206
1921.448730	1075.645020
1920.651367	1109.955322
1919.853882	1056.475708
1919.056274	1084.508789
1918.258545	1109.398438
1917.460693	1090.412720
1916.662720	1087.097412
1915.864624	1055.592407
1915.066284	1099.260986
1914.267944	1218.065430
1913.469360	1117.677612
1912.670776	1164.443970
1911.871948	1151.730347
1911.072998	1104.599976
1910.273926	1113.801025
1909.474731	1160.536621
1908.675415	1179.108032
1907.875977	1178.910645
1907.076294	1147.447632
1906.276611	1141.003418
1905.476807	1090.804199
1904.676758	1146.871460
1903.876587	1084.190063
1903.076294	1193.346558
1902.275879	1158.789063
1901.475342	1146.103394
1900.674683	1186.502319
1899.873901	1161.328735
1899.072998	1220.439453
1898.271851	1195.268555
1897.470703	1113.941040
1896.669312	1285.341187
1895.867920	1225.860352
1895.066284	1169.518066
1894.264526	1169.322021
1893.462646	1194.067505
1892.660645	1181.398804
1891.858521	1187.433960
1891.056152	1162.306152
1890.253784	1227.538452
1889.451172	1189.952026
1888.648560	1171.065308
1887.845703	1202.009155
1887.042725	1145.764771
1886.239624	1173.589355
1885.436401	1226.304199
1884.633057	1204.315063
1883.829590	1185.444702
1883.025879	1197.689331
1882.222168	1194.378174
1881.418213	1156.859741
1880.614258	1165.993652
1879.810059	1221.756348
1879.005737	1196.685181
1878.201294	1162.299072
1877.396729	1205.605347
1876.592041	1239.576782
1875.787231	1230.050171
1874.982178	1211.209839
1874.177124	1207.901367
1873.371826	1161.129272
1872.566406	1207.495972
1871.760986	1256.950562
1870.955322	1228.812012
1870.149536	1241.015869
1869.343506	1188.073120
1868.537476	1231.294678
1867.731323	1159.765381
1866.924927	1292.890259
1866.118530	1227.574463
1865.311890	1283.157837
1864.505127	1186.876587
1863.698242	1298.218628
1862.891235	1270.119873
1862.084106	1266.809204
1861.276855	1195.369629
1860.469482	1223.035522
1859.661865	1303.320068
1858.854126	1204.052979
1858.046387	1265.745239
1857.238403	1234.590454
1856.430298	1252.945068
1855.622070	1268.200439
1854.813721	1187.578247
1854.005249	1314.156006
1853.196533	1320.118408
1852.387817	1220.981445
1851.578857	1313.493408
1850.769775	1180.400269
1849.960693	1220.365723
1849.151367	1288.118774
1848.341919	1244.663208
1847.532227	1259.893799
1846.722534	1330.693359
1845.912720	1210.078979
1845.102661	1296.295166
1844.292603	1330.021973
1843.482300	1271.176025
1842.671875	1289.471313
1841.861328	1304.676025
1841.050659	1264.366821
1840.239868	1291.903687
1839.428833	1276.272461
1838.617798	1353.114258
1837.806519	1343.641235
1836.995117	1300.277954
1836.183716	1290.816895
1835.372070	1315.241089
1834.560303	1262.665283
1833.748291	1314.798340
1832.936279	1289.947876
1832.124146	1348.214844
1831.311768	1323.367065
1830.499390	1326.221191
1829.686768	1307.538574
1828.874023	1285.786011
1828.061157	1383.986206
1827.248169	1303.802856
1826.434937	1343.551636
1825.621704	1284.919800
1824.808228	1287.776855
1823.994751	1324.435059
1823.181030	1385.660278
1822.367188	1314.773071
1821.553223	1320.694214
1820.739136	1335.825928
1819.924927	1381.656006
1819.110474	1372.213623
1818.296021	1316.734741
1817.481323	1316.512695
1816.666626	1365.383179
1815.851685	1371.288574
1815.036621	1358.788330
1814.221436	1383.093018
1813.406006	1315.403198
1812.590576	1407.152100
1811.774902	1428.371094
1810.959229	1388.289551
1810.143311	1332.900879
1809.327271	1326.548828
1808.511108	1390.650269
1807.694824	1372.040161
1806.878418	1390.181030
1806.061768	1368.515625
1805.245117	1389.711914
1804.428223	1423.143188
1803.611206	1447.383057
1802.794067	1395.127441
1801.976807	1345.948486
1801.159424	1382.422729
1800.341919	1336.320313
1799.524170	1415.587769
1798.706421	1326.698364
1797.888428	1292.854126
1797.070313	1439.317871
1796.252075	1472.683838
1795.433716	1377.734863
1794.615234	1401.936890
1793.796509	1426.130615
1792.977783	1474.742432
1792.158813	1407.332153
1791.339844	1358.258179
1790.520630	1428.218994
1789.701294	1321.184570
1788.881714	1394.178589
1788.062134	1451.896851
1787.242432	1357.111206
1786.422485	1463.602905
1785.602417	1463.355591
1784.782349	1457.011963
1783.962036	1347.051147
1783.141479	1340.729248
1782.320923	1410.574341
1781.500244	1434.704468
1780.679321	1440.553101
1779.858398	1382.453491
1779.037231	1479.645020
1778.215942	1461.130615
1777.394531	1488.275146
1776.572998	1445.421509
1775.751221	1423.879761
1774.929443	1374.967529
1774.107422	1423.398071
1773.285278	1496.139771
1772.463013	1392.512329
1771.640625	1422.675781
1770.818115	1474.104736
1769.995483	1431.311035
1769.172607	1516.143066
1768.349731	1491.583740
1767.526611	1463.995239
1766.703369	1521.447021
1765.880005	1487.790161
1765.056519	1487.538330
1764.232910	1447.827881
1763.409058	1523.451904
1762.585083	1486.782959
1761.761108	1471.362549
1760.936890	1568.176636
1760.112549	1476.929810
1759.288086	1607.064087
1758.463379	1433.985962
1757.638672	1530.740601
1756.813721	1451.684204
1755.988647	1448.408203
1755.163574	1414.836914
1754.338257	1569.082153
1753.512695	1517.330078
1752.687134	1495.876343
1751.861328	1574.339844
1751.035522	1474.180054
1750.209473	1498.142578
1749.383301	1458.550171
1748.557007	1564.196411
1747.730591	1512.506104
1746.903931	1536.445679
1746.077271	1505.945313
1745.250366	1496.619629
1744.423340	1562.871094
1743.596313	1462.865234
1742.768921	1574.428833
1741.941528	1589.269043
1741.114014	1576.915894
1740.286255	1573.628052
1739.458374	1561.281616
1738.630493	1542.900513
1737.802368	1494.337036
1736.973999	1515.211914
1736.145630	1617.561401
1735.317139	1620.304321
1734.488403	1541.592163
1733.659546	1553.395874
1732.830566	1586.305908
1732.001465	1573.975586
1731.172241	1576.723267
1730.342896	1546.313110
1729.513306	1597.284302
1728.683594	1590.986694
1727.853882	1515.398560
1727.023926	1596.470947
1726.193726	1605.234985
1725.363525	1610.984863
1724.533203	1589.636597
1723.702637	1583.346313
1722.871948	1492.787842
1722.041138	1624.936523
1721.210205	1606.608765
1720.379150	1624.384521
1719.547974	1621.101074
1718.716553	1614.811401
1717.885010	1584.471191
1717.053467	1650.335693
1716.221558	1671.094238
1715.389648	1622.729370
1714.557617	1640.480957
1713.725342	1628.186035
1712.893066	1588.863525
1712.060547	1636.641602
1711.227905	1579.315918
1710.395142	1528.013550
1709.562256	1698.838257
1708.729126	1731.560059
1707.895874	1614.247803
1707.062622	1625.973022
1706.229126	1598.701660
1705.395508	1610.425537
1704.561646	1676.116821
1703.727783	1687.823486
1702.893677	1711.515503
1702.059570	1585.354980
1701.225220	1642.016602
1700.390747	1647.729004
1699.556030	1626.481079
1698.721313	1710.060181
1697.886353	1640.899414
1697.051392	1667.564697
1696.216187	1721.160645
1695.380859	1664.004272
1694.545410	1729.551758
1693.709717	1666.429688
1692.874023	1731.954346
1692.038086	1665.862427
1691.202026	1638.666504
1690.365845	1722.100708
1689.529541	1685.936523
1688.692993	1766.345459
1687.856445	1616.633057
1687.019653	1679.099976
1686.182739	1738.558228
1685.345703	1738.262085
1684.508545	1630.463013
1683.671143	1660.042114
1682.833740	1674.685181
1681.996094	1671.415283
1681.158325	1650.241333
1680.320435	1739.469727
1679.482422	1715.308228
1678.644287	1720.981201
1677.805908	1675.955933
1676.967407	1678.651978
1676.128784	1723.082520
1675.290039	1740.672485
1674.451172	1552.629761
1673.612183	1698.364868
1672.772949	1751.698730
1671.933594	1709.700073
1671.094116	1721.320801
1670.254517	1709.117065
1669.414795	1708.825562
1668.574829	1735.322998
1667.734863	1809.427856
1666.894653	1719.853516
1666.054321	1701.710083
1665.213867	1746.037354
1664.373169	1748.713501
1663.532471	1730.574219
1662.691528	1739.197876
1661.850464	1640.809326
1661.009277	1747.520386
1660.167969	1791.794189
1659.326538	1681.562866
1658.484863	1767.418945
1657.643066	1746.327637
1656.801147	1734.151855
1655.959106	1757.607300
1655.116943	1772.149292
1654.274658	1816.365479
1653.432129	1771.544189
1652.589478	1806.844604
1651.746704	1744.241699
1650.903809	1815.125244
1650.060791	1794.057495
1649.217529	1761.137451
1648.374146	1707.477905
1647.530640	1769.427490
1646.687012	1772.088501
1645.843262	1727.343018
1644.999390	1795.181885
1644.155273	1854.111938
1643.311035	1738.303101
1642.466675	1738.005981
1641.622192	1764.351929
1640.777588	1891.322510
1639.932739	1846.609497
1639.087769	1769.364990
1638.242798	1757.229370
1637.397461	1727.350952
1636.552124	1836.475342
1635.706665	1877.556274
1634.860962	1744.202759
1634.015137	1844.400757
1633.169189	1743.606323
1632.323120	1840.815186
1631.476929	1816.866333
1630.630493	1819.509277
1629.783936	1884.169434
1628.937256	1857.272461
1628.090454	1809.718994
1627.243530	1859.588745
1626.396484	1924.197510
1625.549194	1758.628052
1624.701782	1811.430908
1623.854248	1784.573608
1623.006592	1763.623779
1622.158691	1810.501099
1621.310791	1807.242920
1620.462646	1821.672119
1619.614380	1824.307373
1618.765991	1850.515259
1617.917358	1867.875488
1617.068726	1799.805176
1616.219849	1796.551758
1615.370850	1893.418091
1614.521729	1816.545654
1613.672363	1863.333008
1612.822998	1786.491943
1611.973389	1883.293213
1611.123657	1874.144287
1610.273804	1888.531372
1609.423828	1929.383667
1608.573608	1917.290649
1607.723389	1916.962036
1606.872925	1857.841187
1606.022339	1848.705444
1605.171509	1827.818237
1604.320679	1851.009888
1603.469604	1780.190063
1602.618408	1838.626953
1601.767090	1946.966064
1600.915649	1858.549316
1600.064087	1831.810303
1599.212280	1887.262939
1598.360352	1898.677734
1597.508301	1830.868164
1596.656128	1880.425049
1595.803833	1836.106445
1594.951294	1876.847534
1594.098633	1914.642578
1593.245850	1849.819580
1592.392944	1946.227417
1591.539795	1940.032471
1590.686646	1945.559692
1589.833252	1907.141602
1588.979736	1857.020386
1588.126099	1880.130127
1587.272217	1815.390381
1586.418335	1806.296265
1585.564209	1943.557251
1584.709961	1905.178589
1583.855591	1913.629639
1583.000977	1930.854370
1582.146362	1994.873657
1581.291504	1938.964966
1580.436523	1953.252197
1579.581421	1824.281616
1578.726074	1926.274170
1577.870605	1966.858765
1577.015137	1837.951904
1576.159424	1922.360352
1575.303467	1872.372803
1574.447510	1872.051147
1573.591309	1862.969482
1572.734985	1976.510498
1571.878540	1882.762451
1571.021973	2002.097900
1570.165161	1978.409790
1569.308350	1980.987305
1568.451294	1913.555664
1567.594116	1965.723877
1566.736694	2000.377930
1565.879272	2008.780640
1565.021606	1909.325317
1564.163818	1888.595581
1563.305908	1955.292725
1562.447876	1919.994629
1561.589600	1972.098389
1560.731201	1957.196777
1559.872681	2041.307983
1559.014038	1973.992554
1558.155273	1973.653076
1557.296265	1920.924683
1556.437134	2074.823730
1555.577881	1958.087158
1554.718506	2079.927979
1553.859009	1998.132324
1552.999268	2111.199951
1552.139404	2020.704590
1551.279419	1950.589111
1550.419312	1929.907959
1549.558960	2042.909424
1548.698608	1952.487549
1547.838013	2065.446045
1546.977173	1890.821167
1546.116333	1992.135254
1545.255249	2035.344604
1544.394165	1956.613403
1543.532837	2043.351074
1542.671265	1999.469482
1541.809692	2010.731079
1540.947876	2010.384766
1540.085938	1998.436523
1539.223877	2012.592163
1538.361694	2023.843506
1537.499268	1959.717041
1536.636841	1965.176392
1535.774170	2072.063477
1534.911377	2005.064087
1534.048340	2080.040283
1533.185303	2053.613525
1532.322021	2067.739502
1531.458618	2073.174072
1530.594971	2067.026855
1529.731323	2078.248535
1528.867432	2069.208252
1528.003418	2042.809937
1527.139282	2068.494629
1526.275024	2004.503052
1525.410522	2122.729492
1524.545898	2073.207764
1523.681152	2061.286377
1522.816284	2063.821289
1521.951172	2072.135254
1521.086060	2068.888428
1520.220703	2080.087646
1519.355225	2108.613770
1518.489502	2007.169556
1517.623779	2058.798584
1516.757813	2101.748535
1515.891724	2081.180176
1515.025513	2083.707031
1514.159058	2100.660645
1513.292480	2057.022705
1512.425781	2045.129395
1511.558960	2085.152832
1510.692017	2061.724609
1509.824829	2049.836426
1508.957520	2084.072998
1508.090088	2031.836548
1507.222534	1991.144043
1506.354736	2137.733398
1505.486938	2062.469971
1504.618896	2076.514160
1503.750610	2162.541748
1502.882324	2113.224365
1502.013794	2095.588135
1501.145142	2089.469971
1500.276367	2005.659668
1499.407471	2198.076416
1498.538330	2025.102539
1497.669067	2165.679932
1496.799683	2133.674316
1495.930176	2199.432373
1495.060547	2078.320068
1494.190674	2132.568359
1493.320679	2152.314697
1492.450562	2157.688721
1491.580200	2074.010498
1490.709717	2113.861328
1489.839233	2170.927734
1488.968384	2156.196777
1488.097534	2109.894287
1487.226440	2083.698486
1486.355347	2206.731445
1485.483887	2169.051270
1484.612427	2188.756348
1483.740845	2016.290283
1482.869019	2193.734375
1481.997070	2282.235840
1481.124878	2244.574707
1480.252686	2178.265137
1479.380249	2186.485107
1478.507690	2243.409668
1477.635010	2234.427490
1476.762207	2225.448242
1475.889160	2196.426270
1475.015991	2218.951416
1474.142700	2387.464600
1473.269165	2289.737549
1472.395630	2355.159668
1471.521851	2452.031982
1470.647949	2325.737305
1469.773804	2459.763428
1468.899658	2470.776123
1468.025269	2578.997803
1467.150757	2701.475342
1466.276001	2715.298340
1465.401245	2817.705811
1464.526245	2831.503662
1463.651123	2985.276123
1462.775879	3161.844971
1461.900391	3192.710205
1461.024780	3329.208496
1460.149048	3397.145264
1459.273193	3470.767090
1458.397217	3453.042969
1457.520996	3492.389893
1456.644653	3297.796631
1455.768188	3300.077148
1454.891479	3370.799316
1454.014648	3221.948242
1453.137695	3155.821533
1452.260620	3178.076416
1451.383423	2972.339844
1450.505981	3034.509033
1449.628418	2900.088623
1448.750732	3007.821533
1447.872803	2796.561035
1446.994873	2790.381348
1446.116699	2855.374268
1445.238403	2809.337402
1444.359863	2814.541748
1443.481201	2888.032471
1442.602417	2896.065918
1441.723511	3091.824463
1440.844482	3099.819336
1439.965210	3238.606934
1439.085815	3166.972656
1438.206299	3342.650879
1437.326538	3344.912598
1436.446777	3253.406982
1435.566772	3221.592041
1434.686646	3164.224121
1433.806274	3189.234131
1432.925781	3029.672119
1432.045166	2873.004395
1431.164429	2846.959229
1430.283569	2653.484131
1429.402466	2644.510742
1428.521240	2530.572754
1427.639893	2479.076660
1426.758301	2325.502930
1425.876709	2435.682861
1424.994873	2387.064697
1424.112793	2423.498535
1423.230713	2352.227051
1422.348389	2357.485107
1421.465942	2357.075439
1420.583374	2300.015137
1419.700562	2274.126953
1418.817627	2333.194092
1417.934570	2451.692627
1417.051392	2482.402344
1416.167969	2544.232422
1415.284546	2668.291260
1414.400757	2662.168945
1413.516968	2576.848145
1412.633057	2434.994873
1411.748901	2366.708740
1410.864624	2383.259766
1409.980103	2252.820313
1409.095459	2382.430664
1408.210815	2308.549316
1407.325806	2226.218262
1406.440796	2259.726807
1405.555542	2318.641113
1404.670166	2261.763916
1403.784668	2267.016602
1402.899048	2224.281738
1402.013184	2221.072266
1401.127197	2294.050049
1400.241089	2217.477783
1399.354736	2228.374512
1398.468262	2194.143555
1397.581665	2267.074951
1396.694946	2227.210693
1395.807983	2291.654297
1394.920898	2220.798340
1394.033691	2265.495850
1393.146362	2189.034424
1392.258789	2140.767578
1391.371094	2300.924072
1390.483276	2204.785400
1389.595337	2370.505615
1388.707153	2367.277588
1387.818848	2254.291260
1386.930420	2248.270752
1386.041748	2202.864990
1385.152954	2194.042480
1384.264038	2379.277344
1383.375000	2336.684082
1382.485718	2294.105713
1381.596313	2321.814697
1380.706787	2324.220459
1379.817139	2419.352783
1378.927246	2267.220947
1378.037231	2314.577881
1377.147095	2331.024902
1376.256714	2291.306641
1375.366333	2467.778564
1374.475586	2385.945068
1373.584839	2295.720703
1372.693970	2449.651123
1371.802856	2387.501953
1370.911499	2502.091797
1370.020142	2459.587158
1369.128540	2515.239014
1368.236816	2360.603760
1367.344971	2517.164063
1366.453003	2418.634033
1365.560791	2479.858154
1364.668457	2541.060547
1363.775879	2467.787842
1362.883301	2542.974121
1361.990479	2550.930420
1361.097534	2497.291504
1360.204346	2622.817871
1359.311035	2644.749268
1358.417603	2647.085449
1357.524048	2582.275879
1356.630249	2573.433350
1355.736450	2475.098389
1354.842285	2494.239502
1353.948120	2516.169678
1353.053711	2465.415527
1352.159180	2532.059082
1351.264526	2456.171143
1350.369751	2355.165283
1349.474731	2321.234131
1348.579590	2396.234375
1347.684204	2482.377441
1346.788818	2434.482422
1345.893188	2450.804932
1344.997314	2377.813965
1344.101440	2391.350098
1343.205322	2337.924072
1342.309082	2465.827393
1341.412720	2406.829102
1340.516113	2442.657715
1339.619385	2511.928711
1338.722534	2475.252686
1337.825439	2396.784668
1336.928223	2524.542969
1336.030884	2532.459229
1335.133423	2557.085693
1334.235718	2656.898438
1333.337891	2678.709717
1332.439941	2739.489746
1331.541870	2844.785156
1330.643555	2991.789307
1329.745117	3041.351807
1328.846436	3110.371582
1327.947754	3090.355957
1327.048828	3106.501465
1326.149780	2950.242676
1325.250488	2855.201416
1324.351074	2729.616943
1323.451538	2651.322510
1322.551880	2603.620605
1321.651978	2608.720947
1320.751953	2527.710449
1319.851807	2624.470459
1318.951416	2518.494873
1318.050903	2504.172363
1317.150269	2573.127441
1316.249512	2525.497070
1315.348511	2533.378906
1314.447388	2488.546143
1313.546021	2477.014648
1312.644653	2471.033936
1311.743042	2506.647705
1310.841309	2644.825928
1309.939331	2478.050293
1309.037231	2519.186523
1308.135010	2485.493896
1307.232666	2501.680664
1306.330078	2631.428467
1305.427368	2567.269775
1304.524536	2630.505615
1303.621460	2497.157715
1302.718262	2701.550293
1301.814941	2687.239014
1300.911499	2603.757324
1300.007813	2733.327148
1299.104004	2702.421143
1298.199951	2726.836914
1297.295898	2834.196045
1296.391602	3176.507080
1295.487061	3413.662109
1294.582520	3827.604980
1293.677734	3840.748779
1292.772827	3627.351074
1291.867676	3284.206543
1290.962402	3137.261230
1290.057007	2719.770996
1289.151489	2677.882813
1288.245728	2572.524414
1287.339844	2613.468506
1286.433838	2530.232178
1285.527588	2549.099121
1284.621216	2366.604736
1283.714722	2443.407227
1282.808105	2426.434326
1281.901245	2450.819336
1280.994263	2367.698486
1280.087036	2485.784424
1279.179810	2482.592285
1278.272217	2377.470215
1277.364624	2404.596436
1276.456787	2401.419922
1275.548828	2362.449463
1274.640747	2326.245850
1273.732544	2380.886475
1272.824097	2504.307129
1271.915405	2462.594238
1271.006714	2456.659180
1270.097778	2464.479004
1269.188721	2543.796875
1268.279541	2452.613770
1267.370117	2306.481201
1266.460571	2473.739990
1265.550781	2445.823730
1264.640991	2387.693115
1263.730957	2340.571533
1262.820679	2397.839844
1261.910400	2520.996094
1260.999878	2476.621338
1260.089233	2418.535889
1259.178345	2451.047119
1258.267334	2445.127197
1257.356201	2483.109619
1256.444824	2438.779785
1255.533447	2484.978271
1254.621704	2435.178955
1253.709961	2489.586914
1252.797974	2502.855469
1251.885864	2549.009521
1250.973633	2430.723877
1250.061157	2427.555908
1249.148560	2353.164063
1248.235840	2295.231689
1247.322876	2423.534912
1246.409790	2401.204102
1245.496582	2485.643555
1244.583130	2367.514160
1243.669556	2468.348389
1242.755859	2470.649658
1241.841919	2385.411621
1240.927856	2420.547363
1240.013672	2417.386230
1239.099365	2370.479980
1238.184814	2370.062256
1237.270142	2410.641846
1236.355225	2396.553467
1235.440186	2336.022705
1234.525024	2398.440186
1233.609741	2384.361084
1232.694214	2394.863525
1231.778564	2479.079346
1230.862671	2443.155029
1229.946777	2510.956543
1229.030640	2485.954346
1228.114258	2384.567139
1227.197876	2395.058105
1226.281128	2367.361572
1225.364380	2446.023926
1224.447388	2560.101563
1223.530273	2532.390625
1222.613037	2567.374512
1221.695557	2654.120361
1220.777954	2732.662109
1219.860229	2639.563477
1218.942261	2658.162109
1218.024170	2755.722656
1217.105957	2621.830322
1216.187500	2664.920898
1215.268921	2754.263184
1214.350220	2536.086914
1213.431274	2560.124756
1212.512207	2483.508057
1211.593018	2523.864746
1210.673706	2469.034912
1209.754150	2544.722900
1208.834351	2503.499756
1207.914551	2505.775146
1206.994507	2456.421387
1206.074219	2475.004883
1205.153931	2452.836914
1204.233398	2501.288574
1203.312744	2473.692871
1202.391846	2473.255859
1201.470825	2320.812256
1200.549683	2477.809326
1199.628296	2463.803955
1198.706787	2468.794434
1197.785156	2411.395752
1196.863281	2508.601318
1195.941284	2410.542969
1195.019165	2496.870117
1194.096802	2515.402344
1193.174438	2477.016357
1192.251709	2444.062988
1191.328979	2481.558350
1190.406006	2462.158691
1189.482788	2486.096680
1188.559570	2550.641357
1187.636108	2474.388184
1186.712402	2560.565674
1185.788696	2451.862549
1184.864746	2548.836182
1183.940552	2396.888672
1183.016357	2485.723389
1182.091919	2601.569580
1181.167236	2479.435547
1180.242554	2451.962891
1179.317505	2500.180908
1178.392456	2445.689697
1177.467163	2510.103271
1176.541748	2579.896729
1175.616211	2590.243652
1174.690430	2449.358643
1173.764526	2635.226807
1172.838501	2726.544434
1171.912231	2693.672607
1170.985840	2806.536377
1170.059204	2889.680664
1169.132446	2837.913574
1168.205566	3066.668945
1167.278564	2990.618408
1166.351318	3027.835205
1165.423828	2846.685059
1164.496338	2646.732178
1163.568604	2856.455078
1162.640747	2780.508545
1161.712646	2785.403076
1160.784424	2811.842529
1159.856079	2692.858154
1158.927490	2748.920654
1157.998779	2818.422607
1157.069946	2860.985596
1156.140869	2860.478027
1155.211670	2897.637207
1154.282349	3012.792969
1153.352783	3028.395752
1152.423096	3138.108887
1151.493164	3202.077637
1150.563232	3048.288574
1149.632935	3028.934326
1148.702637	3092.887939
1147.772095	2955.319580
1146.841431	2868.837402
1145.910522	2822.671387
1144.979492	2746.983887
1144.048340	2722.333496
1143.116943	2652.059082
1142.185425	2697.212891
1141.253784	2616.234375
1140.321899	2653.329590
1139.389893	2583.116699
1138.457764	2590.703613
1137.525391	2614.376221
1136.592896	2667.530518
1135.660278	2768.914063
1134.727417	2712.142578
1133.794434	2757.212158
1132.861206	2807.624023
1131.927856	2892.838867
1130.994385	2996.769775
1130.060669	3057.822021
1129.126831	3300.896973
1128.192871	3434.142822
1127.258667	3388.037354
1126.324341	3181.406250
1125.389893	3057.780518
1124.455200	2966.295410
1123.520386	2861.471191
1122.585327	2770.053467
1121.650146	2774.907471
1120.714844	2619.388916
1119.779297	2725.817871
1118.843628	2711.973389
1117.907837	2628.677002
1116.971802	2630.880371
1116.035645	2606.377930
1115.099365	2536.494385
1114.162842	2648.162842
1113.226196	2556.944092
1112.289307	2588.511963
1111.352417	2622.736572
1110.415161	2579.587891
1109.477905	2667.144531
1108.540405	2520.002930
1107.602661	2620.869629
1106.664917	2529.768555
1105.726807	2734.541992
1104.788696	2616.805176
1103.850342	2619.003418
1102.911865	2682.468750
1101.973145	2689.981201
1101.034302	2732.107910
1100.095337	2625.125244
1099.156128	2550.123779
1098.216797	2562.976807
1097.277344	2652.993408
1096.337646	2604.631592
1095.397827	2649.387939
1094.457764	2699.447266
1093.517700	2651.102783
1092.577271	2613.409912
1091.636841	2663.448486
1090.696167	2686.892822
1089.755249	2667.813477
1088.814209	2664.681152
1087.873047	2717.330811
1086.931763	2809.798096
1085.990234	2705.740723
1085.048584	2742.425537
1084.106689	2723.356201
1083.164673	2762.678467
1082.222412	2671.970215
1081.280151	2764.345947
1080.337524	2631.230225
1079.394897	2787.227539
1078.452026	2736.351563
1077.509033	2704.051025
1076.565796	2801.639160
1075.622437	2671.285156
1074.678955	2670.808350
1073.735229	2723.314453
1072.791382	2823.477539
1071.847290	2664.082031
1070.903076	2758.924316
1069.958740	2697.545166
1069.014160	2765.879639
1068.069458	2778.617432
1067.124512	2854.850342
1066.179565	2838.468262
1065.234253	2967.560791
1064.288940	3093.962402
1063.343384	3238.826416
1062.397583	3288.473877
1061.451660	3361.890381
1060.505615	3361.289551
1059.559448	3067.421387
1058.613037	3117.063232
1057.666382	2984.450928
1056.719727	2793.791992
1055.772827	2719.367920
1054.825684	2782.234619
1053.878418	2781.737305
1052.931030	2789.156250
1051.983398	2635.637695
1051.035645	2790.796875
1050.087769	2734.913818
1049.139648	2734.424805
1048.191406	2620.571045
1047.242920	2770.349854
1046.294312	2893.720215
1045.345581	2848.408203
1044.396606	2824.188232
1043.447510	2836.853027
1042.498291	2933.787354
1041.548828	2862.168945
1040.599121	2801.106689
1039.649414	2837.455566
1038.699341	2836.947754
1037.749268	2983.787598
1036.798950	2930.638916
1035.848511	2827.533936
1034.897827	2945.368652
1033.947021	2992.169189
1032.996094	2839.160156
1032.044922	2904.361328
1031.093506	2803.980713
1030.142090	2727.282715
1029.190430	2676.881836
1028.238525	2812.980469
1027.286499	2841.363037
1026.334351	2706.950684
1025.381958	2661.839111
1024.429443	2776.845459
1023.476807	2757.979004
1022.523926	2739.119141
1021.570923	2749.121094
1020.617737	2732.892090
1019.664368	2748.135986
1018.710815	2729.290771
1017.757080	2796.956299
1016.803223	2720.449951
1015.849121	2688.517578
1014.894897	2805.931885
1013.940491	2690.173096
1012.985962	2684.452881
1012.031189	2678.734619
1011.076294	2725.378906
1010.121216	2753.683350
1009.165955	2687.761963
1008.210510	2682.046631
1007.254944	2841.151367
1006.299133	2848.488770
1005.343201	2845.362549
1004.387085	2748.106201
1003.430786	2836.498779
1002.474365	2877.811035
1001.517700	2932.174805
1000.560913	2842.810791
999.603943	2965.083740
998.646790	2914.924561
997.689514	2914.401367
996.731995	2913.878174
995.774353	2955.123535
994.816528	2925.882324
993.858521	2912.309082
992.900330	2804.811768
991.942017	2872.133301
990.983459	2735.991699
990.024780	2829.378174
989.065918	2763.688721
988.106873	2844.002441
987.147705	2872.161133
986.188293	2827.345703
985.228760	2774.729980
984.269043	2748.182373
983.309143	2713.830811
982.349060	2820.105957
981.388794	2793.564209
980.428406	2873.756348
979.467834	2922.688721
978.507019	2885.733887
977.546082	2950.255859
976.585022	3058.974609
975.623718	2993.406982
974.662292	3198.287354
973.700623	3174.314209
972.738831	3178.941895
971.776855	3186.166748
970.814758	3180.396973
969.852417	3057.723633
968.889954	2981.848145
967.927246	2918.984619
966.964417	2905.477051
966.001404	2819.285400
965.038208	2881.071533
964.074890	2890.933350
963.111328	2887.818604
962.147644	2918.428711
961.183777	2795.999756
960.219727	2927.750977
959.255493	2898.703613
958.291077	2799.674561
957.326538	2923.578125
956.361755	2816.806152
955.396851	2914.752686
954.431763	2836.515137
953.466492	2833.414307
952.501038	2832.903809
951.535461	2897.119385
950.569641	2741.283936
949.603699	2764.082764
948.637573	2856.739502
947.671265	2840.701660
946.704773	2925.550781
945.738098	2930.196045
944.771240	2981.383057
943.804260	2872.263428
942.837097	2990.647949
941.869751	2997.861816
940.902222	2940.475830
939.934509	3061.366943
938.966614	3065.980957
937.998535	2915.643066
937.030334	2964.176025
936.061951	2839.726074
935.093323	2957.944824
934.124573	3003.862793
933.155640	2845.930420
932.186584	2889.271973
931.217285	2834.586670
930.247864	2818.602783
929.278198	2952.166260
928.308411	2915.543701
927.338440	2855.737793
926.368286	2795.953369
925.397949	2875.318848
924.427429	2998.447266
923.456787	2902.611572
922.485901	2940.713623
921.514893	2917.011230
920.543701	2828.964355
919.572327	2988.020508
918.600769	2933.443848
917.629028	2925.196045
916.657104	2898.945068
915.685059	2831.554688
914.712769	2874.755859
913.740356	3005.351318
912.767761	2804.316406
911.794983	2988.845703
910.822021	2967.750000
909.848877	2972.351807
908.875549	2920.443604
907.902039	2973.845703
906.928406	3016.957764
905.954590	2888.054443
904.980530	2943.999756
904.006348	3061.514160
903.031982	3012.211182
902.057434	2973.187012
901.082703	3090.632080
900.107849	3072.122559
899.132751	3171.559814
898.157532	3086.392334
897.182068	3047.389404
896.206482	3018.650391
895.230713	3200.010498
894.254761	3055.982422
893.278625	2976.034424
892.302307	3042.073242
891.325806	2985.198486
890.349182	3000.016602
889.372314	3007.151611
888.395325	3075.695313
887.418091	3049.555176
886.440735	2967.150879
885.463196	2941.039551
884.485474	3004.431152
883.507568	2991.104736
882.529480	2985.450928
881.551270	3010.466309
880.572815	3089.129395
879.594238	3040.031738
878.615417	2993.505859
877.636475	3074.682861
876.657349	3132.850830
875.677979	3076.121826
874.698486	3116.401855
873.718811	3105.629639
872.739014	3023.421875
871.758972	3249.908447
870.778748	3198.309814
869.798401	3034.528564
868.817810	3051.825684
867.837097	3135.392578
866.856140	3127.178467
865.875061	3121.515137
864.893799	3064.899658
863.912354	3199.348145
862.930725	3201.314941
861.948914	3137.076172
860.966919	3052.493652
859.984741	3115.575195
859.002441	3135.369629
858.019897	3198.413086
857.037231	3182.568604
856.054321	3126.032959
855.071289	3181.414063
854.088074	3079.131348
853.104614	3192.970459
852.121033	3182.224121
851.137268	3163.857910
850.153320	3239.507324
849.169189	3249.080566
848.184937	3309.447754
847.200439	3263.137695
846.215759	3419.959961
845.230896	3404.107910
844.245911	3565.923340
843.260681	3631.252441
842.275330	3782.819336
841.289795	4111.895508
840.304016	4151.727539
839.318115	3783.294189
838.332031	3683.731689
837.345764	3505.626709
836.359314	3378.272705
835.372681	3372.591309
834.385864	3442.914063
833.398865	3315.640625
832.411743	3335.298096
831.424377	3352.416016
830.436829	3354.338379
829.449158	3270.201660
828.461243	3396.140137
827.473206	3433.475586
826.484924	3422.732422
825.496521	3371.524414
824.507935	3383.555420
823.519104	3352.599854
822.530151	3407.604004
821.541016	3257.865479
820.551697	3398.783447
819.562195	3405.744873
818.572510	3450.594238
817.582642	3280.751465
816.592590	3421.562256
815.602356	3501.729248
814.611938	3493.519531
813.621399	3677.118164
812.630615	3676.448975
811.639648	3675.779785
810.648560	4053.468018
809.657227	4491.544434
808.665771	4480.641113
807.674072	4386.547852
806.682251	4242.078125
805.690186	3991.817139
804.697998	3761.804199
803.705566	3627.603027
802.713013	3536.268799
801.720276	3467.631836
800.727356	3393.984131
799.734253	3516.715332
798.740906	3485.872070
797.747437	3419.810059
796.753784	3401.575195
795.759949	3408.501953
794.765930	3365.125000
793.771729	3437.434570
792.777344	3348.813721
791.782776	3393.449219
790.788025	3294.815430
789.793091	3389.699219
788.798035	3331.298584
787.802734	3438.699951
786.807251	3345.152100
785.811584	3349.563721
784.815796	3308.785645
783.819763	3275.552002
782.823547	3254.878174
781.827148	3306.975342
780.830627	3286.302979
779.833862	3290.719727
778.836975	3350.304443
777.839844	3382.287354
776.842529	3316.493408
775.845093	3408.622803
774.847412	3332.824219
773.849609	3369.797119
772.851563	3396.736816
771.853394	3391.107666
770.854980	3453.089844
769.856445	3432.430664
768.857666	3411.778809
767.858765	3376.118164
766.859680	3518.128418
765.860352	3257.302002
764.860901	3391.777832
763.861206	3443.676270
762.861389	3450.548340
761.861389	3397.419189
760.861145	3411.795410
759.860779	3411.172119
758.860168	3370.571533
757.859436	3362.461426
756.858521	3294.410156
755.857361	3431.154053
754.856079	3383.088623
753.854614	3437.388672
752.852905	3386.843506
751.851074	3391.215088
750.848999	3530.310547
749.846802	3519.687256
748.844421	3454.199219
747.841797	3471.022461
746.839050	3505.291016
745.836121	3365.062012
744.832947	3548.868164
743.829651	3575.627930
742.826111	3505.218018
741.822449	3519.521729
740.818604	3454.128418
739.814514	3528.193359
738.810303	3619.657227
737.805847	3487.078125
736.801270	3526.256592
735.796448	3515.658936
734.791504	3519.990479
733.786316	3554.166504
732.781006	3583.356445
731.775452	3597.617920
730.769775	3621.817139
729.763855	3554.049316
728.757751	3739.765625
727.751526	3572.623291
726.745056	3589.356689
725.738403	3494.325195
724.731628	3468.854248
723.724609	3654.415283
722.717407	3537.083984
721.710083	3578.624756
720.702515	3652.406738
719.694763	3644.294922
718.686829	3584.098877
717.678711	3687.597168
716.670410	3553.031738
715.661987	3654.018555
714.653320	3544.293701
713.644470	3625.420166
712.635437	3520.695557
711.626221	3688.497070
710.616821	3687.820557
709.607178	3607.904053
708.597412	3708.750244
707.587463	3668.464355
706.577332	3667.791504
705.567017	3652.271973
704.556458	3646.653809
703.545776	3603.934814
702.534912	3652.735107
701.523804	3694.099365
700.512573	3668.699707
699.501099	3660.611084
698.489502	3679.709473
697.477661	3721.037598
696.465698	3557.311035
695.453491	3793.768555
694.441101	3721.458008
693.428589	3740.526611
692.415833	3727.497070
691.402893	3605.876221
690.389771	3647.163818
689.376465	3769.853027
688.362976	3670.491455
687.349304	3677.215820
686.335449	3819.558105
685.321411	3833.648438
684.307190	3650.540283
683.292725	3805.130615
682.278137	3772.399170
681.263367	3784.023682
680.248352	3788.254395
679.233215	3866.363037
678.217834	3917.358398
677.202332	3786.165771
676.186584	3753.472900
675.170654	3750.321777
674.154541	3727.488770
673.138306	3778.461914
672.121826	3841.713623
671.105164	3769.695068
670.088318	3820.632080
669.071289	3728.978516
668.054016	3789.734375
667.036621	3820.980957
666.019043	3859.586426
665.001282	3787.642822
663.983276	3865.533691
662.965149	3837.812744
661.946777	3832.196533
660.928223	3988.579834
659.909546	3796.428955
658.890625	3832.534180
657.871521	3824.469238
656.852234	3885.082764
655.832764	3906.437500
654.813110	3883.652100
653.793274	3944.220459
652.773254	3855.261963
651.752991	3861.903076
650.732605	3910.191650
649.711975	3831.085938
648.691223	3840.176514
647.670227	3846.814941
646.649048	3990.549316
645.627747	4006.948242
644.606201	3986.631592
643.584473	3971.215820
642.562561	3921.556152
641.540466	3935.509033
640.518127	4013.039063
639.495667	3995.183838
638.473022	3984.668945
637.450134	4020.596436
636.427063	4010.080322
635.403870	4024.000244
634.380432	3910.890137
633.356812	4034.727539
632.333008	3968.052734
631.309021	3964.879395
630.284851	3981.234863
629.260498	4026.870361
628.235901	4006.606689
627.211182	4040.022217
626.186218	4036.837646
625.161133	4097.060547
624.135803	4169.452637
623.110291	4024.851563
622.084595	4119.166504
621.058716	4023.365723
620.032654	4190.739746
619.006409	4231.378418
617.979919	4113.689453
616.953308	4212.770020
615.926453	4185.210938
614.899414	4084.634521
613.872253	4293.185059
612.844849	4306.992188
611.817261	4267.270508
610.789490	4266.481934
609.761475	4265.693848
608.733337	4191.959473
607.705017	4089.079590
606.676453	4241.453613
605.647705	4255.250977
604.618774	4254.464355
603.589722	4246.390137
602.560425	4141.165527
601.530884	4191.395996
600.501221	4161.485840
599.471375	4272.380859
598.441284	4237.612305
597.411011	4236.828613
596.380615	4253.028320
595.349976	4242.539063
594.319153	4251.455078
593.288147	4216.721680
592.256897	4220.790039
591.225525	4270.911133
590.193970	4207.111328
589.162170	4339.598145
588.130188	4249.160645
587.098022	4233.841309
586.065674	4099.866699
585.033142	4113.635254
584.000427	4166.130371
582.967468	4191.982422
581.934387	4217.825195
580.901062	4263.013184
579.867554	4230.777344
578.833862	4184.041992
577.799988	4127.651367
576.765930	4204.250977
575.731628	4232.478027
574.697205	4275.195313
573.662537	4296.149902
572.627747	4319.512695
571.592712	4321.127441
570.557434	4262.368164
569.522034	4239.848145
568.486450	4243.890625
567.450623	4086.220215
566.414673	4312.298828
565.378479	4072.642090
564.342102	4291.402344
563.305542	4196.546387
562.268799	4280.166016
561.231812	4293.837891
560.194702	4293.041504
559.157349	4270.555176
558.119812	4303.497070
557.082092	4468.928711
556.044189	4424.743652
555.006042	4419.106445
553.967773	4466.442383
552.929260	4333.209961
551.890625	4289.082031
550.851746	4276.253906
549.812683	4301.926270
548.773376	4421.405762
547.733948	4300.329590
546.694275	4393.313477
545.654419	4358.838867
544.614441	4170.535645
543.574158	4263.491211
542.533752	4188.210449
541.493164	4247.493164
540.452332	4364.401855
539.411316	4365.992676
538.370178	4336.368652
537.328735	4328.361328
536.287170	4464.368652
535.245422	4393.946777
534.203430	4489.102539
533.161255	4529.049316
532.118896	4350.724609
531.076355	4565.733398
530.033630	4452.201660
528.990723	4453.770996
527.947571	4544.015137
526.904236	4404.191895
525.860718	4420.143555
524.817017	4369.020508
523.773132	4231.701660
522.729004	4309.930176
521.684692	4412.068848
520.640198	4279.604980
519.595520	4372.139160
518.550659	4538.809570
517.505615	4344.198730
516.460327	4623.223633
515.414856	4421.495117
514.369202	4423.063477
513.323364	4429.411621
512.277283	4397.518066
511.231079	4461.216309
510.184631	4362.434570
509.138000	4251.746094
508.091187	4217.520020
507.044159	4219.122559
505.996948	4156.267578
504.949554	4162.654297
503.901947	4197.675293
502.854126	4094.297607
501.806152	4088.764160
500.757965	4257.342285
499.709564	4335.242188
