#Wave		#Intensity
3200.600830	33.678818
3200.007080	4.209852
3199.413086	8.418432
3198.819092	4.208580
3198.224854	21.039719
3197.630615	-21.036539
3197.036377	46.273388
3196.442139	-21.030178
3195.847656	-8.410800
3195.252930	-12.614292
3194.658447	4.204128
3194.063721	0.000000
3193.468750	-4.202857
3192.873779	21.011108
3192.278809	8.403172
3191.683838	8.401901
3191.088623	0.000000
3190.493164	41.996803
3189.897949	16.796181
3189.302490	20.992050
3188.706787	20.988874
3188.111328	12.591420
3187.515381	-4.196505
3186.919678	12.587610
3186.323730	8.390471
3185.727783	33.556805
3185.131592	16.775864
3184.535400	-4.193331
3183.939209	-4.192697
3183.342773	4.192062
3182.746338	12.574285
3182.149902	33.526348
3181.553223	16.760637
3180.956543	0.000000
3180.359619	8.377783
3179.762695	-29.317801
3179.165771	0.000000
3178.568604	29.308924
3177.971436	16.745420
3177.374268	12.557164
3176.776855	0.000000
3176.179443	0.000000
3175.581787	12.551461
3174.984131	-20.915936
3174.386475	25.095322
3173.788574	8.363840
3173.190674	0.000000
3172.592773	4.180654
3171.994629	12.540061
3171.396484	16.717548
3170.798340	20.893770
3170.199951	8.356242
3169.601563	16.709953
3169.002930	25.061132
3168.404297	8.352446
3167.805664	8.351180
3167.206787	4.174957
3166.607910	4.174325
3166.008789	-33.389538
3165.409912	8.346119
3164.810547	33.379417
3164.211426	12.515385
3163.612061	0.000000
3163.012695	25.023182
3162.413086	4.169898
3161.813477	29.184862
3161.213623	4.168634
3160.614014	12.504006
3160.013916	-25.004221
3159.414063	0.000000
3158.813965	-4.166107
3158.213867	8.330950
3157.613525	12.494531
3157.013184	29.149483
3156.412598	24.981483
3155.812256	-8.325898
3155.211426	41.623177
3154.610840	12.485059
3154.010010	16.644220
3153.409180	-4.160424
3152.808105	33.278343
3152.207031	4.159162
3151.605957	29.109716
3151.004639	29.105301
3150.403320	0.000000
3149.801758	37.409748
3149.200195	4.156008
3148.598633	-8.310755
3147.996826	37.392719
3147.395020	8.308232
3146.793213	20.767429
3146.191162	16.611422
3145.589111	24.913351
3144.986816	20.757975
3144.384766	-33.207718
3143.782227	-12.451004
3143.179932	-8.299409
3142.577393	-8.298149
3141.974609	-4.148445
3141.371826	-4.147815
3140.769043	20.735926
3140.166260	-4.146555
3139.563232	0.000000
3138.960205	4.145296
3138.356934	20.723333
3137.753662	33.152298
3137.150391	-12.430223
3136.546875	4.142778
3135.943359	-8.284299
3135.339600	24.849121
3134.735840	-4.140891
3134.132080	16.561049
3133.528076	28.977430
3132.924072	20.695021
3132.320068	12.415126
3131.715820	8.275493
3131.111572	37.234058
3130.507080	12.409467
3129.902588	20.679302
3129.298096	16.540928
3128.693604	4.134604
3128.088867	-8.267950
3127.483887	20.666733
3126.878906	-8.265437
3126.273926	16.528360
3125.668945	28.920235
3125.063721	16.523336
3124.458252	33.041649
3123.853027	-8.259156
3123.247559	33.031601
3122.641846	-4.128323
3122.036133	24.766169
3121.430420	4.127067
3120.824707	4.126440
3120.218750	12.377436
3119.612549	-8.250369
3119.006592	41.245571
3118.400391	20.619648
3117.793945	12.369907
3117.187500	20.613377
3116.581055	32.976383
3115.974609	20.607105
3115.367920	-20.603970
3114.760986	-12.360501
3114.154297	28.836781
3113.547363	37.070221
3112.940186	-8.236573
3112.333008	20.588299
3111.725830	12.351100
3111.118408	-20.582033
3110.510986	37.042023
3109.903564	4.115154
3109.295898	4.114527
3108.688232	32.911209
3108.080566	0.000000
3107.472656	28.788540
3106.864746	-8.224045
3106.256592	8.222793
3105.648438	20.553852
3105.040039	28.771013
3104.431885	-20.547594
3103.823486	24.653358
3103.214844	8.216535
3102.606201	32.861134
3101.997559	8.214032
3101.388672	4.106390
3100.779785	4.105765
3100.170898	0.000000
3099.561768	16.418058
3098.952637	0.000000
3098.343262	12.309792
3097.733887	28.718472
3097.124512	24.612083
3096.514893	24.608334
3095.905273	-16.403055
3095.295410	24.600834
3094.685791	40.995144
3094.075684	16.395557
3093.465820	12.294794
3092.855713	-8.195280
3092.245361	40.970158
3091.635254	24.578346
3091.024658	24.574600
3090.414307	4.095142
3089.803711	12.283554
3089.193115	8.187788
3088.582275	32.746159
3087.971436	4.092646
3087.360596	0.000000
3086.749512	12.274193
3086.138428	4.090774
3085.527100	24.540901
3084.915771	-8.179052
3084.304443	16.355610
3083.692871	8.176558
3083.081299	4.087656
3082.469482	12.261096
3081.857910	12.259226
3081.245850	20.428926
3080.634033	40.851620
3080.021973	8.169077
3079.409668	-20.419577
3078.797607	36.749630
3078.185059	16.330677
3077.572754	8.164093
3076.960205	-8.162847
3076.347656	24.484802
3075.734863	16.320711
3075.122070	24.477329
3074.509033	0.000000
3073.895996	24.469858
3073.282959	16.310749
3072.669922	36.693584
3072.056641	32.611538
3071.443115	28.530741
3070.829834	-8.150395
3070.216064	12.223727
3069.602539	12.221861
3068.988770	-4.073331
3068.375000	20.363546
3067.760986	28.504612
3067.146973	-4.071465
3066.532715	16.283375
3065.918701	0.000000
3065.304199	20.348001
3064.689941	8.137958
3064.075439	24.410143
3063.460693	20.338678
3062.846191	-4.067114
3062.231445	20.332464
3061.616455	12.197615
3061.001465	32.522003
3060.386475	32.517033
3059.771240	12.192024
3059.156006	36.570484
3058.540771	32.502129
3057.925293	4.062145
3057.309814	12.184573
3056.694092	4.060904
3056.078369	-16.241131
3055.462646	-4.059662
3054.846680	20.295208
3054.230713	16.233685
3053.614502	8.115602
3052.998291	16.228722
3052.382080	12.169680
3051.765625	-20.279699
3051.149170	8.110640
3050.532715	8.109399
3049.916016	12.162238
3049.299316	0.000000
3048.682373	8.105679
3048.065430	4.052219
3047.448486	12.154799
3046.831299	24.305880
3046.214111	12.151081
3045.596680	12.149222
3044.979248	20.245605
3044.361816	8.097004
3043.744141	-24.287294
3043.126465	12.141788
3042.508545	4.046644
3041.890869	24.276146
3041.272705	12.136216
3040.654785	40.447861
3040.036621	8.088334
3039.418213	-8.087096
3038.799805	20.214647
3038.181396	28.296173
3037.562988	28.291842
3036.944336	24.246437
3036.325439	20.202272
3035.706543	8.079672
3035.087646	16.156870
3034.468750	28.270191
3033.849609	16.151922
3033.230469	-4.037362
3032.611084	20.183720
3031.991699	20.180628
3031.372070	28.248552
3030.752441	-12.104669
3030.132813	20.171358
3029.513184	-8.067307
3028.893066	28.231249
3028.273193	24.194508
3027.653076	44.349800
3027.032959	20.155912
3026.412598	20.152824
3025.792480	44.329418
3025.171875	36.263969
3024.551270	-4.028712
3023.930664	44.309044
3023.310059	24.164865
3022.689209	28.188023
3022.068115	4.026243
3021.447266	40.256264
3020.826172	8.050018
3020.204834	28.170746
3019.583496	-16.095100
3018.962158	40.231583
3018.340576	20.112709
3017.718994	24.131550
3017.097412	20.106541
3016.475586	36.186226
3015.853760	16.080301
3015.231689	24.116753
3014.609619	40.188423
3013.987549	36.164036
3013.365234	0.000000
3012.742920	8.033987
3012.120361	-4.016377
3011.497803	-4.015761
3010.875244	-12.045436
3010.252441	20.072647
3009.629639	20.069567
3009.006836	4.013298
3008.383789	52.164864
3007.760498	16.048265
3007.137451	8.022902
3006.514160	24.065010
3005.890625	12.030659
3005.267090	24.057625
3004.643555	36.080898
3004.019775	24.050241
3003.395996	20.038792
3002.772217	32.057144
3002.148193	-4.006528
3001.524170	12.017738
3000.899902	4.005298
3000.275635	20.023415
2999.651367	48.048817
2999.026855	8.006907
2998.402344	32.022709
2997.777588	24.013344
2997.152832	24.009657
2996.528076	20.004974
2995.903076	16.001522
2995.278076	11.999298
2994.653076	11.997455
2994.027832	19.992687
2993.402344	43.977154
2992.777100	23.983854
2992.151367	15.986779
2991.525879	23.976484
2990.900146	59.932003
2990.274414	0.000000
2989.648438	19.971195
2989.022461	27.955378
2988.396240	19.965059
2987.770264	19.961990
2987.143799	27.942492
2986.517578	7.982342
2985.891113	3.990557
2985.264404	7.979888
2984.637695	31.914646
2984.010986	7.977435
2983.384033	-3.988104
2982.757080	35.887421
2982.130127	3.986878
2981.502930	23.917591
2980.875732	27.899567
2980.248291	31.880316
2979.620850	23.906559
2978.993408	3.983814
2978.365723	7.966402
2977.738037	35.843296
2977.110107	19.909880
2976.482178	27.869545
2975.854248	31.846008
2975.226074	43.781525
2974.597900	11.938580
2973.969482	15.915656
2973.341309	39.783020
2972.712646	15.910759
2972.083984	19.885389
2971.455322	7.952932
2970.826660	-3.975854
2970.197754	31.801937
2969.568604	31.797043
2968.939697	7.948037
2968.310547	11.920220
2967.681152	19.863976
2967.051758	43.694019
2966.422363	0.000000
2965.792725	27.796726
2965.163086	19.851748
2964.533203	39.697384
2963.903564	15.876508
2963.273438	27.779612
2962.643311	31.743238
2962.013184	-7.934587
2961.383057	31.733461
2960.752686	27.762503
2960.122314	3.965461
2959.491699	15.859401
2958.861084	31.713917
2958.230225	39.636288
2957.599609	39.630184
2956.968506	35.661671
2956.337646	31.694380
2955.706299	-3.961187
2955.075195	19.802883
2954.443848	31.679731
2953.812500	23.756138
2953.180908	23.752476
2952.549316	39.581360
2951.917725	27.702682
2951.285889	63.310658
2950.653809	55.388287
2950.021973	23.734179
2949.389893	-3.955086
2948.757568	39.544769
2948.125244	11.861602
2947.492920	-7.906515
2946.860352	15.810593
2946.227783	43.472427
2945.595215	27.660006
2944.962402	23.704920
2944.329590	27.651476
2943.696533	43.445618
2943.063477	15.795970
2942.430420	15.793533
2941.797119	15.791098
2941.163574	63.154648
2940.530273	39.465565
2939.896729	7.891896
2939.262939	43.398731
2938.629150	39.447304
2937.995361	11.832365
2937.361328	15.774053
2936.727295	27.600332
2936.093262	19.711481
2935.458984	23.650127
2934.824707	59.116196
2934.190186	11.821414
2933.555664	31.518906
2932.921143	31.514040
2932.286377	39.386471
2931.651367	43.318428
2931.016602	31.499449
2930.381592	15.747293
2929.746338	43.298370
2929.111084	62.969723
2928.475830	62.960003
2927.840332	27.540747
2927.204834	15.735140
2926.569336	27.532242
2925.933594	19.662849
2925.297607	23.591776
2924.661865	51.107620
2924.025879	35.376736
2923.389648	51.091835
2922.753418	47.154408
2922.117188	27.502489
2921.480713	11.784960
2920.844238	39.277130
2920.207764	11.781319
2919.571045	19.632498
2918.934082	-3.925893
2918.297363	15.701144
2917.660156	27.472755
2917.023193	43.164803
2916.385986	3.923466
2915.748779	35.305740
2915.111328	31.378029
2914.473877	47.059769
2913.836182	47.052494
2913.198486	31.363480
2912.560791	19.599144
2911.922852	47.030674
2911.284912	23.511702
2910.646729	35.262100
2910.008545	31.339241
2909.370361	27.417597
2908.731934	35.245743
2908.093506	54.818233
2907.455078	31.319860
2906.816406	35.229393
2906.177490	39.137714
2905.538574	35.218494
2904.899658	35.213047
2904.260498	50.855423
2903.621338	15.645401
2902.982178	19.553726
2902.342773	0.000000
2901.703369	46.914421
2901.063721	35.180370
2900.424072	82.074829
2899.784424	31.261763
2899.144531	35.164040
2898.504639	66.410683
2897.864502	19.529531
2897.224365	15.621207
2896.583984	15.618789
2895.943848	31.232742
2895.303223	19.517441
2894.662842	46.834610
2894.021973	42.925076
2893.381348	35.115082
2892.740479	31.208570
2892.099609	39.004673
2891.458496	3.899863
2890.817383	46.791111
2890.176025	58.479832
2889.534668	15.592207
2888.893311	38.974480
2888.251709	35.071598
2887.610107	3.896240
2886.968262	50.643280
2886.326416	62.320538
2885.684570	31.155439
2885.042480	31.150614
2884.400391	35.039009
2883.758057	35.033581
2883.115723	54.488235
2882.473389	27.239897
2881.830811	35.017296
2881.188232	23.341246
2880.545410	35.006443
2879.902588	46.668022
2879.259766	27.218794
2878.616699	23.326778
2877.973633	50.533516
2877.330322	50.525681
2876.687012	42.745872
2876.043457	19.426929
2875.399902	31.078268
2874.756348	42.725990
2874.112549	54.370102
2873.468750	34.946789
2872.824707	42.706116
2872.180664	69.871895
2871.536621	38.811699
2870.892334	58.208519
2870.248047	46.559593
2869.603760	34.914276
2868.958984	31.030100
2868.314453	69.806892
2867.669678	31.020472
2867.024902	15.507830
2866.379883	38.763557
2865.734863	54.260559
2865.089844	42.626682
2864.444580	15.498205
2863.799316	50.361351
2863.153809	54.226883
2862.508301	50.345718
2861.862549	11.616440
2861.216797	46.458546
2860.571045	30.967556
2859.925049	19.351717
2859.279053	19.348713
2858.632813	34.822277
2857.986572	42.553951
2857.340332	27.075583
2856.693848	34.806057
2856.047363	27.067175
2855.400635	38.661385
2854.753906	54.117535
2854.107178	38.649380
2853.460205	19.321688
2852.813232	30.909899
2852.166016	57.947056
2851.518799	19.312685
2850.871338	27.033558
2850.223877	54.058716
2849.576416	30.885895
2848.928711	65.622330
2848.281006	0.000000
2847.633301	23.153625
2846.985352	11.575013
2846.337158	34.719643
2845.688965	30.857109
2845.040771	23.139235
2844.392578	34.703457
2843.743896	50.119423
2843.095459	50.111629
2842.446777	38.541416
2841.798096	46.242508
2841.149170	77.058868
2840.500244	53.932819
2839.851074	38.517452
2839.202148	50.064899
2838.552734	0.000000
2837.903320	38.499485
2837.253906	19.246748
2836.604492	26.941257
2835.954834	65.418594
2835.304932	46.170647
2834.655029	15.387821
2834.005127	23.078142
2833.354980	15.383034
2832.704834	57.677402
2832.054688	61.512989
2831.404297	42.283600
2830.753906	30.746925
2830.103271	34.584908
2829.452637	34.579525
2828.801758	7.683143
2828.150879	42.250710
2827.500000	49.924885
2826.848877	49.917114
2826.197754	53.748524
2825.546387	46.062992
2824.895020	26.865896
2824.243408	30.699100
2823.591797	11.510370
2822.940186	19.180964
2822.288330	42.191551
2821.636475	53.689976
2820.984619	30.675207
2820.332520	23.002823
2819.680176	42.165276
2819.028076	22.995659
2818.375488	49.816166
2817.723145	11.494247
2817.070557	45.969830
2816.417725	34.472000
2815.764893	61.274010
2815.112061	19.145144
2814.458984	45.941189
2813.805908	57.417538
2813.152832	42.099632
2812.499512	22.959858
2811.845947	7.652093
2811.192383	7.650900
2810.538818	26.773979
2809.885010	42.066837
2809.231201	45.883942
2808.577393	11.469197
2807.923340	15.289880
2807.269287	22.931244
2806.614990	49.676617
2805.960693	61.130917
2805.306152	22.920519
2804.651611	42.014400
2803.997070	49.645638
2803.342285	26.728098
2802.687500	61.083271
2802.032471	49.622417
2801.377441	22.899082
2800.722412	26.711428
2800.067139	53.414524
2799.411621	38.147278
2798.756348	15.256531
2798.100586	7.627076
2797.445068	30.503542
2796.789307	22.874086
2796.133301	15.247012
2795.477539	15.244633
2794.821289	30.484509
2794.165283	30.479750
2793.509033	41.903118
2792.852539	38.087795
2792.196045	60.930962
2791.539551	26.653135
2790.882813	53.297951
2790.226074	19.032011
2789.569092	30.446463
2788.912109	53.272991
2788.255127	34.241577
2787.597900	15.216103
2786.940430	41.837746
2786.283203	34.225540
2785.625488	53.231411
2784.968018	22.809900
2784.310303	30.408449
2783.652588	38.004627
2782.994629	34.198822
2782.336426	45.591305
2781.678467	53.181545
2781.020264	37.980885
2780.361816	34.177456
2779.703369	41.765919
2779.044922	22.777851
2778.386230	60.731445
2777.727539	30.360977
2777.068604	45.534351
2776.409668	30.351488
2775.750732	37.933434
2775.091553	41.720253
2774.432373	26.545103
2773.772949	37.915646
2773.113525	22.745832
2772.453857	11.371139
2771.794189	49.267227
2771.134521	15.156777
2770.474609	26.520214
2769.814697	41.668106
2769.154541	53.023842
2768.494385	45.441898
2767.833984	45.434792
2767.173584	49.213326
2766.513184	22.710291
2765.852539	45.413479
2765.191895	37.838646
2764.531006	26.482908
2763.870117	45.392170
2763.209229	41.602978
2762.548096	56.722458
2761.886719	30.247246
2761.225586	64.265343
2760.563965	45.356670
2759.902588	37.791309
2759.240967	26.449778
2758.579102	49.113327
2757.917236	45.328285
2757.255371	22.660595
2756.593262	33.985573
2755.931152	41.531418
2755.269043	60.399879
2754.606689	22.646410
2753.944092	33.964294
2753.281494	26.412539
2752.618896	18.863146
2751.956055	60.352612
2751.293213	30.171581
2750.630371	15.083428
2749.967285	49.013466
2749.303955	79.163193
2748.640625	48.998112
2747.977295	64.064423
2747.313721	56.518574
2746.650146	30.138517
2745.986572	60.267593
2745.322754	30.129076
2744.658691	30.124355
2743.994873	52.709362
2743.330566	48.936737
2742.666504	11.291324
2742.002197	48.921402
2741.337646	60.201519
2740.673096	33.858047
2740.008545	7.522831
2739.343750	37.608261
2738.678955	41.362602
2738.013916	26.317532
2737.348877	30.072462
2736.683594	60.135498
2736.018311	52.610310
2735.353027	22.543741
2734.687500	15.026804
2734.021973	78.878349
2733.356201	33.799706
2732.690430	52.569077
2732.024658	41.297794
2731.358643	11.261269
2730.692383	71.310181
2730.026367	37.525787
2729.359863	56.279850
2728.693604	37.514015
2728.027100	41.258942
2727.360352	26.251572
2726.693604	3.749636
2726.026855	44.988575
2725.359863	41.233055
2724.692871	41.226585
2724.025635	71.198380
2723.358398	33.720257
2722.691162	41.207176
2722.023682	44.946228
2721.355957	37.449310
2720.688477	48.676464
2720.020508	26.206289
2719.352783	59.890686
2718.684814	44.910961
2718.016602	56.129887
2717.348389	41.155457
2716.680176	26.185722
2716.011719	52.363220
2715.343262	26.177500
2714.674561	22.434332
2714.005859	33.646214
2713.337158	48.592453
2712.668213	33.635647
2711.999023	37.367069
2711.329834	56.041798
2710.660645	22.413197
2709.991455	48.554298
2709.321777	29.874874
2708.652344	22.402636
2707.982666	37.331860
2707.312988	67.186783
2706.643066	74.640251
2705.972900	41.045689
2705.302979	48.500916
2704.632813	55.953800
2703.962402	48.485668
2703.291992	63.394371
2702.621582	44.741932
2701.950928	55.918625
2701.280273	70.819122
2700.609375	78.261459
2699.938477	40.987652
2699.267334	67.060158
2698.596191	18.624893
2697.925049	40.968319
2697.253662	29.790457
2696.582031	14.892885
2695.910645	33.503723
2695.239014	40.942554
2694.567139	55.821972
2693.895264	52.092312
2693.223145	33.482647
2692.551270	55.795631
2691.878906	59.505978
2691.206543	33.466846
2690.534180	11.153860
2689.861816	33.456314
2689.189209	66.902100
2688.516357	52.026775
2687.843506	29.724907
2687.170654	63.155487
2686.497559	33.429996
2685.824463	44.566311
2685.151123	29.706196
2684.477783	55.690350
2683.804199	48.257370
2683.130615	40.826733
2682.457031	25.976557
2681.783203	44.524227
2681.109375	44.517216
2680.435303	44.510208
2679.761230	59.337597
2679.086914	48.204205
2678.412598	63.026340
2677.738281	59.309563
2677.063721	44.475166
2676.389160	55.585201
2675.714355	62.986637
2675.039551	55.567688
2674.364502	33.335361
2673.689453	18.516727
2673.014404	59.244190
2672.339111	25.915249
2671.663574	33.314354
2670.988037	33.309105
2670.312500	37.004284
2669.636719	44.398140
2668.960938	44.391144
2668.285156	33.288109
2667.609131	81.358109
2666.932861	33.277615
2666.256592	55.453949
2665.580322	33.267124
2664.903809	44.349171
2664.227295	22.171089
2663.550781	55.418980
2662.874023	59.104259
2662.197021	70.175240
2661.520020	59.085617
2660.843018	62.768566
2660.165771	44.300236
2659.488525	40.602142
2658.811035	51.667305
2658.133545	33.209454
2657.455811	14.757429
2656.778076	47.954079
2656.100342	59.011093
2655.422363	73.752228
2654.744385	66.366531
2654.066162	44.237370
2653.387939	73.717316
2652.709473	36.852840
2652.031006	55.270538
2651.352539	44.209450
2650.673828	69.987244
2649.994873	44.195496
2649.316162	40.506142
2648.636963	40.499744
2647.958008	40.493351
2647.278809	36.806324
2646.599365	36.800514
2645.919922	69.909935
2645.240479	55.183338
2644.560791	66.209549
2643.880859	55.165909
2643.201172	36.771465
2642.520996	36.765656
2641.841064	62.491745
2641.160889	29.403234
2640.480469	47.772705
2639.800049	58.787888
2639.119629	66.125923
2638.438965	36.730820
2637.758301	55.087524
2637.077393	62.422665
2636.396484	55.070118
2635.715332	55.061413
2635.034180	44.042168
2634.353027	40.365608
2633.671631	51.366291
2632.989990	77.037254
2632.308350	44.014328
2631.626709	40.340092
2630.944824	58.667217
2630.262939	69.656311
2629.581055	32.989876
2628.898926	65.969322
2628.216553	43.972591
2627.534180	84.267471
2626.851807	40.295460
2626.169189	65.927597
2625.486572	80.565430
2624.803711	62.245258
2624.120850	62.235413
2623.437988	54.904915
2622.754883	21.958490
2622.071533	62.205883
2621.388184	62.196041
2620.704834	54.870174
2620.021240	54.861492
2619.337646	80.450790
2618.653809	32.906479
2617.969971	43.868362
2617.286133	51.171654
2616.602051	58.472633
2615.917725	73.079224
2615.233398	69.414276
2614.549072	36.528046
2613.864502	51.131168
2613.179932	62.078014
2612.495117	80.323540
2611.810303	29.203934
2611.125488	47.448879
2610.440430	40.142693
2609.755127	51.082611
2609.069824	43.778160
2608.384521	65.656837
2607.698975	80.234535
2607.013428	61.989594
2606.327637	54.688038
2605.641846	58.324665
2604.956055	29.157713
2604.270020	69.238594
2603.583740	32.792034
2602.897461	40.072800
2602.211182	61.920879
2601.524658	54.627411
2600.838135	76.466255
2600.151367	40.047405
2599.464600	54.601444
2598.777832	58.232307
2598.090820	109.168274
2597.403564	32.745289
2596.716309	54.566833
2596.029053	47.283756
2595.341553	43.639626
2594.654053	61.813000
2593.966309	72.709648
2593.278564	39.983963
2592.590820	25.440306
2591.902832	54.506294
2591.214600	61.764004
2590.526367	72.652008
2589.838135	50.848339
2589.149658	54.471722
2588.461182	68.986572
2587.772461	68.975624
2587.083740	87.113289
2586.394775	76.212029
2585.705811	76.199936
2585.016846	39.907921
2584.327637	47.156422
2583.638184	58.029465
2582.948975	54.393990
2582.259277	72.513809
2581.569824	65.252068
2580.879883	83.364410
2580.190186	43.487568
2579.500244	39.857277
2578.810059	47.096577
2578.119873	54.333576
2577.429688	50.703289
2576.739258	28.968706
2576.048584	104.994888
2575.358154	72.398766
2574.667236	72.387268
2573.976563	90.469719
2573.285645	50.654995
2572.594482	61.499870
2571.903320	43.404778
2571.212158	57.863842
2570.520752	72.318314
2569.829102	46.999435
2569.137451	61.451035
2568.445801	68.669655
2567.753906	46.977036
2567.062012	39.743484
2566.370117	50.574577
2565.677979	54.178436
2564.985596	39.724541
2564.293213	57.771965
2563.600830	32.491566
2562.908203	54.144001
2562.215332	75.789551
2561.522705	72.169052
2560.829590	39.686668
2560.136719	39.680359
2559.443604	39.674049
2558.750244	50.486214
2558.056885	68.506111
2557.363525	50.470161
2556.669922	64.879883
2555.976074	61.265701
2555.282227	79.272415
2554.588379	57.643497
2553.894287	46.827892
2553.200195	46.820442
2552.505859	64.817993
2551.811523	75.608955
2551.117188	75.596931
2550.422607	82.783463
2549.727783	39.585793
2549.032959	53.972034
2548.338135	57.561008
2547.643066	39.566895
2546.947998	43.157017
2546.252686	75.512756
2545.557373	82.691284
2544.861816	61.109917
2544.166260	53.911930
2543.470703	68.277573
2542.774902	68.266701
2542.078857	68.255836
2541.382813	71.836807
2540.686768	43.095222
2539.990479	28.725573
2539.294189	107.703743
2538.597656	46.664188
2537.901123	93.313515
2537.204346	86.121826
2536.507568	78.932434
2535.810791	43.047199
2535.113770	57.387119
2534.416504	60.964100
2533.719238	57.368835
2533.021973	68.114639
2532.324463	64.519371
2531.626953	89.595963
2530.929199	78.831886
2530.231445	82.402016
2529.533447	75.224632
2528.835449	53.723316
2528.137451	46.552788
2527.439209	57.286606
2526.740723	71.596840
2526.042236	60.847614
2525.343750	39.365707
2524.645020	75.140732
2523.946289	67.973633
2523.247314	50.077847
2522.548340	50.069862
2521.849121	60.789421
2521.149902	92.957230
2520.450684	89.367699
2519.751221	64.334480
2519.051514	92.912758
2518.351807	71.459953
2517.652100	75.020981
2516.952148	75.009010
2516.252197	60.711891
2515.552002	74.985077
2514.851807	67.832817
2514.151367	64.252411
2513.450928	74.949188
2512.750244	49.958153
2512.049561	60.653790
2511.348877	46.374905
2510.647949	39.234043
2509.946777	96.286369
2509.245605	67.746254
2508.544434	57.040371
2507.843018	71.289078
2507.141602	64.149933
2506.439941	32.069843
2505.738281	85.505928
2505.036377	74.805740
2504.334473	71.232185
2503.632568	67.659767
2502.930420	64.088486
2502.228027	67.638153
2501.525635	74.746017
2500.823242	85.410378
2500.120605	124.536903
2499.417969	60.479691
2498.715088	96.040634
2498.012207	85.355812
2497.309082	64.006630
2496.605957	49.774979
2495.902588	35.547874
2495.199219	71.084389
2494.495605	63.965725
2493.791992	60.402416
2493.088379	60.392761
2492.384521	39.071423
2491.680664	42.616558
2490.976563	85.219490
2490.272461	88.756111
2489.568115	60.344505
2488.863770	63.883965
2488.159180	60.325211
2487.454590	74.507462
2486.749756	106.422211
2486.044922	85.124153
2485.339844	70.925446
2484.634766	78.005516
2483.929688	74.447899
2483.224365	88.614273
2482.519043	67.336075
2481.813477	92.129356
2481.107666	102.743233
2480.402100	67.303757
2479.696045	106.252090
2478.990234	67.282219
2478.284180	74.352661
2477.577881	49.560509
2476.871582	84.947273
2476.165039	81.394775
2475.458496	95.535095
2474.751953	91.982033
2474.045166	49.520859
2473.338379	53.049568
2472.631348	74.257507
2471.924072	77.781120
2471.217041	67.163849
2470.509521	67.153091
2469.802246	70.676147
2469.094482	52.998623
2468.386963	49.457458
2467.679199	81.238525
2466.971191	81.225517
2466.263184	84.743484
2465.554932	49.425781
2464.846680	52.947708
2464.138428	38.822098
2463.429932	88.217911
2462.721436	70.563019
2462.012695	84.662056
2461.303955	56.432327
2460.594971	74.055557
2459.885986	81.095474
2459.176758	81.082474
2458.467529	66.970436
2457.758057	91.629066
2457.048584	77.519859
2456.338867	66.938240
2455.629150	84.540009
2454.919434	81.004517
2454.209473	98.598389
2453.499512	70.416130
2452.789307	66.884598
2452.078857	84.472252
2451.368408	73.901367
2450.657959	59.815323
2449.947266	49.251778
2449.236572	87.935501
2448.525879	59.786549
2447.814697	80.874702
2447.103760	38.673000
2446.392578	70.303268
2445.681152	66.777390
2444.969727	87.850891
2444.258301	98.377205
2443.546631	77.283974
2442.834717	66.734543
2442.122803	66.723831
2441.410889	77.246773
2440.698730	105.319603
2439.986572	66.691704
2439.274170	70.190529
2438.561768	73.688225
2437.849121	66.659592
2437.136475	87.695908
2436.423584	63.130917
2435.710693	59.614071
2434.997803	70.122940
2434.284424	80.628433
2433.571289	84.120499
2432.857910	52.566872
2432.144287	70.077904
2431.430908	66.563316
2430.717041	115.591400
2430.003174	70.044136
2429.289307	87.541107
2428.575195	66.520554
2427.861084	80.511940
2427.146729	87.498917
2426.432373	94.483650
2425.717773	87.470802
2425.003174	76.961937
2424.288330	45.470200
2423.573486	90.925781
2422.858643	80.421417
2422.143555	90.896553
2421.428223	87.386482
2420.712891	41.938770
2419.997559	104.830063
2419.281982	83.850571
2418.566162	73.357452
2417.850586	101.286858
2417.134521	90.794304
2416.418457	66.339012
2415.702393	80.292206
2414.986084	87.260101
2414.269775	76.776543
2413.553223	59.317783
2412.836670	94.195442
2412.120117	73.251335
2411.403076	69.751953
2410.686279	66.253693
2409.969238	101.107796
2409.251953	55.774635
2408.534668	38.338890
2407.817383	48.787098
2407.099854	69.684639
2406.382080	66.189751
2405.664307	80.111542
2404.946533	83.581200
2404.228516	69.639786
2403.510498	80.072861
2402.792236	55.693893
2402.073975	87.007698
2401.355469	83.513939
2400.636963	93.938057
2399.918213	83.487053
2399.199463	69.561340
2398.480469	86.937668
2397.761475	79.969772
2397.042480	34.763866
2396.323242	72.992363
2395.603760	86.881676
2394.884277	66.019432
2394.164795	72.957092
2393.445068	79.892517
2392.725098	90.298729
2392.005127	45.142090
2391.285156	76.381996
2390.564941	86.783737
2389.844727	52.061852
2389.124268	79.815308
2388.403809	107.559814
2387.683105	100.604248
2386.962402	86.713821
2386.241455	72.827873
2385.520508	76.283562
2384.799316	83.205017
2384.078125	100.523186
2383.356689	103.972740
2382.635254	58.908382
2381.913818	90.080650
2381.192139	69.281631
2380.470215	96.978645
2379.748291	86.574104
2379.026367	41.548870
2378.304199	76.160637
2377.581787	89.993507
2376.859375	72.675339
2376.136963	93.424652
2375.414307	58.813438
2374.691650	72.640167
2373.968750	79.545448
2373.245850	100.280243
2372.522705	72.605011
2371.799316	76.050117
2371.076172	58.756516
2370.352783	89.848404
2369.629150	79.468452
2368.905518	100.183174
2368.181641	72.534729
2367.457764	65.616066
2366.733643	79.417145
2366.009521	89.761414
2365.285400	86.295113
2364.561035	131.147385
2363.836426	62.112415
2363.111816	65.552521
2362.387207	82.789810
2361.662354	72.429382
2360.937256	72.417686
2360.212158	93.093414
2359.487061	65.499596
2358.761719	89.616547
2358.036377	82.709602
2357.310791	103.370300
2356.584961	68.902397
2355.859375	75.780388
2355.133301	86.100159
2354.407471	82.642799
2353.681152	79.186546
2352.955078	58.519730
2352.228516	86.044518
2351.502197	92.913055
2350.775635	92.898033
2350.048828	120.403908
2349.322021	75.670219
2348.594971	92.852989
2347.867920	44.699764
2347.140869	92.822960
2346.413330	85.933289
2345.686035	109.976822
2344.958496	106.522812
2344.230713	89.327263
2343.502930	68.702164
2342.775146	109.905685
2342.047119	78.981934
2341.319092	82.402596
2340.590820	82.389267
2339.862305	92.672928
2339.133789	82.362610
2338.405273	65.193184
2337.676514	106.350609
2336.947754	75.462410
2336.218750	133.752625
2335.489746	75.437988
2334.760498	92.568001
2334.031250	82.269348
2333.301758	109.674706
2332.572266	68.535599
2331.842529	82.229401
2331.112793	92.493095
2330.382813	102.753471
2329.652832	75.340340
2328.922607	112.992218
2328.192383	92.433205
2327.462158	58.189259
2326.731689	109.514984
2326.000977	102.653664
2325.270264	71.845924
2324.539307	88.937691
2323.808350	106.023918
2323.077393	92.328453
2322.346191	68.380363
2321.614746	88.880074
2320.883301	88.865669
2320.151855	109.355408
2319.420166	82.003265
2318.688232	85.406227
2317.956299	105.886551
2317.224365	71.717972
2316.492188	81.950111
2315.760010	58.038589
2315.027588	75.096588
2314.295166	71.671486
2313.562500	88.721733
2312.829590	105.766457
2312.096924	92.104233
2311.363770	109.142876
2310.630615	88.664200
2309.897461	105.697868
2309.164063	95.453560
2308.430664	74.987061
2307.697021	98.830544
2306.963379	78.370132
2306.229492	98.798485
2305.495605	78.344704
2304.761719	81.737732
2304.027344	98.750404
2303.293213	105.543648
2302.558838	74.889793
2301.824219	115.719986
2301.089600	47.641670
2300.354736	95.267883
2299.619873	91.850548
2298.885010	64.625076
2298.149658	81.618423
2297.414551	98.606255
2296.679199	132.586884
2295.943604	67.982231
2295.208008	84.963997
2294.472412	78.154182
2293.736572	57.756756
2293.000488	84.922615
2292.264404	88.305176
2291.528320	115.457245
2290.791992	84.881241
2290.055420	95.051552
2289.318848	108.612694
2288.582275	98.414268
2287.845459	71.253922
2287.108398	111.952263
2286.371582	78.014656
2285.634277	98.350319
2284.896973	98.334343
2284.159668	91.537781
2283.422119	101.692123
2282.684570	98.286407
2281.946777	67.772713
2281.208740	94.866371
2280.470703	88.075882
2279.732666	118.544418
2278.994385	84.660820
2278.256104	101.576462
2277.517578	121.871941
2276.779053	77.849968
2276.040283	104.911156
2275.301514	94.743050
2274.562500	67.662605
2273.823486	94.712234
2273.084229	104.842918
2272.344971	81.155510
2271.605469	91.285095
2270.865967	74.368347
2270.126221	98.015060
2269.386475	94.619835
2268.646484	108.119354
2267.906494	124.992668
2267.166260	101.328911
2266.426025	114.820747
2265.685547	84.413277
2264.945068	101.279449
2264.204346	87.761238
2263.463623	80.997185
2262.722656	94.481331
2261.981689	87.718384
2261.240723	84.330872
2260.499268	104.553253
2259.758057	111.280502
2259.016602	87.661270
2258.274902	104.502190
2257.533203	80.891747
2256.791260	111.208031
2256.049316	64.018440
2255.307129	114.540657
2254.564941	90.943939
2253.822754	97.664612
2253.080322	107.750298
2252.337646	107.732742
2251.594971	90.884689
2250.852051	124.525391
2250.109131	90.855072
2249.366211	77.382454
2248.623047	111.008904
2247.879639	73.993874
2247.136230	94.158676
2246.392578	70.607498
2245.648926	107.574837
2244.905273	84.029144
2244.161377	100.818527
2243.417236	110.882301
2242.673096	104.145180
2241.928955	94.051277
2241.184570	100.752792
2240.439941	94.020607
2239.695313	107.434601
2238.950439	100.703514
2238.205566	114.112030
2237.460693	127.516174
2236.715576	93.943962
2235.970215	110.701607
2235.224854	120.745689
2234.479492	103.958488
2233.733887	107.294479
2232.988037	113.981781
2232.242188	124.018761
2231.496338	77.080162
2230.750244	100.522934
2230.003906	110.557182
2229.257568	97.140457
2228.511230	100.473724
2227.764648	110.503052
2227.017822	100.440926
2226.270996	83.687103
2225.523926	97.061195
2224.776855	80.313393
2224.029785	97.029503
2223.282471	70.251266
2222.534912	103.687317
2221.787354	107.014595
2221.039795	73.560516
2220.291992	76.891617
2219.543945	140.387848
2218.795898	103.602669
2218.047852	123.634598
2217.299561	120.273476
2216.551025	150.317276
2215.802490	86.835793
2215.053955	106.857361
2214.305176	113.517395
2213.556152	83.455032
2212.807129	146.856857
2212.058105	110.124634
2211.308838	73.404427
2210.559326	100.080582
2209.809814	116.741592
2209.060303	93.378006
2208.310547	110.034660
2207.560547	106.682831
2206.810547	103.332092
2206.060303	79.985962
2205.310059	93.301697
2204.559814	109.944725
2203.809326	109.926750
2203.058594	133.222748
2202.307861	116.550842
2201.557129	139.838135
2200.806152	99.868042
2200.054932	119.822044
2199.303711	123.130287
2198.552246	133.092041
2197.800781	103.129456
2197.049316	99.786369
2196.297607	143.003723
2195.545654	73.152725
2194.793701	99.737389
2194.041504	119.665276
2193.289307	96.381248
2192.537109	112.980209
2191.784668	126.251335
2191.031982	129.552521
2190.279297	122.888680
2189.526367	86.340073
2188.773438	136.129364
2188.020508	89.631485
2187.267090	119.489075
2186.513916	129.425293
2185.760498	106.177727
2185.006836	119.430374
2184.253174	145.946548
2183.499268	122.707680
2182.745361	122.687576
2181.991211	106.090790
2181.237061	119.332588
2180.482666	102.741776
2179.728271	99.411240
2178.973877	102.708115
2178.218994	89.440796
2177.464355	115.922768
2176.709229	112.592232
2175.954346	99.329803
2175.198975	122.486679
2174.443848	99.297241
2173.688232	99.280968
2172.932861	125.735275
2172.177002	122.406380
2171.421387	135.617264
2170.665283	115.751854
2169.909424	99.199600
2169.153076	138.856674
2168.396729	112.389343
2167.640381	109.065887
2166.883789	161.919754
2166.127197	115.637993
2165.370361	95.798622
2164.613525	85.874329
2163.856445	118.883408
2163.099365	85.846153
2162.342041	135.350571
2161.584473	95.720062
2160.826904	99.004501
2160.069336	151.781998
2159.311523	115.467346
2158.553711	105.552818
2157.795654	151.707275
2157.037354	95.625839
2156.279053	98.907043
2155.520752	108.779884
2154.762207	118.649483
2154.003662	95.563057
2153.244873	121.905266
2152.485840	118.591049
2151.726807	111.984268
2150.967773	131.724564
2150.208252	131.702927
2149.448975	98.760971
2148.689453	108.619225
2147.929688	111.892334
2147.169922	121.745186
2146.410156	101.985962
2145.650146	124.994514
2144.889893	128.262756
2144.129639	124.953438
2143.369141	118.357491
2142.608643	98.615036
2141.847900	88.738945
2141.087158	118.299149
2140.326416	160.991821
2139.565186	105.120232
2138.804199	128.094223
2138.042725	137.924942
2137.281494	111.635170
2136.519775	137.879593
2135.758301	118.163086
2134.996338	131.270721
2134.234619	118.124222
2133.472412	131.227554
2132.710449	108.244926
2131.947998	85.269852
2131.185547	111.488396
2130.423096	127.862709
2129.660400	121.285690
2128.897705	111.433380
2128.134766	124.522705
2127.371826	111.396721
2126.608643	121.205894
2125.845215	101.534172
2125.081787	137.539795
2124.318359	111.323410
2123.554688	117.852448
2122.790771	117.833054
2122.026855	137.449265
2121.262939	130.882523
2120.498779	130.860962
2119.734375	157.007309
2118.969971	147.170120
2118.205322	127.526436
2117.440674	140.582916
2116.676025	147.097427
2115.911133	130.731735
2115.145996	153.584503
2114.380859	130.688690
2113.615479	130.667160
2112.850098	143.710205
2112.084473	156.748932
2111.318848	137.132721
2110.552979	153.432770
2109.787109	107.711639
2109.020996	150.118759
2108.254883	123.990715
2107.488525	107.658401
2106.722168	110.902496
2105.955566	120.668121
2105.188965	114.126709
2104.422119	123.888573
2103.655029	130.387527
2102.887939	133.625183
2102.120850	107.534248
2101.353516	107.516518
2100.585938	110.756332
2099.818359	136.794083
2099.050781	117.232742
2098.282959	126.981194
2097.514893	136.726425
2096.746826	130.194168
2095.978760	169.224503
2095.210449	156.181458
2094.441895	165.915436
2093.673340	107.339333
2092.904541	123.582474
2092.135742	97.549019
2091.366699	149.550476
2090.597656	133.272995
2089.828369	120.250908
2089.059082	136.478500
2088.289551	120.211220
2087.520020	136.433456
2086.750244	116.923660
2085.980469	142.883102
2085.210449	110.391449
2084.440186	123.358307
2083.670166	146.058090
2082.899658	152.524368
2082.129150	126.541878
2081.358643	142.741623
2080.587891	120.012909
2079.816895	103.777802
2079.045898	119.973267
2078.274902	123.195435
2077.503662	126.416534
2076.732178	132.877487
2075.960693	149.057434
2075.188965	174.951553
2074.417236	136.050949
2073.645264	123.073372
2072.873291	142.482468
2072.101074	90.655678
2071.328857	139.198212
2070.556396	145.648468
2069.783936	119.735619
2069.011230	126.186951
2068.238525	100.285866
2067.465576	126.145233
2066.692627	122.890427
2065.919434	113.169838
2065.145996	106.685349
2064.372559	161.617737
2063.599121	119.577347
2062.825439	103.401146
2062.051514	155.076065
2061.277588	116.287811
2060.503662	138.876358
2059.729248	161.457428
2058.955078	145.287643
2058.180664	151.719772
2057.406006	142.012039
2056.631348	132.307495
2055.856445	141.965042
2055.081543	122.585884
2054.306396	119.340195
2053.531250	119.320442
2052.755859	119.300697
2051.980225	161.190475
2051.204590	125.707756
2050.428955	145.023407
2049.653076	138.554977
2048.877197	125.645340
2048.101074	132.066818
2047.324707	138.486176
2046.548340	128.803009
2045.771851	115.903519
2044.995239	122.322342
2044.218506	125.520561
2043.441528	170.550964
2042.664551	135.131210
2041.887329	147.976334
2041.110107	160.817200
2040.332642	125.416641
2039.555176	144.687531
2038.777466	141.448807
2037.999634	157.496445
2037.221802	134.974579
2036.443726	125.312767
2035.665527	157.418152
2034.887207	154.179977
2034.108765	128.462021
2033.330200	144.495819
2032.551514	157.313812
2031.772705	134.818054
2030.993774	134.795715
2030.214600	131.564468
2029.435425	154.001160
2028.656128	125.105194
2027.876587	115.462570
2027.097046	121.856949
2026.317261	121.836739
2025.537476	137.845016
2024.757446	150.642822
2023.977295	179.459549
2023.197021	115.347717
2022.416626	153.771439
2021.636230	144.136810
2020.855591	137.707870
2020.074707	115.271187
2019.293823	137.662186
2018.512817	150.442993
2017.731689	160.019180
2016.950439	115.194687
2016.168945	140.770142
2015.387451	108.758865
2014.605713	118.335594
2013.823975	150.293228
2013.041992	175.845856
2012.260010	179.013336
2011.477783	147.022247
2010.695435	169.367081
2009.912964	140.583282
2009.130371	124.587212
2008.347656	162.894684
2007.564819	150.093689
2006.781860	146.875809
2005.998779	169.198364
2005.215576	159.594589
2004.432129	143.611267
2003.648682	143.587402
2002.864990	149.944153
2002.081299	114.831757
2001.297363	124.380402
2000.513428	175.379105
1999.729248	143.468140
1998.944946	124.318398
1998.160522	124.297729
1997.375977	162.516174
1996.591309	149.744904
1995.806519	136.977890
1995.021606	152.880127
1994.236572	149.670227
1993.451416	171.932953
1992.666016	175.087784
1991.880615	155.961349
1991.094971	152.753067
1990.309326	146.363998
1989.523438	136.795776
1988.737549	168.580688
1987.951416	139.930496
1987.165161	139.907227
1986.378784	158.959030
1985.592285	123.967415
1984.805664	143.015533
1984.018921	104.860603
1983.232056	196.978043
1982.444946	139.767609
1981.657837	165.152405
1980.870605	133.370132
1980.083130	149.222687
1979.295654	123.802467
1978.507935	165.042480
1977.720093	165.014999
1976.932129	155.469025
1976.144165	168.132370
1975.355957	158.589035
1974.567627	158.562622
1973.779053	168.048386
1972.990479	164.850204
1972.201782	139.465408
1971.412964	193.317566
1970.623901	142.587555
1969.834839	158.404236
1969.045532	155.210281
1968.256226	158.351456
1967.466675	158.325073
1966.677002	145.634796
1965.887207	139.279633
1965.097290	151.916107
1964.307251	170.877136
1963.517090	145.537750
1962.726807	173.983521
1961.936401	145.489227
1961.145874	180.250076
1960.355103	148.602478
1959.564331	148.577713
1958.773315	158.035034
1957.982178	167.489212
1957.191040	170.620926
1956.399658	142.160400
1955.608154	170.564026
1954.816528	154.745255
1954.024780	132.616669
1953.232910	116.809479
1952.440918	157.824326
1951.648682	186.201630
1950.856445	157.771667
1950.063965	135.660995
1949.271484	173.490921
1948.478760	135.615723
1947.685913	154.513062
1946.893066	182.862488
1946.099976	179.679703
1945.306763	179.649704
1944.513428	170.166061
1943.719971	166.986954
1942.926270	160.658737
1942.132568	176.380142
1941.338745	157.455978
1940.544678	182.618439
1939.750610	198.328293
1938.956299	157.377121
1938.161865	129.027679
1937.367310	147.885086
1936.572632	169.882141
1935.777832	169.853775
1934.982910	160.390656
1934.187866	154.075089
1933.392700	154.049347
1932.597290	141.450256
1931.801880	185.426010
1931.006226	141.402985
1930.210571	138.237595
1929.414673	157.061920
1928.618652	160.176392
1927.822510	157.009430
1927.026245	153.843521
1926.229858	147.539536
1925.433350	156.930710
1924.636719	160.042572
1923.839844	150.603119
1923.042969	166.263138
1922.245850	116.051086
1921.448730	153.663574
1920.651367	178.721619
1919.853882	188.096558
1919.056274	197.468353
1918.258545	178.631958
1917.460693	194.268936
1916.662720	169.173676
1915.864624	209.865555
1915.066284	153.458084
1914.267944	156.563675
1913.469360	169.060486
1912.670776	178.422867
1911.871948	162.744507
1911.072998	156.458908
1910.273926	168.947342
1909.474731	150.150284
1908.675415	168.890793
1907.875977	171.989609
1907.076294	200.099869
1906.276611	165.679962
1905.476807	156.275681
1904.676758	184.374420
1903.876587	162.472290
1903.076294	174.940857
1902.275879	193.652084
1901.475342	190.496750
1900.674683	159.241104
1899.873901	174.823685
1899.072998	168.551743
1898.271851	146.677872
1897.470703	187.216980
1896.669312	168.467041
1895.867920	152.842636
1895.066284	190.241592
1894.264526	162.145996
1893.462646	193.295517
1892.660645	183.911682
1891.858521	174.530975
1891.056152	149.572906
1890.253784	193.165955
1889.451172	152.637833
1888.648560	180.643051
1887.845703	177.498764
1887.042725	155.674561
1886.239624	155.648453
1885.436401	192.971725
1884.633057	152.484329
1883.829590	177.349991
1883.025879	177.320251
1882.222168	149.297272
1881.418213	202.139465
1880.614258	195.886932
1879.810059	189.636475
1879.005737	192.712936
1878.201294	180.249588
1877.396729	180.219345
1876.592041	161.548859
1875.787231	198.795990
1874.982178	183.234299
1874.177124	189.413834
1873.371826	170.754303
1872.566406	201.766678
1871.760986	158.282654
1870.955322	183.080566
1870.149536	186.152374
1869.343506	145.794876
1868.537476	173.683884
1867.731323	167.452759
1866.924927	195.328751
1866.118530	198.395874
1865.311890	167.368408
1864.505127	148.746933
1863.698242	201.394302
1862.891235	185.871201
1862.084106	188.937317
1861.276855	188.905579
1860.469482	151.718323
1859.661865	213.608276
1858.854126	191.905624
1858.046387	188.778641
1857.238403	198.029541
1856.430298	170.153046
1855.622070	173.217621
1854.813721	194.837067
1854.005249	210.264969
1853.196533	207.138016
1852.387817	222.558640
1851.578857	207.068359
1850.769775	157.592697
1849.960693	176.103409
1849.151367	185.340836
1848.341919	176.044174
1847.532227	194.542419
1846.722534	175.984970
1845.912720	188.303116
1845.102661	228.394852
1844.292603	197.497452
1843.482300	148.098175
1842.671875	172.752136
1841.861328	169.638718
1841.050659	185.029282
1840.239868	184.998154
1839.428833	178.801453
1838.617798	209.594009
1837.806519	187.986511
1836.995117	197.198547
1836.183716	194.084641
1835.372070	181.731216
1834.560303	218.656677
1833.748291	197.065781
1832.936279	187.796707
1832.124146	166.218262
1831.311768	181.578262
1830.499390	218.472641
1829.686768	190.746796
1828.874023	199.942795
1828.061157	166.078354
1827.248169	215.250488
1826.434937	190.618301
1825.621704	193.660172
1824.808228	215.141708
1823.994751	162.865555
1823.181030	181.272629
1822.367188	208.889175
1821.553223	205.782593
1820.739136	211.889633
1819.924927	147.376648
1819.110474	181.119919
1818.296021	193.366638
1817.481323	196.402832
1816.666626	211.711105
1815.851685	193.268860
1815.036621	174.832809
1814.221436	150.269531
1813.406006	202.369736
1812.590576	211.532669
1811.774902	180.845261
1810.959229	205.332016
1810.143311	214.489792
1809.327271	205.262756
1808.511108	165.407745
1807.694824	189.880554
1806.878418	199.034729
1806.061768	220.432037
1805.245117	189.784454
1804.428223	156.086670
1803.611206	186.660400
1802.794067	183.569412
1801.976807	214.128159
1801.159424	177.390533
1800.341919	217.113815
1799.524170	180.388062
1798.706421	162.016159
1797.888428	183.383560
1797.070313	174.184967
1796.252075	198.598434
1795.433716	152.742233
1794.615234	204.640030
1793.796509	192.390213
1792.977783	213.730789
1792.158813	201.483566
1791.339844	177.031403
1790.520630	204.467255
1789.701294	176.971603
1788.881714	161.688110
1788.062134	207.413834
1787.242432	210.428482
1786.422485	155.507813
1785.602417	198.162735
1784.782349	228.610657
1783.962036	210.286255
1783.141479	222.439163
1782.320923	207.168579
1781.500244	210.179642
1780.679321	213.189667
1779.858398	197.928375
1779.037231	203.983978
1778.215942	194.817413
1777.394531	182.610443
1776.572998	219.095474
1775.751221	185.591156
1774.929443	200.769592
1774.107422	185.528381
1773.285278	170.292328
1772.463013	221.950653
1771.640625	164.154907
1770.818115	179.324081
1769.995483	221.838028
1769.172607	215.723755
1768.349731	185.308762
1767.526611	185.277405
1766.703369	185.246048
1765.880005	203.432541
1765.056519	170.004379
1764.232910	182.116714
1763.409058	203.329239
1762.585083	172.952301
1761.761108	209.327866
1760.936890	178.960190
1760.112549	212.289703
1759.288086	239.543518
1758.463379	206.154434
1757.638672	239.462387
1756.813721	209.115265
1755.988647	212.109985
1755.163574	187.837021
1754.338257	196.892548
1753.512695	202.916397
1752.687134	202.882019
1751.861328	205.875214
1751.035522	202.813263
1750.209473	211.858551
1749.383301	172.484161
1748.557007	220.863327
1747.730591	172.425690
1746.903931	178.445465
1746.077271	211.679062
1745.250366	208.619705
1744.423340	247.882843
1743.596313	190.414276
1742.768921	223.623291
1741.941528	223.585373
1741.114014	202.401077
1740.286255	199.346344
1739.458374	220.451752
1738.630493	190.220612
1737.802368	178.112900
1736.973999	208.266190
1736.145630	178.052460
1735.317139	214.230179
1734.488403	211.177017
1733.659546	220.190094
1732.830566	253.326416
1732.001465	217.100082
1731.172241	211.033707
1730.342896	204.969376
1729.513306	213.975815
1728.683594	210.926270
1727.853882	216.915894
1727.023926	210.854660
1726.193726	195.760361
1725.363525	219.816620
1724.533203	231.821991
1723.702637	213.721649
1722.871948	240.772232
1722.041138	234.713058
1721.210205	240.690445
1720.379150	243.657684
1719.547974	234.593475
1718.716553	201.475540
1717.885010	195.428146
1717.053467	165.334183
1716.221558	198.367310
1715.389648	204.343704
1714.557617	201.304443
1713.725342	183.246033
1712.893066	216.253632
1712.060547	210.210846
1711.227905	207.172623
1710.395142	237.157318
1709.562256	198.097748
1708.729126	216.069901
1707.895874	231.035461
1707.062622	245.995926
1706.229126	233.956329
1705.395508	206.926178
1704.561646	239.873611
1703.727783	191.866257
1702.893677	230.799820
1702.059570	233.757446
1701.225220	236.714066
1700.390747	209.710968
1699.556030	197.693832
1698.721313	209.639603
1697.886353	233.558670
1697.051392	203.580612
1696.216187	209.532608
1695.380859	242.417892
1694.545410	239.384338
1693.709717	218.401031
1692.874023	242.294128
1692.038086	206.363571
1691.202026	230.250580
1690.365845	242.170410
1689.529541	200.279694
1688.692993	215.189285
1687.856445	203.199722
1687.019653	242.005508
1686.182739	221.053802
1685.345703	253.869904
1684.508545	206.047516
1683.671143	247.812042
1682.833740	232.843933
1681.996094	205.942230
1681.158325	235.748764
1680.320435	247.643204
1679.482422	214.786423
1678.644287	181.940811
1677.805908	247.516632
1676.967407	232.566345
1676.128784	220.602264
1675.290039	199.700439
1674.451172	232.447449
1673.612183	211.550705
1672.772949	259.179901
1671.933594	214.457153
1671.094116	247.179276
1670.254517	214.384018
1669.414795	250.072037
1668.574829	250.029388
1667.734863	247.010712
1666.894653	232.090958
1666.054321	223.126312
1665.213867	223.088257
1664.373169	240.894211
1663.532471	240.853119
1662.691528	220.001099
1661.850464	202.128677
1661.009277	231.813919
1660.167969	228.802902
1659.326538	213.909058
1658.484863	279.222504
1657.643066	246.505432
1656.801147	237.555054
1655.959106	273.141663
1655.116943	231.537094
1654.274658	213.690063
1653.432129	195.849106
1652.589478	216.584000
1651.746704	249.177383
1650.903809	240.237167
1650.060791	263.919220
1649.217529	231.260468
1648.374146	222.327866
1647.530640	248.964661
1646.687012	219.288544
1645.843262	231.102493
1644.999390	266.611176
1644.155273	233.985367
1643.311035	254.674728
1642.466675	245.748718
1641.622192	260.508331
1640.777588	230.865646
1639.932739	266.337921
1639.087769	254.457169
1638.242798	254.413681
1637.397461	257.327972
1636.552124	257.283966
1635.706665	215.845047
1634.860962	233.545792
1634.015137	268.975098
1633.169189	265.973846
1632.323120	239.335526
1631.476929	259.974365
1630.630493	277.652405
1629.783936	259.885437
1628.937256	221.455383
1628.090454	265.700989
1627.243530	268.607269
1626.396484	292.171082
1625.549194	253.761765
1624.701782	212.415359
1623.854248	289.071411
1623.006592	262.479126
1622.158691	238.844604
1621.310791	271.233856
1620.462646	268.239746
1619.614380	250.510712
1618.765991	274.041260
1617.917358	250.424942
1617.068726	256.273407
1616.219849	268.010193
1615.370850	265.019623
1614.521729	256.141785
1613.672363	232.548676
1612.822998	253.110886
1611.973389	317.805725
1611.123657	253.024185
1610.273804	258.864105
1609.423828	297.054504
1608.573608	249.953522
1607.723389	238.150192
1606.872925	282.203705
1606.022339	276.277130
1605.171509	270.352539
1604.320679	249.739426
1603.469604	261.447052
1602.618408	270.213562
1601.767090	246.674423
1600.915649	258.376526
1600.064087	273.010193
1599.212280	293.509003
1598.360352	258.243652
1597.508301	299.276520
1596.656128	278.690155
1595.803833	252.244659
1594.951294	240.471100
1594.098633	252.158127
1593.245850	255.046448
1592.392944	298.968658
1591.539795	257.889496
1590.686646	263.705383
1589.833252	313.462585
1588.979736	301.692596
1588.126099	266.498199
1587.272217	301.589050
1586.418335	283.972015
1585.564209	289.777374
1584.709961	292.654175
1583.855591	292.603912
1583.000977	283.777069
1582.146362	280.803314
1581.291504	277.830597
1580.436523	277.782867
1579.581421	292.352814
1578.726074	303.994720
1577.870605	260.104645
1577.015137	298.046265
1576.159424	274.622894
1575.303467	295.022858
1574.447510	257.005463
1573.591309	259.881317
1572.734985	268.595215
1571.878540	280.225098
1571.021973	248.073349
1570.165161	291.800842
1569.308350	291.750702
1568.451294	262.530487
1567.594116	279.984406
1566.736694	274.104279
1565.879272	262.395142
1565.021606	271.095032
1564.163818	279.791931
1563.305908	259.345825
1562.447876	247.647247
1561.589600	282.560608
1560.731201	302.899506
1559.872681	259.167480
1559.014038	250.388443
1558.155273	270.722321
1557.296265	276.496735
1556.437134	296.819092
1555.577881	285.130066
1554.718506	282.172028
1553.859009	308.299896
1552.999268	302.430847
1552.139404	279.118896
1551.279419	284.884857
1550.419312	290.648804
1549.558960	278.974823
1548.698608	267.304840
1547.838013	270.163818
1546.977173	261.403839
1546.116333	270.070801
1545.255249	267.120819
1544.394165	264.171844
1543.532837	296.053711
1542.671265	261.178894
1541.809692	214.710098
1540.947876	272.692871
1540.085938	237.840042
1539.223877	255.199005
1538.361694	307.345856
1537.499268	284.100983
1536.636841	272.458069
1535.774170	307.187012
1534.911377	275.261688
1534.048340	254.935303
1533.185303	251.994888
1532.322021	295.391357
1531.458618	272.176483
1530.594971	286.604553
1529.731323	269.188171
1528.867432	300.975739
1528.003418	243.053879
1527.139282	309.550964
1526.275024	300.820068
1525.410522	277.632202
1524.545898	294.933350
1523.681152	277.536438
1522.816284	291.941101
1521.951172	268.770691
1521.086060	288.950897
1520.220703	314.902130
1519.355225	288.851196
1518.489502	274.361298
1517.623779	256.988861
1516.757813	277.153656
1515.891724	303.084503
1515.025513	297.260132
1514.159058	236.612869
1513.292480	326.007782
1512.425781	276.914551
1511.558960	288.402863
1510.692017	302.770752
1509.824829	279.654205
1508.957520	265.193237
1508.090088	262.265411
1507.222534	293.917084
1506.354736	282.342133
1505.486938	270.771210
1504.618896	282.244629
1503.750610	270.677673
1502.882324	282.147125
1502.013794	287.855499
1501.145142	287.805756
1500.276367	270.490692
1499.407471	261.812744
1498.538330	281.903473
1497.669067	276.102631
1496.799683	250.174759
1495.930176	313.383179
1495.060547	275.959503
1494.190674	275.911804
1493.320679	293.105591
1492.450562	304.547272
1491.580200	324.602783
1490.709717	292.953613
1489.839233	290.031372
1488.968384	275.625702
1488.097534	272.707428
1487.226440	258.309723
1486.355347	286.961151
1485.483887	278.304199
1484.612427	295.467743
1483.740845	281.076019
1482.869019	298.233154
1481.997070	266.643127
1481.124878	269.463623
1480.252686	278.015411
1479.380249	269.370392
1478.507690	300.840363
1477.635010	297.923645
1476.762207	257.773926
1475.889160	300.684174
1475.015991	280.589996
1474.142700	277.678741
1473.269165	314.838898
1472.395630	300.476013
1471.521851	291.840454
1470.647949	308.954010
1469.773804	268.857849
1468.899658	265.951599
1468.025269	300.215912
1467.150757	305.881348
1466.276001	274.388062
1465.401245	300.059937
1464.526245	311.436829
1463.651123	274.245453
1462.775879	302.760223
1461.900391	342.688049
1461.024780	262.681976
1460.149048	299.748108
1459.273193	316.821655
1458.397217	316.766754
1457.520996	330.978149
1456.644653	285.276520
1455.768188	319.454315
1454.891479	316.547150
1454.014648	270.871765
1453.137695	296.481873
1452.260620	265.077240
1451.383423	287.829651
1450.505981	319.122070
1449.628418	264.939331
1448.750732	299.073181
1447.872803	264.847443
1446.994873	310.358734
1446.116699	318.845398
1445.238403	293.173004
1444.359863	310.197205
1443.481201	295.916626
1442.602417	318.624146
1441.723511	304.347015
1440.844482	338.420654
1439.965210	284.337738
1439.085815	309.874329
1438.206299	292.766205
1437.326538	306.924866
1436.446777	292.664551
1435.566772	295.454651
1434.686646	284.041687
1433.806274	289.672180
1432.925781	275.424744
1432.045166	281.054779
1431.164429	272.490631
1430.283569	315.012543
1429.402466	280.908325
1428.521240	309.229187
1427.639893	292.156616
1426.758301	252.402161
1425.876709	314.739014
1424.994873	272.159393
1424.112793	300.457123
1423.230713	297.570892
1422.348389	300.352692
1421.465942	317.298615
1420.583374	266.257904
1419.700562	254.883469
1418.817627	274.659973
1417.934570	317.078033
1417.051392	297.208954
1416.167969	299.987335
1415.284546	322.571808
1414.400757	282.908508
1413.516968	330.945374
1412.633057	299.778717
1411.748901	288.416138
1410.864624	285.538818
1409.980103	274.182648
1409.095459	330.657623
1408.210815	322.123169
1407.325806	372.919800
1406.440796	302.238464
1405.555542	302.185852
1404.670166	321.898987
1403.784668	302.080658
1402.899048	270.978485
1402.013184	287.864502
1401.127197	284.992676
1400.241089	315.976471
1399.354736	341.307983
1398.468262	310.225983
1397.581665	301.712708
1396.694946	341.129730
1395.807983	324.157745
1394.920898	304.373383
1394.033691	315.591461
1393.146362	335.257538
1392.258789	326.748718
1391.371094	304.161316
1390.483276	326.634888
1389.595337	315.316650
1388.707153	298.372681
1387.818848	329.278503
1386.930420	309.524109
1386.041748	258.829590
1385.152954	320.667725
1384.264038	354.360443
1383.375000	312.120270
1382.485718	312.065857
1381.596313	295.145966
1380.706787	326.009155
1379.817139	297.852966
1378.927246	328.704895
1378.037231	359.546051
1377.147095	320.164856
1376.256714	348.188751
1375.366333	308.823242
1374.475586	314.383362
1373.584839	328.361023
1372.693970	339.527802
1371.802856	286.163574
1370.911499	316.969055
1370.020142	322.522827
1369.128540	319.662476
1368.236816	305.588837
1367.344971	322.353973
1366.453003	294.271820
1365.560791	361.470856
1364.668457	310.978760
1363.775879	302.521088
1362.883301	333.275238
1361.990479	313.616028
1361.097534	296.763336
1360.204346	324.703156
1359.311035	316.250427
1358.417603	332.984314
1357.524048	324.533051
1356.630249	302.098694
1355.736450	327.216400
1354.842285	380.287659
1353.948120	329.897827
1353.053711	329.840179
1352.159180	321.398224
1351.264526	349.284851
1350.369751	310.110748
1349.474731	326.816345
1348.579590	357.480194
1347.684204	304.363495
1346.788818	340.604187
1345.893188	323.796539
1344.997314	309.785614
1344.101440	306.941071
1343.205322	329.206482
1342.309082	368.200470
1341.412720	370.924988
1340.516113	345.764313
1339.619385	373.583191
1338.722534	351.218262
1337.825439	345.582916
1336.928223	362.241272
1336.030884	309.244202
1335.133423	334.259552
1334.235718	356.481140
1333.337891	334.142578
1332.439941	348.004272
1331.541870	356.294006
1330.643555	336.750244
1329.745117	361.734436
1328.846436	350.542786
1327.947754	339.355011
1327.048828	305.922272
1326.149780	358.700562
1325.250488	350.297333
1324.351074	325.219147
1323.451538	327.941345
1322.551880	297.318451
1321.651978	338.939240
1320.751953	344.435272
1319.851807	352.706604
1318.951416	347.091339
1318.050903	344.254303
1317.150269	363.624268
1316.249512	341.358398
1315.348511	344.073364
1314.447388	330.141571
1313.546021	338.405151
1312.644653	335.572510
1311.743042	371.560608
1310.841309	374.267822
1309.939331	360.342865
1309.037231	335.337250
1308.135010	335.278442
1307.232666	321.367615
1306.330078	351.780426
1305.427368	343.410431
1304.524536	335.043335
1303.621460	312.836823
1302.718262	354.301697
1301.814941	348.704529
1300.911499	345.876343
1300.007813	356.881775
1299.104004	337.456879
1298.199951	351.225433
1297.295898	323.513123
1296.391602	315.162598
1295.487061	353.804657
1294.582520	339.924500
1293.677734	320.522919
1292.772827	328.754608
1291.867676	334.221191
1290.962402	345.209229
1290.057007	342.387421
1289.151489	336.805878
1288.245728	284.302582
1287.339844	328.408417
1286.433838	322.832214
1285.527588	317.257996
1284.621216	364.093048
1283.714722	319.904358
1282.808105	333.634705
1281.901245	297.737335
1280.994263	311.466736
1280.087036	333.458893
1279.179810	347.177155
1278.272217	333.341705
1277.364624	344.300751
1276.456787	349.748077
1275.548828	313.891907
1274.640747	311.083771
1273.732544	322.038971
1272.824097	319.230347
1271.915405	286.156219
1271.006714	352.130341
1270.097778	327.313599
1269.188721	288.755341
1268.279541	313.450653
1267.370117	343.635437
1266.460571	346.323608
1265.550781	329.773987
1264.640991	302.239624
1263.730957	315.922211
1262.820679	304.879974
1261.910400	313.064880
1260.999878	332.229675
1260.089233	332.171204
1259.178345	337.602234
1258.267334	312.844543
1257.356201	323.764557
1256.444824	279.815002
1255.533447	334.621796
1254.621704	315.366638
1253.709961	339.987640
1252.797974	301.548828
1251.885864	339.867920
1250.973633	320.625366
1250.061157	331.528503
1249.148560	309.554749
1248.235840	347.845367
1247.322876	334.091827
1246.409790	328.557007
1245.496582	287.436737
1244.583130	333.915283
1243.669556	328.383392
1242.755859	314.645294
1241.841919	289.969757
1240.927856	317.269501
1240.013672	306.275177
1239.099365	336.296478
1238.184814	328.036285
1237.270142	300.646942
1236.355225	281.465210
1235.440186	295.076538
1234.525024	308.683075
1233.609741	284.047607
1232.694214	316.766449
1231.778564	335.822418
1230.862671	330.303619
1229.946777	330.245361
1229.030640	354.746490
1228.114258	305.573822
1227.197876	324.614929
1226.281128	302.738647
1225.364380	308.139008
1224.447388	283.546936
1223.530273	335.289612
1222.613037	264.368713
1221.695557	329.721313
1220.777954	283.346832
1219.860229	359.569031
1218.942261	324.099701
1218.024170	367.611206
1217.105957	323.985260
1216.187500	299.429291
1215.268921	329.314087
1214.350220	307.486938
1213.431274	280.226196
1212.512207	320.979156
1211.593018	296.445313
1210.673706	318.146576
1209.754150	356.152466
1208.834351	290.851746
1207.914551	320.695740
1206.994507	309.769958
1206.074219	353.184021
1205.153931	320.525757
1204.233398	315.037445
1203.312744	320.412476
1202.391846	323.070740
1201.470825	336.585632
1200.549683	274.105957
1199.628296	312.045654
1198.706787	271.296082
1197.785156	306.510376
1196.863281	306.456177
1195.941284	298.267426
1195.019165	292.792572
1194.096802	325.267548
1193.174438	330.630188
1192.251709	273.670013
1191.328979	319.676727
1190.406006	330.454742
1189.482788	297.898285
1188.559570	292.430206
1187.636108	311.328918
1186.712402	324.807465
1185.788696	335.574982
1184.864746	284.105957
1183.940552	294.876831
1183.016357	297.529449
1182.091919	289.363770
1181.167236	324.462677
1180.242554	313.591705
1179.317505	283.804321
1178.392456	324.290344
1177.467163	291.809631
1176.541748	305.265259
1175.616211	305.211212
1174.690430	310.558167
1173.764526	334.803406
1172.838501	286.152191
1171.912231	278.004303
1170.985840	331.926880
1170.059204	342.660522
1169.132446	280.554169
1168.205566	299.384583
1167.278564	264.274658
1166.351318	328.936676
1165.423828	291.138245
1164.496338	318.039093
1163.568604	336.846100
1162.640747	299.066315
1161.712646	290.931854
1160.784424	290.880280
1159.856079	301.600128
1158.927490	331.162811
1157.998779	285.341736
1157.069946	317.588226
1156.140869	306.768127
1155.211670	317.475586
1154.282349	338.939209
1153.352783	301.225861
1152.423096	298.483368
1151.493164	309.184662
1150.563232	306.441711
1149.632935	301.012115
1148.702637	298.271576
1147.772095	330.458466
1146.841431	306.224213
1145.910522	341.083984
1144.979492	316.856415
1144.048340	346.332367
1143.116943	316.743896
1142.185425	335.474213
1141.253784	364.931152
1140.321899	284.381104
1139.389893	316.518982
1138.457764	327.190308
1137.525391	297.636688
1136.592896	335.116913
1135.660278	281.448181
1134.727417	348.397766
1133.794434	308.143250
1132.861206	294.693359
1131.927856	283.926758
1130.994385	337.437866
1130.060669	310.601898
1129.126831	310.546692
1128.192871	323.874725
1127.258667	331.845703
1126.324341	321.083893
1125.389893	291.599365
1124.455200	320.969727
1123.520386	291.495667
1122.585327	291.443848
1121.650146	320.798553
1120.714844	285.994507
1119.779297	312.667328
1118.843628	325.971191
1117.907837	293.856171
1116.971802	280.449158
1116.035645	272.387878
1115.099365	341.759247
1114.162842	285.638550
1113.226196	256.228241
1112.289307	328.234009
1111.352417	293.490356
1110.415161	293.438110
1109.477905	357.397339
1108.540405	301.333679
1107.602661	322.609589
1106.664917	309.223541
1105.726807	333.155701
1104.788696	303.783905
1103.850342	301.065521
1102.911865	322.322479
1101.973145	322.265076
1101.034302	292.916046
1100.095337	314.163086
1099.156128	306.121338
1098.216797	319.374054
1097.277344	321.978119
1096.337646	295.315735
1095.397827	281.962982
1094.457764	321.806030
1093.517700	316.430542
1092.577271	316.374146
1091.636841	300.368958
1090.696167	302.973083
1089.755249	292.290314
1088.814209	297.551636
1087.873047	308.123535
1086.931763	305.412842
1085.990234	305.358368
1085.048584	284.065399
1084.106689	305.249481
1083.164673	321.118256
1082.222412	294.527008
1081.280151	299.780304
1080.337524	318.293976
1079.394897	342.105011
1078.452026	310.225922
1077.509033	318.123657
1076.565796	318.066895
1075.622437	296.809448
1074.678955	296.756470
1073.735229	288.756104
1072.791382	286.055908
1071.847290	296.597595
1070.903076	267.419739
1069.958740	259.430267
1069.014160	322.906525
1068.069458	325.495178
1067.124512	306.916260
1066.179565	288.343933
1065.234253	304.161743
1064.288940	319.973907
1063.343384	314.628876
1062.397583	333.076935
1061.451660	301.301483
1060.505615	309.175232
1059.559448	324.972290
1058.613037	264.157898
1057.666382	311.650635
1056.719727	285.188599
1055.772827	282.497467
1054.825684	285.086639
1053.878418	319.345551
1052.931030	284.984741
1051.983398	282.295532
1051.035645	284.882843
1050.087769	305.930573
1049.139648	290.054718
1048.191406	353.276184
1047.242920	282.043213
1046.294312	289.899109
1045.345581	313.562042
1044.396606	281.891907
1043.447510	302.913757
1042.498291	342.362976
1041.548828	263.309021
1040.599121	331.709991
1039.649414	302.697021
1038.699341	339.486328
1037.749268	310.482300
1036.798950	294.642334
1035.848511	297.219849
1034.897827	318.204987
1033.947021	352.329224
1032.996094	297.060272
1032.044922	320.662506
1031.093506	304.837616
1030.142090	317.920258
1029.190430	323.117249
1028.238525	307.300385
1027.286499	357.139893
1026.334351	312.441437
1025.381958	317.635651
1024.429443	330.701843
1023.476807	265.038910
1022.523926	322.712311
1021.570923	322.654480
1020.617737	301.614777
1019.664368	312.049774
1018.710815	288.397675
1017.757080	272.618042
1016.803223	317.123749
1015.849121	275.140686
1014.894897	337.969391
1013.940491	301.236542
1012.985962	329.991272
1012.031189	274.943420
1011.076294	332.490997
1010.121216	319.343506
1009.165955	280.029724
1008.210510	300.912567
1007.254944	287.777771
1006.299133	337.424316
1005.343201	321.672424
1004.387085	311.155701
1003.430786	308.485596
1002.474365	303.202606
1001.517700	305.761536
1000.560913	308.319550
999.603943	316.101440
998.646790	329.104401
997.689514	297.707672
996.731995	308.098236
995.774353	281.937592
994.816528	326.258057
993.858521	292.274750
992.900330	281.785736
991.942017	289.561127
990.983459	276.468170
990.024780	336.396118
989.065918	281.583374
988.106873	323.241364
987.147705	289.301147
986.188293	294.460876
985.228760	310.040253
984.269043	317.799286
983.309143	291.697754
982.349060	317.685089
981.388794	325.438507
980.428406	327.983063
979.467834	309.706085
978.507019	346.079895
977.546082	288.781677
976.585022	304.336761
975.623718	296.479919
974.662292	301.627075
973.700623	345.768860
972.738831	301.518616
971.776855	322.255035
970.814758	337.787262
969.852417	345.520172
968.889954	316.886292
967.927246	283.068787
966.964417	327.158264
966.001404	311.523254
965.038208	290.702698
964.074890	306.220947
963.111328	360.652985
962.147644	285.357452
961.183777	316.430420
960.219727	347.492157
959.255493	308.538208
958.291077	334.405579
957.326538	318.794434
956.361755	303.188873
955.396851	279.816254
954.431763	323.803101
953.466492	295.255219
952.501038	323.686462
951.535461	344.340363
950.569641	297.684265
949.603699	302.806824
948.637573	297.577026
947.671265	313.046356
946.704773	279.362946
945.738098	312.933563
944.771240	305.119873
943.804260	299.894287
942.837097	305.009888
941.869751	302.370544
940.902222	302.316040
939.934509	304.844971
938.966614	294.458160
937.998535	284.075043
937.030334	340.828583
936.061951	309.788300
935.093323	314.894653
934.124573	319.999115
933.155640	309.620697
932.186584	345.680756
931.217285	301.771301
930.247864	335.240936
929.278198	304.240723
928.308411	311.919373
927.338440	322.172607
926.368286	298.922211
925.397949	316.903412
924.427429	283.358398
923.456787	301.335907
922.485901	298.706451
921.514893	296.077942
920.543701	329.488129
919.572327	298.544708
918.600769	308.783569
917.629028	334.455139
916.657104	280.377106
915.685059	326.618927
914.712769	285.418518
913.740356	298.221344
912.767761	318.730743
911.794983	303.253479
910.822021	287.781799
909.848877	300.574890
908.875549	333.911743
907.902039	297.898193
906.928406	285.006226
905.954590	318.327789
904.980530	325.970337
904.006348	295.116638
903.031982	318.155182
902.057434	318.097656
901.082703	330.864349
900.107849	325.675781
899.132751	305.105591
898.157532	322.994537
897.182068	289.617310
896.206482	322.877716
895.230713	292.074615
894.254761	330.445709
893.278625	274.041046
892.302307	271.430786
891.325806	345.627594
890.349182	284.131287
889.372314	342.943237
888.395325	304.498962
887.418091	327.469025
886.440735	322.293976
885.463196	314.563354
884.485474	306.835510
883.507568	317.005951
882.529480	319.504608
881.551270	322.002319
880.572815	293.837799
879.594238	319.331055
878.615417	316.719055
877.636475	293.678162
876.657349	334.477142
875.677979	319.099762
874.698486	270.547577
873.718811	318.984161
872.739014	318.926361
871.758972	336.725220
870.778748	280.553497
869.798401	277.952606
868.817810	339.091736
867.837097	323.735657
866.856140	318.579712
865.875061	315.973785
864.893799	277.700806
863.912354	343.878998
862.930725	297.974426
861.948914	338.661621
860.966919	315.687408
859.984741	330.902588
859.002441	305.393158
858.019897	343.504974
857.037231	325.634521
856.054321	340.836792
855.071289	330.602570
854.088074	302.573608
853.104614	325.398254
852.121033	292.296936
851.137268	330.362671
850.153320	309.976379
849.169189	327.702423
848.184937	342.882141
847.200439	330.122864
846.215759	363.069244
845.230896	324.926056
844.245911	340.095184
843.260681	312.120239
842.275330	329.823273
841.289795	329.763367
840.304016	372.818542
839.318115	337.250763
838.332031	314.372162
837.345764	304.175842
836.359314	311.723602
835.372681	298.997559
834.385864	352.145020
833.398865	326.751434
832.411743	316.562073
831.424377	319.036591
830.436829	293.662842
829.449158	296.140564
828.461243	318.862640
827.473206	331.455627
826.484924	321.276428
825.496521	328.805847
824.507935	303.457886
823.519104	336.271332
822.530151	376.656525
821.541016	323.511841
820.551697	341.141846
819.562195	323.394165
818.572510	338.491669
817.582642	290.443726
816.592590	338.368500
815.602356	325.683563
814.611938	313.003174
813.621399	330.612549
812.630615	338.122284
811.639648	310.309479
810.648560	343.043945
809.657227	368.200745
808.665771	317.704437
807.674072	368.066681
806.682251	367.999664
805.690186	342.731781
804.697998	385.503021
803.705566	342.606964
802.713013	264.464539
801.720276	337.445648
800.727356	370.115479
799.734253	327.253387
798.740906	334.744385
797.747437	332.166992
796.753784	332.106445
795.759949	339.592438
794.765930	319.410217
793.771729	321.866577
792.777344	331.864410
791.782776	309.180939
790.788025	304.098145
789.793091	354.297699
788.798035	334.134766
787.802734	329.050171
786.807251	371.683563
785.811584	338.973846
784.815796	356.485260
783.819763	311.240204
782.823547	333.769318
781.827148	371.344727
780.830627	328.630310
779.833862	326.062164
778.836975	318.479523
777.839844	293.348877
776.842529	343.431305
775.845093	370.938354
774.847412	333.282410
773.849609	305.661896
772.851563	303.101135
771.853394	328.090912
770.854980	323.022919
769.856445	327.971130
768.857666	307.886108
767.858765	367.894257
766.859680	365.324860
765.860352	362.756378
764.860901	317.666504
763.861206	300.102509
762.861389	347.555237
761.861389	337.491974
760.861145	354.926697
759.860779	322.374512
758.860168	319.817017
757.859436	302.271790
756.858521	324.695465
755.857361	339.619324
754.856079	314.589783
753.854614	324.517426
752.852905	306.987305
751.851074	321.903412
750.848999	316.854736
749.846802	324.280182
748.844421	354.148956
747.841797	329.148682
746.839050	363.991821
745.836121	334.013580
744.832947	326.475922
743.829651	323.924469
742.826111	333.830292
741.822449	353.695740
740.818604	326.237061
739.814514	331.157166
738.810303	323.628235
737.805847	348.458923
736.801270	333.463928
735.796448	320.962494
734.791504	310.953217
733.786316	325.819305
732.781006	325.759674
731.775452	308.296204
730.769775	315.697174
729.763855	362.860992
728.757751	295.702393
727.751526	362.728088
726.745056	308.014008
725.738403	337.759918
724.731628	327.765747
723.724609	335.153564
722.717407	342.538666
721.710083	352.402710
720.702515	317.600586
719.694763	327.465576
718.686829	332.366241
717.678711	342.224884
716.670410	371.915405
715.661987	337.141479
714.653320	307.337341
713.644470	329.583649
712.635437	369.165100
711.626221	339.371460
710.616821	317.018829
709.607178	339.246979
708.597412	314.426758
707.587463	378.728088
706.577332	331.635651
705.567017	311.779297
704.556458	331.513977
703.545776	351.241425
702.534912	326.446198
701.523804	343.694641
700.512573	341.159393
699.501099	348.511932
698.489502	338.562927
697.477661	331.088348
696.465698	335.968262
695.453491	348.256104
694.441101	325.967133
693.428589	362.942200
692.415833	353.001373
691.402893	323.319489
690.389771	365.209900
689.376465	333.069458
688.362976	333.008301
687.349304	347.744751
686.335449	320.556854
685.321411	355.013123
684.307190	342.623291
683.292725	354.882660
682.278137	401.633636
681.263367	349.825104
680.248352	344.834595
679.233215	352.159180
678.217834	315.161469
677.202332	310.180023
676.186584	347.042419
675.170654	369.126160
674.154541	346.914795
673.138306	346.851013
672.121826	356.625153
671.105164	349.182465
670.088318	329.449615
669.071289	317.098358
668.054016	358.820496
667.036621	363.668945
666.019043	309.553070
665.001282	343.884583
663.983276	346.277161
662.965149	370.767578
661.946777	343.694763
660.928223	333.813446
659.909546	346.022308
658.890625	353.319427
657.871521	338.535431
656.852234	343.378510
655.832764	328.601776
654.813110	338.348480
653.793274	360.348297
652.773254	318.616669
651.752991	321.008453
650.732605	330.749298
649.711975	320.890198
648.691223	335.525635
647.670227	335.463806
646.649048	320.712860
645.627747	335.340210
644.606201	337.725677
643.584473	318.088745
642.562561	347.386749
641.540466	344.876801
640.518127	359.486115
639.495667	325.189392
638.473022	337.352356
637.450134	347.066681
636.427063	317.678497
635.403870	368.927765
634.380432	305.347443
633.356812	341.926086
632.333008	329.653625
631.309021	339.358521
630.284851	346.618835
629.260498	363.638580
628.235901	341.610809
627.211182	314.711884
626.186218	351.241455
625.161133	341.421722
624.135803	355.988373
623.110291	333.982239
622.084595	368.043854
621.058716	324.111237
620.032654	345.979675
619.006409	353.223877
617.979919	365.336548
616.953308	379.879852
615.926453	348.158905
614.899414	345.660370
613.872253	382.103210
612.844849	335.799377
611.817261	321.140076
610.789490	340.540192
609.761475	340.477264
608.733337	325.825165
607.705017	347.644714
606.676453	352.441711
605.647705	320.784210
604.618774	335.303314
603.589722	303.660645
602.560425	310.891022
601.530884	337.545807
600.501221	342.339264
599.471375	313.146088
598.441284	325.223389
597.411011	368.841919
596.380615	380.904419
595.349976	351.725647
594.319153	373.487793
593.288147	363.719513
592.256897	368.500916
591.225525	361.161041
590.193970	327.165924
589.162170	341.643402
588.130188	365.805725
587.098022	348.783264
586.065674	302.707214
585.033142	399.499573
584.000427	341.327362
582.967468	358.206360
581.934387	348.460602
580.901062	338.718414
579.867554	333.817749
578.833862	328.918884
577.799988	384.473663
576.765930	367.479095
575.731628	331.153351
574.697205	350.425842
573.662537	340.695801
572.627747	359.959381
571.592712	359.892670
570.557434	362.240936
569.522034	333.199921
568.486450	354.864563
567.450623	349.971588
566.414673	359.559326
565.378479	352.254578
564.342102	340.128021
563.305542	352.123993
562.268799	327.945099
561.231812	318.240631
560.194702	351.928162
559.157349	325.352692
558.119812	346.978516
557.082092	337.277649
556.044189	351.667145
555.006042	366.051331
553.967773	329.866638
552.929260	308.139374
551.890625	336.964905
550.851746	351.341064
549.812683	336.839874
548.773376	351.210663
547.733948	324.689331
546.694275	317.415070
545.654419	363.036224
544.614441	336.527374
543.574158	367.708069
542.533752	326.790924
541.493164	379.583679
540.452332	336.277496
539.411316	341.018127
538.370178	324.147156
537.328735	345.692749
536.287170	331.227356
535.245422	345.564331
534.203430	345.500153
533.161255	323.846191
532.118896	347.770172
531.076355	371.685242
530.033630	306.883026
528.990723	333.193848
527.947571	345.115082
526.904236	321.089081
525.860718	328.216614
524.817017	316.179108
523.773132	296.961517
522.729004	347.188812
521.684692	304.032959
520.640198	335.092133
519.595520	323.064453
518.550659	337.360107
517.505615	327.728638
516.460327	301.358612
515.414856	351.519623
514.369202	370.580994
513.323364	317.923218
512.277283	325.033936
511.231079	344.089539
510.184631	327.302032
509.138000	341.572845
508.091187	322.403839
507.044159	303.241974
505.996948	315.121948
504.949554	300.742249
503.901947	329.323029
502.854126	324.489777
501.806152	336.356903
500.757965	305.288422
499.709564	348.154755
