#Wave		#Intensity
3200.600830	12.629557
3200.007080	50.518227
3199.413086	25.255297
3198.819092	16.834320
3198.224854	12.623831
3197.630615	29.451153
3197.036377	42.066715
3196.442139	12.618108
3195.847656	21.027000
3195.252930	16.819057
3194.658447	21.020641
3194.063721	50.441914
3193.468750	33.622856
3192.873779	46.224438
3192.278809	0.000000
3191.683838	4.200951
3191.088623	29.402208
3190.493164	25.198082
3189.897949	12.597136
3189.302490	-4.198410
3188.706787	29.384424
3188.111328	-4.197140
3187.515381	20.982525
3186.919678	25.175220
3186.323730	25.171412
3185.727783	12.583802
3185.131592	20.969830
3184.535400	29.353319
3183.939209	-16.770788
3183.342773	25.152374
3182.746338	33.531425
3182.149902	4.190794
3181.553223	25.140957
3180.956543	0.000000
3180.359619	-8.377783
3179.762695	25.129543
3179.165771	-16.750492
3178.568604	4.186989
3177.971436	29.304487
3177.374268	16.742886
3176.776855	16.740351
3176.179443	25.106726
3175.581787	8.367641
3174.984131	-4.183187
3174.386475	16.730215
3173.788574	12.545760
3173.190674	20.906435
3172.592773	25.083921
3171.994629	37.620182
3171.396484	33.435097
3170.798340	33.430035
3170.199951	37.603092
3169.601563	41.774883
3169.002930	8.353711
3168.404297	25.057335
3167.805664	20.877949
3167.206787	25.049744
3166.607910	29.220272
3166.008789	29.215845
3165.409912	20.865297
3164.810547	8.344854
3164.211426	8.343590
3163.612061	45.882790
3163.012695	20.852652
3162.413086	20.849491
3161.813477	-4.169266
3161.213623	8.337268
3160.614014	33.344017
3160.013916	12.502110
3159.414063	37.500645
3158.813965	29.162746
3158.213867	29.158325
3157.613525	16.659374
3157.013184	29.149483
3156.412598	-4.163580
3155.812256	12.488847
3155.211426	29.136223
3154.610840	29.131805
3154.010010	8.322110
3153.409180	16.641697
3152.808105	16.639172
3152.207031	4.159162
3151.605957	4.158531
3151.004639	20.789501
3150.403320	0.000000
3149.801758	41.566383
3149.200195	41.560078
3148.598633	29.087641
3147.996826	62.321198
3147.395020	54.003510
3146.793213	29.074400
3146.191162	45.681408
3145.589111	29.065575
3144.986816	20.757975
3144.384766	33.207718
3143.782227	16.601337
3143.179932	16.598818
3142.577393	37.341671
3141.974609	37.336002
3141.371826	20.739075
3140.769043	24.883110
3140.166260	4.146555
3139.563232	16.583702
3138.960205	41.452961
3138.356934	33.157333
3137.753662	12.432112
3137.150391	8.286816
3136.546875	8.285557
3135.943359	20.710747
3135.339600	33.132160
3134.735840	45.549801
3134.132080	0.000000
3133.528076	28.977430
3132.924072	-4.139004
3132.320068	45.522125
3131.715820	12.413239
3131.111572	16.548471
3130.507080	8.272978
3129.902588	20.679302
3129.298096	12.405696
3128.693604	8.269207
3128.088867	4.133975
3127.483887	12.400040
3126.878906	-8.265437
3126.273926	49.585083
3125.668945	33.051697
3125.063721	24.785004
3124.458252	37.171856
3123.853027	28.907047
3123.247559	24.773701
3122.641846	49.539871
3122.036133	37.149254
3121.430420	28.889469
3120.824707	24.758636
3120.218750	4.125812
3119.612549	28.876291
3119.006592	32.996456
3118.400391	8.247859
3117.793945	28.863117
3117.187500	-4.122675
3116.581055	24.732288
3115.974609	28.849947
3115.367920	45.328732
3114.760986	16.480667
3114.154297	28.836781
3113.547363	12.356740
3112.940186	32.946293
3112.333008	-12.352980
3111.725830	8.234066
3111.118408	32.931252
3110.510986	16.463121
3109.903564	32.921230
3109.295898	8.229054
3108.688232	12.341703
3108.080566	16.453100
3107.472656	53.464432
3106.864746	12.336067
3106.256592	69.893738
3105.648438	24.664623
3105.040039	20.550724
3104.431885	36.985668
3103.823486	16.435572
3103.214844	-4.108267
3102.606201	45.184059
3101.997559	24.642096
3101.388672	20.531952
3100.779785	16.423061
3100.170898	24.630838
3099.561768	57.463203
3098.952637	0.000000
3098.343262	16.413055
3097.733887	28.718472
3097.124512	4.102014
3096.514893	4.101389
3095.905273	28.705347
3095.295410	49.201668
3094.685791	8.199028
3094.075684	24.593336
3093.465820	32.786118
3092.855713	32.781120
3092.245361	53.261204
3091.635254	57.349476
3091.024658	57.340736
3090.414307	36.856281
3089.803711	16.378073
3089.193115	28.657257
3088.582275	45.025967
3087.971436	16.370583
3087.360596	-20.460108
3086.749512	24.548386
3086.138428	36.816963
3085.527100	40.901501
3084.915771	20.447632
3084.304443	44.977928
3083.692871	36.794510
3083.081299	28.613588
3082.469482	40.870319
3081.857910	32.691269
3081.245850	32.686279
3080.634033	44.936779
3080.021973	40.845387
3079.409668	36.755238
3078.797607	16.333170
3078.185059	36.744022
3077.572754	36.738415
3076.960205	-8.162847
3076.347656	65.292809
3075.734863	28.561245
3075.122070	24.477329
3074.509033	16.315729
3073.895996	16.313240
3073.282959	53.009933
3072.669922	20.385324
3072.056641	16.305769
3071.443115	28.530741
3070.829834	12.225594
3070.216064	44.820332
3069.602539	4.073954
3068.988770	12.219995
3068.375000	28.508966
3067.760986	24.432526
3067.146973	16.285862
3066.532715	4.070844
3065.918701	20.351110
3065.304199	36.626404
3064.689941	36.620808
3064.075439	40.683571
3063.460693	40.677357
3062.846191	4.067114
3062.231445	40.664928
3061.616455	28.461102
3061.001465	24.391502
3060.386475	24.387775
3059.771240	20.320042
3059.156006	69.077583
3058.540771	40.627663
3057.925293	40.621452
3057.309814	32.492195
3056.694092	20.304518
3056.078369	24.361698
3055.462646	4.059662
3054.846680	28.413292
3054.230713	44.642632
3053.614502	36.520206
3052.998291	36.514622
3052.382080	28.395920
3051.765625	28.391579
3051.149170	0.000000
3050.532715	4.054699
3049.916016	20.270397
3049.299316	40.534595
3048.682373	48.634075
3048.065430	24.313318
3047.448486	4.051600
3046.831299	32.407841
3046.214111	40.503605
3045.596680	40.497406
3044.979248	40.491211
3044.361816	28.339512
3043.744141	28.335176
3043.126465	52.614418
3042.508545	44.513081
3041.890869	48.552292
3041.272705	48.544865
3040.654785	28.313503
3040.036621	4.044167
3039.418213	32.348385
3038.799805	56.601009
3038.181396	28.296173
3037.562988	36.375225
3036.944336	40.410728
3036.325439	20.202272
3035.706543	-4.039836
3035.087646	32.313740
3034.468750	44.424587
3033.849609	40.379803
3033.230469	52.485706
3032.611084	52.477669
3031.991699	40.361256
3031.372070	36.319569
3030.752441	32.279114
3030.132813	28.239901
3029.513184	36.302883
3028.893066	48.396427
3028.273193	8.064836
3027.653076	36.286201
3027.032959	28.218277
3026.412598	56.427906
3025.792480	48.359367
3025.171875	56.410618
3024.551270	64.459396
3023.930664	28.196665
3023.310059	20.137388
3022.689209	16.107441
3022.068115	4.026243
3021.447266	12.076879
3020.826172	60.375137
3020.204834	32.195137
3019.583496	60.356628
3018.962158	56.324219
3018.340576	32.180332
3017.718994	36.197323
3017.097412	28.149158
3016.475586	32.165535
3015.853760	52.260979
3015.231689	36.175129
3014.609619	28.131897
3013.987549	0.000000
3013.365234	40.176098
3012.742920	36.152943
3012.120361	20.081886
3011.497803	48.189137
3010.875244	68.257469
3010.252441	36.130764
3009.629639	36.125221
3009.006836	64.212761
3008.383789	44.139500
3007.760498	32.096531
3007.137451	44.125957
3006.514160	48.130020
3005.890625	64.163513
3005.267090	44.105644
3004.643555	52.116856
3004.019775	72.150726
3003.395996	64.124130
3002.772217	48.085716
3002.148193	40.065281
3001.524170	52.076866
3000.899902	56.074169
3000.275635	20.023415
2999.651367	40.040680
2999.026855	72.062164
2998.402344	40.028385
2997.777588	52.028912
2997.152832	40.016094
2996.528076	56.013927
2995.903076	64.006088
2995.278076	47.997192
2994.653076	35.992363
2994.027832	43.983910
2993.402344	55.970924
2992.777100	63.956944
2992.151367	63.947117
2991.525879	27.972567
2990.900146	11.986401
2990.274414	55.927940
2989.648438	51.925110
2989.022461	51.917130
2988.396240	55.902164
2987.770264	39.923981
2987.143799	63.868553
2986.517578	63.858734
2985.891113	31.924459
2985.264404	67.829048
2984.637695	63.829292
2984.010986	59.830765
2983.384033	95.714508
2982.757080	39.874912
2982.130127	67.776932
2981.502930	59.793976
2980.875732	87.684349
2980.248291	83.685829
2979.620850	43.828693
2978.993408	75.692459
2978.365723	83.647224
2977.738037	103.547302
2977.110107	75.657547
2976.482178	91.571358
2975.854248	67.672768
2975.226074	99.503464
2974.597900	131.324371
2973.969482	87.536110
2973.341309	119.349060
2972.712646	99.442245
2972.083984	119.312332
2971.455322	135.199844
2970.826660	111.323906
2970.197754	135.158234
2969.568604	143.086685
2968.939697	135.116623
2968.310547	150.989456
2967.681152	190.694168
2967.051758	186.692642
2966.422363	174.749176
2965.792725	174.722275
2965.163086	166.754684
2964.533203	174.668488
2963.903564	186.548965
2963.273438	182.551727
2962.643311	226.170578
2962.013184	206.299271
2961.383057	218.167557
2960.752686	162.608948
2960.122314	202.238510
2959.491699	214.101913
2958.861084	237.854370
2958.230225	249.708618
2957.599609	229.855057
2956.968506	237.744476
2956.337646	273.364014
2955.706299	229.748840
2955.075195	217.831711
2954.443848	178.198486
2953.812500	265.276855
2953.180908	265.235992
2952.549316	284.985779
2951.917725	300.771973
2951.285889	304.682526
2950.653809	292.766663
2950.021973	276.898743
2949.389893	284.766235
2948.757568	284.722321
2948.125244	316.309387
2947.492920	324.167114
2946.860352	296.448608
2946.227783	276.642700
2945.595215	237.085754
2944.962402	288.409851
2944.329590	225.162018
2943.696533	264.623291
2943.063477	260.633514
2942.430420	213.212708
2941.797119	213.179825
2941.163574	221.041260
2940.530273	221.007172
2939.896729	201.243332
2939.262939	177.540253
2938.629150	232.739090
2937.995361	224.814941
2937.361328	232.667282
2936.727295	228.688477
2936.093262	264.133850
2935.458984	216.792831
2934.824707	267.993408
2934.190186	264.011597
2933.555664	267.910706
2932.921143	259.990845
2932.286377	275.705292
2931.651367	330.795288
2931.016602	311.057068
2930.381592	279.514465
2929.746338	342.450745
2929.111084	377.818359
2928.475830	358.085022
2927.840332	385.570465
2927.204834	338.305511
2926.569336	420.850006
2925.933594	432.582703
2925.297607	404.992157
2924.661865	420.655029
2924.025879	455.966797
2923.389648	455.896362
2922.753418	420.460144
2922.117188	475.400146
2921.480713	514.609924
2920.844238	467.397858
2920.207764	428.054565
2919.571045	506.518433
2918.934082	451.477661
2918.297363	384.678040
2917.660156	435.639404
2917.023193	494.433197
2916.385986	451.198639
2915.748779	400.131714
2915.111328	509.892975
2914.473877	364.713196
2913.836182	431.314545
2913.198486	419.486542
2912.560791	454.700165
2911.922852	442.872192
2911.284912	481.989899
2910.646729	485.833374
2910.008545	485.758240
2909.370361	517.017517
2908.731934	567.848083
2908.093506	536.435547
2907.455078	559.842468
2906.816406	587.156555
2906.177490	540.100464
2905.538574	645.672424
2904.899658	614.272034
2904.260498	661.120483
2903.621338	641.461426
2902.982178	703.934143
2902.342773	707.735352
2901.703369	625.525635
2901.063721	613.702026
2900.424072	672.231934
2899.784424	633.050720
2899.144531	679.838135
2898.504639	675.826416
2897.864502	667.909973
2897.224365	652.185364
2896.583984	616.942139
2895.943848	620.750732
2895.303223	651.882568
2894.662842	620.558533
2894.021973	632.169312
2893.381348	620.366394
2892.740479	600.765015
2892.099609	678.681335
2891.458496	612.278564
2890.817383	670.672607
2890.176025	670.568726
2889.534668	647.076599
2888.893311	717.130432
2888.251709	818.337280
2887.610107	751.974426
2886.968262	783.023010
2886.326416	817.957031
2885.684570	891.824463
2885.042480	813.809753
2884.400391	907.121033
2883.758057	875.839539
2883.115723	895.163879
2882.473389	867.785278
2881.830811	929.903748
2881.188232	1042.575684
2880.545410	1120.206177
2879.902588	1088.920532
2879.259766	1119.858887
2878.616699	1170.226685
2877.973633	1061.203857
2877.330322	1037.719727
2876.687012	979.269043
2876.043457	839.243347
2875.399902	955.656738
2874.756348	881.709106
2874.112549	784.482910
2873.468750	784.361267
2872.824707	795.886719
2872.180664	772.472656
2871.536621	725.778809
2870.892334	729.546814
2870.248047	706.153809
2869.603760	706.044312
2868.958984	702.055969
2868.314453	705.825256
2867.669678	740.613770
2867.024902	728.867981
2866.379883	740.383972
2865.734863	790.653870
2865.089844	701.402649
2864.444580	782.659363
2863.799316	759.294189
2863.153809	755.303040
2862.508301	755.185791
2861.862549	704.730652
2861.216797	646.548096
2860.571045	658.060547
2859.925049	688.921143
2859.279053	584.331116
2858.632813	541.679871
2857.986572	560.938477
2857.340332	580.191040
2856.693848	537.560242
2856.047363	471.742188
2855.400635	514.196411
2854.753906	529.578735
2854.107178	514.036743
2853.460205	610.565308
2852.813232	490.694641
2852.166016	552.428589
2851.518799	567.792908
2850.871338	513.637573
2850.223877	559.893860
2849.576416	617.717896
2848.928711	625.342224
2848.281006	582.790100
2847.633301	640.583618
2846.985352	675.209106
2846.337158	694.392883
2845.688965	686.570679
2845.040771	755.881653
2844.392578	732.628540
2843.743896	709.382568
2843.095459	697.708069
2842.446777	774.682434
2841.798096	739.880127
2841.149170	739.765137
2840.500244	751.207092
2839.851074	770.349060
2839.202148	735.568909
2838.552734	712.351257
2837.903320	662.191162
2837.253906	650.540100
2836.604492	654.287659
2835.954834	581.071045
2835.304932	588.675720
2834.655029	550.114624
2834.005127	511.565460
2833.354980	542.251953
2832.704834	453.728912
2832.054688	419.057251
2831.404297	407.460144
2830.753906	353.589630
2830.103271	315.106934
2829.452637	292.004883
2828.801758	245.860580
2828.150879	215.094528
2827.500000	203.539917
2826.848877	184.309341
2826.197754	218.833282
2825.546387	199.606308
2824.895020	172.709335
2824.243408	188.031998
2823.591797	168.818771
2822.940186	157.283905
2822.288330	126.574646
2821.636475	168.739914
2820.984619	122.700829
2820.332520	134.183136
2819.680176	149.495056
2819.028076	95.815239
2818.375488	107.296356
2817.723145	122.605309
2817.070557	80.447197
2816.417725	99.585777
2815.764893	107.229515
2815.112061	111.041840
2814.458984	114.852966
2813.805908	145.457764
2813.152832	88.026505
2812.499512	84.186142
2811.845947	114.781395
2811.192383	133.890762
2810.538818	141.519608
2809.885010	99.430702
2809.231201	80.296898
2808.577393	84.107445
2807.923340	114.674095
2807.269287	84.081230
2806.614990	110.817062
2805.960693	122.261833
2805.306152	76.401733
2804.651611	64.931343
2803.997070	95.472382
2803.342285	110.730698
2802.687500	99.260315
2802.032471	106.879051
2801.377441	76.330269
2800.722412	87.766121
2800.067139	99.198402
2799.411621	95.368195
2798.756348	95.353317
2798.100586	102.965523
2797.445068	110.575340
2796.789307	72.434608
2796.133301	38.117531
2795.477539	87.656639
2794.821289	87.642960
2794.165283	129.538940
2793.509033	76.187485
2792.852539	76.175591
2792.196045	76.163704
2791.539551	110.420135
2790.882813	91.367912
2790.226074	79.934441
2789.569092	91.339386
2788.912109	76.104271
2788.255127	76.092392
2787.597900	68.472458
2786.940430	79.872063
2786.283203	68.451080
2785.625488	87.451607
2784.968018	83.636299
2784.310303	83.623238
2783.652588	68.408325
2782.994629	106.396332
2782.336426	72.186234
2781.678467	91.168365
2781.020264	75.961769
2780.361816	79.747398
2779.703369	83.531837
2779.044922	45.555702
2778.386230	98.688599
2777.727539	106.263420
2777.068604	79.685112
2776.409668	72.084785
2775.750732	68.280174
2775.091553	60.684006
2774.432373	87.219620
2773.772949	90.997551
2773.113525	87.192360
2772.453857	83.388344
2771.794189	68.216164
2771.134521	87.151466
2770.474609	83.349243
2769.814697	79.548203
2769.154541	98.472847
2768.494385	79.523323
2767.833984	94.655815
2767.173584	98.426651
2766.513184	90.841164
2765.852539	83.258041
2765.191895	60.541832
2764.531006	75.665451
2763.870117	64.305573
2763.209229	90.770134
2762.548096	60.503956
2761.886719	71.837204
2761.225586	64.265343
2760.563965	94.493065
2759.902588	83.140884
2759.240967	64.235176
2758.579102	79.336914
2757.917236	52.882999
2757.255371	64.205017
2756.593262	94.404366
2755.931152	67.960503
2755.269043	90.599823
2754.606689	98.134438
2753.944092	79.250023
2753.281494	90.557274
2752.618896	75.452583
2751.956055	113.161148
2751.293213	79.200401
2750.630371	75.417145
2749.967285	90.486397
2749.303955	98.011574
2748.640625	101.765312
2747.977295	97.980873
2747.313721	67.822289
2746.650146	101.717499
2745.986572	120.535187
2745.322754	116.750168
2744.658691	105.435242
2743.994873	97.888817
2743.330566	67.758560
2742.666504	161.842300
2742.002197	105.369171
2741.337646	97.827469
2740.673096	101.574142
2740.008545	112.842468
2739.343750	124.107262
2738.678955	101.526390
2738.013916	142.866592
2737.348877	135.326080
2736.683594	116.512527
2736.018311	142.799408
2735.353027	116.475990
2734.687500	97.674225
2734.021973	101.415024
2733.356201	82.621506
2732.690430	142.687485
2732.024658	108.876007
2731.358643	120.120201
2730.692383	150.126694
2730.026367	138.845413
2729.359863	120.063683
2728.693604	142.553253
2728.027100	123.776833
2727.360352	135.008087
2726.693604	157.484711
2726.026855	138.714767
2725.359863	176.177597
2724.692871	149.914856
2724.025635	194.858719
2723.358398	131.134323
2722.691162	149.844284
2722.023682	149.820755
2721.355957	168.521896
2720.688477	190.961502
2720.020508	194.675293
2719.352783	205.874222
2718.684814	194.614166
2718.016602	194.583618
2717.348389	187.070251
2716.680176	164.595963
2716.011719	209.452881
2715.343262	157.064987
2714.674561	160.779388
2714.005859	157.015671
2713.337158	160.728882
2712.668213	134.542587
2711.999023	119.574615
2711.329834	175.597626
2710.660645	168.098984
2709.991455	168.072571
2709.321777	153.108734
2708.652344	153.084671
2707.982666	175.459732
2707.312988	134.373566
2706.643066	167.940567
2705.972900	134.331345
2705.302979	160.426102
2704.632813	145.479874
2703.962402	152.916351
2703.291992	137.975983
2702.621582	134.225800
2701.950928	89.469803
2701.280273	130.456284
2700.609375	137.889236
2699.938477	145.319855
2699.267334	115.492493
2698.596191	141.549179
2697.925049	96.834213
2697.253662	107.990402
2696.582031	115.419861
2695.910645	100.511169
2695.239014	107.939461
2694.567139	104.201012
2693.895264	100.463745
2693.223145	93.007347
2692.551270	89.273010
2691.878906	130.169327
2691.206543	104.119072
2690.534180	104.102692
2689.861816	104.086311
2689.189209	89.202797
2688.516357	133.783142
2687.843506	126.330856
2687.170654	89.160690
2686.497559	100.289986
2685.824463	107.701920
2685.151123	70.552216
2684.477783	126.231461
2683.804199	115.075272
2683.130615	85.364983
2682.457031	96.484352
2681.783203	118.731277
2681.109375	100.163742
2680.435303	96.438782
2679.761230	114.966591
2679.086914	122.364517
2678.412598	77.856064
2677.738281	103.791740
2677.063721	63.006485
2676.389160	81.524963
2675.714355	114.857986
2675.039551	88.908302
2674.364502	129.637512
2673.689453	133.320435
2673.014404	88.866280
2672.339111	77.745743
2671.663574	77.733490
2670.988037	103.628326
2670.312500	74.008568
2669.636719	99.895813
2668.960938	85.083023
2668.285156	107.261688
2667.609131	88.754295
2666.932861	103.530357
2666.256592	103.514038
2665.580322	88.712326
2664.903809	88.698341
2664.227295	118.245804
2663.550781	92.364967
2662.874023	99.738434
2662.197021	114.496437
2661.520020	103.399834
2660.843018	118.152596
2660.165771	99.675529
2659.488525	118.115326
2658.811035	84.881996
2658.133545	125.457939
2657.455811	88.544579
2656.778076	99.596931
2656.100342	110.645798
2655.422363	129.066391
2654.744385	88.488708
2654.066162	103.220535
2653.387939	114.261841
2652.709473	99.502670
2652.031006	121.595184
2651.352539	95.787140
2650.673828	95.772026
2649.994873	103.122818
2649.316162	77.329903
2648.636963	117.817444
2647.958008	88.349129
2647.278809	92.015816
2646.599365	136.161896
2645.919922	106.704636
2645.240479	110.366676
2644.560791	84.601089
2643.880859	99.298637
2643.201172	84.574371
2642.520996	110.296967
2641.841064	99.251595
2641.160889	91.885109
2640.480469	113.919533
2639.800049	69.810616
2639.119629	95.515228
2638.438965	84.480888
2637.758301	84.467537
2637.077393	77.110352
2636.396484	99.126213
2635.715332	102.781303
2635.034180	91.754517
2634.353027	106.418419
2633.671631	77.049431
2632.989990	73.368813
2632.308350	62.353634
2631.626709	91.682022
2630.944824	128.334549
2630.262939	113.649765
2629.581055	91.638542
2628.898926	102.618942
2628.216553	98.938332
2627.534180	113.577896
2626.851807	69.601250
2626.169189	102.554047
2625.486572	80.565430
2624.803711	117.167549
2624.120850	113.488106
2623.437988	84.187531
2622.754883	117.111954
2622.071533	98.797577
2621.388184	98.781944
2620.704834	139.004440
2620.021240	69.491226
2619.337646	80.450790
2618.653809	84.094337
2617.969971	91.392418
2617.286133	87.722839
2616.602051	76.745331
2615.917725	105.964874
2615.233398	102.294716
2614.549072	76.708893
2613.864502	80.348976
2613.179932	109.549438
2612.495117	94.927818
2611.810303	113.165245
2611.125488	69.348358
2610.440430	80.285385
2609.755127	83.921432
2609.069824	113.093582
2608.384521	124.018471
2607.698975	131.292877
2607.013428	105.746956
2606.327637	145.834763
2605.641846	105.713455
2604.956055	80.183708
2604.270020	116.612373
2603.583740	83.801865
2602.897461	80.145599
2602.211182	83.775307
2601.524658	98.329346
2600.838135	83.748756
2600.151367	98.298180
2599.464600	98.282600
2598.777832	43.674232
2598.090820	98.251442
2597.403564	76.405678
2596.716309	134.598190
2596.029053	123.665215
2595.341553	90.915886
2594.654053	101.809647
2593.966309	87.251572
2593.278564	83.602837
2592.590820	69.052261
2591.902832	109.012589
2591.214600	87.196243
2590.526367	87.182411
2589.838135	123.488831
2589.149658	87.154755
2588.461182	98.033546
2587.772461	130.690659
2587.083740	94.372726
2586.394775	83.470322
2585.705811	145.142746
2585.016846	101.583801
2584.327637	101.567680
2583.638184	94.297874
2582.948975	101.535446
2582.259277	137.776230
2581.569824	50.751610
2580.879883	105.111641
2580.190186	83.351173
2579.500244	65.221001
2578.810059	97.815971
2578.119873	105.044914
2577.429688	86.919922
2576.739258	79.663940
2576.048584	104.994888
2575.358154	119.457970
2574.667236	112.200272
2573.976563	94.088509
2573.285645	97.691780
2572.594482	97.676262
2571.903320	101.277809
2571.212158	79.562782
2570.520752	79.550140
2569.829102	79.537506
2569.137451	83.139633
2568.445801	68.669655
2567.753906	97.567696
2567.062012	101.165230
2566.370117	130.048920
2565.677979	104.744980
2564.985596	83.060402
2564.293213	101.100937
2563.600830	104.695045
2562.908203	86.630402
2562.215332	79.398575
2561.522705	97.428215
2560.829590	82.981216
2560.136719	90.182632
2559.443604	79.348099
2558.750244	100.972427
2558.056885	86.534035
2557.363525	82.915260
2556.669922	90.110954
2555.976074	122.531403
2555.282227	72.065834
2554.588379	86.465248
2553.894287	90.053635
2553.200195	68.429878
2552.505859	90.024986
2551.811523	100.811943
2551.117188	104.395760
2550.422607	118.776276
2549.727783	107.961250
2549.032959	79.158981
2548.338135	46.768318
2547.643066	64.745827
2546.947998	104.296120
2546.252686	111.471214
2545.557373	122.239288
2544.861816	50.325813
2544.166260	82.664963
2543.470703	104.213142
2542.774902	89.824608
2542.078857	64.663422
2541.382813	122.122574
2540.686768	75.416634
2539.990479	114.902290
2539.294189	71.802490
2538.597656	50.253742
2537.901123	61.012680
2537.204346	114.829109
2536.507568	100.459465
2535.810791	118.379791
2535.113770	104.014153
2534.416504	82.480843
2533.719238	100.395462
2533.021973	103.964447
2532.324463	86.025833
2531.626953	114.682831
2530.929199	107.498024
2530.231445	75.236626
2529.533447	60.896133
2528.835449	107.446632
2528.137451	82.362625
2527.439209	100.251556
2526.740723	107.395264
2526.042236	103.798866
2525.343750	93.046219
2524.645020	75.140732
2523.946289	100.171669
2523.247314	93.001717
2522.548340	110.868980
2521.849121	110.851303
2521.149902	103.683067
2520.450684	110.815948
2519.751221	78.631027
2519.051514	103.633461
2518.351807	78.605949
2517.652100	96.455544
2516.952148	103.583870
2516.252197	107.138634
2515.552002	96.409386
2514.851807	128.525345
2514.151367	103.517776
2513.450928	60.673153
2512.750244	92.779427
2512.049561	89.196747
2511.348877	107.019012
2510.647949	82.034813
2509.946777	71.323235
2509.245605	114.098961
2508.544434	89.125580
2507.843018	85.546898
2507.141602	67.713814
2506.439941	117.589424
2505.738281	114.007904
2505.036377	131.800583
2504.334473	74.793793
2503.632568	106.831207
2502.930420	135.297928
2502.228027	99.677284
2501.525635	78.305359
2500.823242	67.616547
2500.120605	64.047554
2499.417969	85.383095
2498.715088	117.382996
2498.012207	96.025284
2497.309082	78.230324
2496.605957	103.105316
2495.902588	88.869690
2495.199219	78.192825
2494.495605	78.180328
2493.791992	110.145584
2493.088379	117.233009
2492.384521	156.285690
2491.680664	67.476219
2490.976563	113.625984
2490.272461	120.708313
2489.568115	81.642563
2488.863770	117.120605
2488.159180	131.296051
2487.454590	120.631126
2486.749756	102.874802
2486.044922	99.311508
2485.339844	131.212082
2484.634766	92.188332
2483.929688	102.808998
2483.224365	85.069702
2482.519043	113.408119
2481.813477	95.672798
2481.107666	81.486008
2480.402100	106.269096
2479.696045	74.376465
2478.990234	102.693916
2478.284180	109.758690
2477.577881	88.500908
2476.871582	88.486740
2476.165039	99.089294
2475.458496	120.303452
2474.751953	102.595345
2474.045166	106.116119
2473.338379	116.709045
2472.631348	63.649288
2471.924072	91.923141
2471.217041	91.908424
2470.509521	120.168694
2469.802246	98.946609
2469.094482	102.464005
2468.386963	105.980270
2467.679199	81.238525
2466.971191	91.820145
2466.263184	116.522285
2465.554932	109.442795
2464.846680	109.425262
2464.138428	91.761330
2463.429932	112.918922
2462.721436	88.203773
2462.012695	98.772400
2461.303955	56.432327
2460.594971	141.058212
2459.885986	95.199028
2459.176758	91.658447
2458.467529	88.118996
2457.758057	59.911316
2457.048584	98.661644
2456.338867	133.876480
2455.629150	84.540009
2454.919434	109.180008
2454.209473	80.991531
2453.499512	80.978546
2452.789307	91.526283
2452.078857	98.550964
2451.368408	95.016045
2450.657959	59.815323
2449.947266	133.683395
2449.236572	87.935501
2448.525879	119.573097
2447.814697	112.521332
2447.103760	98.440369
2446.392578	105.454903
2445.681152	108.952583
2444.969727	105.421066
2444.258301	105.404152
2443.546631	98.361420
2442.834717	105.370323
2442.122803	108.865196
2441.410889	84.269203
2440.698730	115.851563
2439.986572	108.812782
2439.274170	98.266739
2438.561768	108.777855
2437.849121	119.285591
2437.136475	126.282112
2436.423584	112.232742
2435.710693	126.241562
2434.997803	105.184410
2434.284424	94.650764
2433.571289	105.150627
2432.857910	80.602531
2432.144287	87.597382
2431.430908	129.623291
2430.717041	122.596939
2430.003174	119.075035
2429.289307	94.544395
2428.575195	112.034615
2427.861084	108.516098
2427.146729	132.998352
2426.432373	111.980621
2425.717773	122.459122
2425.003174	122.439445
2424.288330	125.917473
2423.573486	122.400093
2422.858643	136.366745
2422.143555	101.384621
2421.428223	97.872864
2420.712891	101.352028
2419.997559	132.784744
2419.281982	125.775856
2418.566162	76.850662
2417.850586	136.213364
2417.134521	115.238922
2416.418457	101.254288
2415.702393	97.747040
2414.986084	104.712120
2414.269775	87.246071
2413.553223	122.124847
2412.836670	118.616486
2412.120117	94.180290
2411.403076	118.578323
2410.686279	83.688881
2409.969238	142.945496
2409.251953	104.577438
2408.534668	115.016670
2407.817383	114.998161
2407.099854	142.853516
2406.382080	114.961151
2405.664307	97.527092
2404.946533	153.232193
2404.228516	114.905647
2403.510498	121.850006
2402.792236	100.945183
2402.073975	139.212311
2401.355469	111.351921
2400.636963	111.333992
2399.918213	90.444305
2399.199463	135.644608
2398.480469	86.937668
2397.761475	86.923668
2397.042480	73.004120
2396.323242	107.750633
2395.603760	107.733276
2394.884277	118.140045
2394.164795	100.750275
2393.445068	93.786865
2392.725098	111.136894
2392.005127	76.394302
2391.285156	131.932541
2390.564941	90.255081
2389.844727	121.477646
2389.124268	100.636688
2388.403809	79.802444
2387.683105	131.826263
2386.962402	107.525139
2386.241455	100.571823
2385.520508	104.023041
2384.799316	97.072517
2384.078125	124.787407
2383.356689	117.835770
2382.635254	114.351570
2381.913818	90.080650
2381.192139	110.850609
2380.470215	86.588074
2379.748291	114.277824
2379.026367	128.109009
2378.304199	131.550201
2377.581787	117.683823
2376.859375	103.821915
2376.136963	117.645851
2375.414307	62.273052
2374.691650	117.607895
2373.968750	124.505913
2373.245850	124.485825
2372.522705	121.008354
2371.799316	107.161530
2371.076172	114.056770
2370.352783	114.038361
2369.629150	124.385399
2368.905518	114.001549
2368.181641	120.891212
2367.457764	117.418221
2366.733643	75.964226
2366.009521	93.213776
2365.285400	127.716766
2364.561035	134.598633
2363.836426	113.872765
2363.111816	110.404243
2362.387207	93.138535
2361.662354	113.817604
2360.937256	134.489990
2360.212158	144.811966
2359.487061	141.341232
2358.761719	110.297287
2358.036377	117.171936
2357.310791	110.261650
2356.584961	113.688957
2355.859375	86.114075
2355.133301	123.984238
2354.407471	154.955246
2353.681152	110.172592
2352.955078	110.154785
2352.228516	117.020538
2351.502197	99.795502
2350.775635	130.745377
2350.048828	120.403908
2349.322021	123.823997
2348.594971	113.486984
2347.867920	120.345520
2347.140869	116.888176
2346.413330	99.682617
2345.686035	109.976822
2344.958496	109.959038
2344.230713	99.634254
2343.502930	137.404327
2342.775146	109.905685
2342.047119	127.057892
2341.319092	113.303574
2340.590820	113.285240
2339.862305	89.240601
2339.133789	109.816811
2338.405273	106.367821
2337.676514	109.781273
2336.947754	106.333397
2336.218750	137.182175
2335.489746	130.301987
2334.760498	123.424004
2334.031250	123.404022
2333.301758	130.238724
2332.572266	133.644409
2331.842529	143.901459
2331.112793	143.878159
2330.382813	140.429749
2329.652832	113.010513
2328.922607	119.840225
2328.192383	109.550468
2327.462158	136.915909
2326.731689	116.359673
2326.000977	143.715134
2325.270264	106.058273
2324.539307	109.461777
2323.808350	99.183662
2323.077393	133.363312
2322.346191	102.570549
2321.614746	116.227783
2320.883301	136.716415
2320.151855	99.103340
2319.420166	150.339325
2318.688232	122.984962
2317.956299	122.965027
2317.224365	122.945099
2316.492188	129.754349
2315.760010	139.975418
2315.027588	116.058357
2314.295166	126.278328
2313.562500	139.907349
2312.829590	143.296494
2312.096924	122.805649
2311.363770	81.857155
2310.630615	150.047119
2309.897461	129.565125
2309.164063	129.544113
2308.430664	129.523102
2307.697021	102.238495
2306.963379	109.036705
2306.229492	126.053238
2305.495605	122.626495
2304.761719	122.606598
2304.027344	122.586708
2303.293213	129.376083
2302.558838	139.567337
2301.824219	98.702339
2301.089600	149.730972
2300.354736	125.889702
2299.619873	146.280502
2298.885010	132.651474
2298.149658	108.824570
2297.414551	129.208191
2296.679199	132.586884
2295.943604	98.574242
2295.208008	95.159676
2294.472412	108.736252
2293.736572	139.295700
2293.000488	139.273087
2292.264404	122.268700
2291.528320	129.040451
2290.791992	149.390991
2290.055420	105.235641
2289.318848	118.795135
2288.582275	111.988647
2287.845459	149.293945
2287.108398	115.344757
2286.371582	132.285721
2285.634277	145.829788
2284.896973	125.461052
2284.159668	145.782394
2283.422119	122.030540
2282.684570	149.124207
2281.946777	138.934052
2281.208740	115.194885
2280.470703	111.788620
2279.732666	121.931396
2278.994385	138.843735
2278.256104	135.435287
2277.517578	138.798599
2276.779053	101.543434
2276.040283	131.985001
2275.301514	155.649292
2274.562500	142.091461
2273.823486	145.450928
2273.084229	128.517136
2272.344971	145.403625
2271.605469	131.856247
2270.865967	141.975937
2270.126221	128.433517
2269.386475	128.412628
2268.646484	152.042847
2267.906494	114.858124
2267.166260	135.105209
2266.426025	148.591553
2265.685547	168.826553
2264.945068	128.287308
2264.204346	141.768143
2263.463623	148.494843
2262.722656	148.470673
2261.981689	124.830009
2261.240723	151.795563
2260.499268	121.416679
2259.758057	107.908363
2259.016602	134.863495
2258.274902	117.986343
2257.533203	121.337616
2256.791260	114.577972
2256.049316	158.361404
2255.307129	148.229080
2254.564941	121.258583
2253.822754	117.871086
2253.080322	168.359833
2252.337646	148.132523
2251.594971	141.376190
2250.852051	154.815353
2250.109131	127.870110
2249.366211	158.129364
2248.623047	144.647964
2247.879639	174.894608
2247.136230	94.158676
2246.392578	137.852722
2245.648926	137.830261
2244.905273	134.446625
2244.161377	120.982239
2243.417236	141.122925
2242.673096	144.459442
2241.928955	167.948715
2241.184570	151.129196
2240.439941	134.315155
2239.695313	141.007919
2238.950439	167.839188
2238.205566	100.687088
2237.460693	137.583237
2236.715576	130.850510
2235.970215	154.311325
2235.224854	150.932114
2234.479492	144.200485
2233.733887	140.824005
2232.988037	134.096222
2232.242188	120.666901
2231.496338	113.944588
2230.750244	144.082870
2230.003906	140.709137
2229.257568	147.385513
2228.511230	123.917595
2227.764648	130.594513
2227.017822	150.661392
2226.270996	160.679245
2225.523926	143.918320
2224.776855	97.045349
2224.029785	133.833801
2223.282471	140.502533
2222.534912	117.066330
2221.787354	147.145065
2221.039795	147.121033
2220.291992	153.783234
2219.543945	113.647301
2218.795898	157.075012
2218.047852	143.683456
2217.299561	123.614403
2216.551025	130.274979
2215.802490	150.292725
2215.053955	130.232407
2214.305176	150.243607
2213.556152	136.866257
2212.807129	156.869812
2212.058105	116.798859
2211.308838	126.789459
2210.559326	153.456894
2209.809814	133.418961
2209.060303	166.746445
2208.310547	120.037811
2207.560547	173.359604
2206.810547	123.331856
2206.060303	123.311691
2205.310059	126.623726
2204.559814	146.592972
2203.809326	146.569000
2203.058594	143.214462
2202.307861	166.501205
2201.557129	119.861252
2200.806152	163.117798
2200.054932	123.150436
2199.303711	146.425201
2198.552246	153.055847
2197.800781	136.397018
2197.049316	123.069855
2196.297607	156.306396
2195.545654	149.630569
2194.793701	156.255249
2194.041504	156.229675
2193.289307	149.557114
2192.537109	169.470322
2191.784668	119.606522
2191.031982	149.483688
2190.279297	136.173950
2189.526367	119.547791
2188.773438	156.050720
2188.020508	159.344864
2187.267090	129.446503
2186.513916	149.336884
2185.760498	149.312424
2185.006836	145.970459
2184.253174	155.897446
2183.499268	135.973373
2182.745361	155.846375
2181.991211	172.397537
2181.237061	169.054489
2180.482666	149.141296
2179.728271	182.253937
2178.973877	165.658249
2178.218994	165.631104
2177.464355	149.043564
2176.709229	168.888351
2175.954346	165.549683
2175.198975	178.764343
2174.443848	129.086411
2173.688232	148.921448
2172.932861	175.367615
2172.177002	155.489182
2171.421387	132.309525
2170.665283	142.209412
2169.909424	145.492752
2169.153076	145.468887
2168.396729	161.972885
2167.640381	155.336258
2166.883789	138.788361
2166.127197	151.981369
2165.370361	135.439423
2164.613525	118.902916
2163.856445	125.488045
2163.099365	138.674561
2162.342041	148.555496
2161.584473	118.824905
2160.826904	184.808411
2160.069336	155.081604
2159.311523	171.551483
2158.553711	151.732178
2157.795654	125.323395
2157.037354	128.600266
2156.279053	171.438873
2155.520752	174.707092
2154.762207	148.311859
2154.003662	154.878067
2153.244873	168.031586
2152.485840	158.121399
2151.726807	158.095428
2150.967773	167.948807
2150.208252	138.288071
2149.448975	141.557388
2148.689453	148.117126
2147.929688	141.510895
2147.169922	141.487640
2146.410156	213.841537
2145.650146	157.887802
2144.889893	154.573074
2144.129639	164.412415
2143.369141	180.823944
2142.608643	154.496887
2141.847900	134.751724
2141.087158	147.873932
2140.326416	160.991821
2139.565186	137.970306
2138.804199	151.085495
2138.042725	180.615997
2137.281494	160.885986
2136.519775	144.445297
2135.758301	173.962311
2134.996338	150.961334
2134.234619	183.748795
2133.472412	147.630997
2132.710449	167.287613
2131.947998	124.625175
2131.185547	157.395386
2130.423096	163.926544
2129.660400	157.343597
2128.897705	131.098099
2128.134766	167.122574
2127.371826	134.331329
2126.608643	170.343414
2125.845215	176.865982
2125.081787	134.265030
2124.318359	170.259338
2123.554688	147.315567
2122.790771	130.925613
2122.026855	170.175278
2121.262939	160.331085
2120.498779	157.033157
2119.734375	157.007309
2118.969971	150.440567
2118.205322	170.035248
2117.440674	140.582916
2116.676025	196.129913
2115.911133	169.951263
2115.145996	150.316742
2114.380859	147.024765
2113.615479	150.267227
2112.850098	124.113350
2112.084473	150.217728
2111.318848	150.192978
2110.552979	143.639191
2109.787109	182.783386
2109.020996	150.118759
2108.254883	159.882767
2107.488525	169.643539
2106.722168	198.972137
2105.955566	176.110229
2105.188965	166.298920
2104.422119	140.189697
2103.655029	146.685974
2102.887939	185.771606
2102.120850	175.965134
2101.353516	175.936127
2100.585938	166.134491
2099.818359	166.107101
2099.050781	149.797394
2098.282959	169.308258
2097.514893	126.960251
2096.746826	159.487854
2095.978760	149.698593
2095.210449	152.927689
2094.441895	126.876503
2093.673340	146.371811
2092.904541	185.373718
2092.135742	188.594757
2091.366699	175.559250
2090.597656	172.279724
2089.828369	172.251297
2089.059082	165.723892
2088.289551	162.447586
2087.520020	185.159683
2086.750244	120.171539
2085.980469	142.883102
2085.210449	178.574402
2084.440186	198.022552
2083.670166	152.549561
2082.899658	168.750366
2082.129150	171.967163
2081.358643	139.497498
2080.587891	171.910385
2079.816895	132.965317
2079.045898	139.428391
2078.274902	152.373306
2077.503662	123.175087
2076.732178	184.732117
2075.960693	165.259323
2075.188965	171.711700
2074.417236	161.965408
2073.645264	174.893738
2072.873291	174.864838
2072.101074	181.311356
2071.328857	168.332718
2070.556396	210.381119
2069.783936	145.624405
2069.011230	168.249268
2068.238525	148.811295
2067.465576	132.614227
2066.692627	139.060211
2065.919434	181.071732
2065.145996	164.877350
2064.372559	181.011856
2063.599121	168.054657
2062.825439	177.720718
2062.051514	151.845322
2061.277588	180.892151
2060.503662	174.402863
2059.729248	158.228271
2058.955078	200.174088
2058.180664	174.316330
2057.406006	161.377304
2056.631348	151.669571
2055.856445	200.041656
2055.081543	167.749115
2054.306396	206.426270
2053.531250	167.693588
2052.755859	164.441498
2051.980225	174.085709
2051.204590	190.173279
2050.428955	183.696304
2049.653076	190.110321
2048.877197	193.300522
2048.101074	183.605087
2047.324707	164.251038
2046.548340	141.683319
2045.771851	177.074814
2044.995239	225.330627
2044.218506	196.327026
2043.441528	180.204803
2042.664551	173.740128
2041.887329	157.626968
2041.110107	196.196991
2040.332642	205.811920
2039.555176	189.701431
2038.777466	196.099487
2037.999634	173.567505
2037.221802	202.461868
2036.443726	151.017960
2035.665527	173.481232
2034.887207	224.845810
2034.108765	199.116135
2033.330200	192.661102
2032.551514	195.839645
2031.772705	208.647003
2030.993774	211.821838
2030.214600	176.488922
2029.435425	173.251312
2028.656128	182.846054
2027.876587	198.852203
2027.097046	166.751617
2026.317261	166.723953
2025.537476	237.221664
2024.757446	176.284149
2023.977295	189.073456
2023.197021	198.654404
2022.416626	198.621445
2021.636230	188.979370
2020.855591	195.353027
2020.074707	208.128525
2019.293823	166.475189
2018.512817	198.456711
2017.731689	147.217636
2016.950439	185.591446
2016.168945	159.966064
2015.387451	182.331039
2014.605713	185.499039
2013.823975	185.468246
2013.041992	188.634644
2012.260010	188.603333
2011.477783	201.356567
2010.695435	182.149490
2009.912964	230.045364
2009.130371	159.727188
2008.347656	220.386917
2007.564819	185.222000
2006.781860	178.805344
2005.998779	172.390793
2005.215576	175.554047
2004.432129	194.673050
2003.648682	159.541565
2002.864990	213.750168
2002.081299	207.335114
2001.297363	197.732941
2000.513428	226.398483
1999.729248	194.479050
1998.944946	197.634369
1998.160522	175.291672
1997.375977	219.874817
1996.591309	172.047348
1995.806519	181.575333
1995.021606	184.730148
1994.236572	156.039185
1993.451416	203.772385
1992.666016	200.555084
1991.880615	190.973083
1991.094971	203.670746
1990.309326	238.636963
1989.523438	216.328186
1988.737549	178.123001
1987.951416	181.273605
1987.165161	143.086929
1986.378784	190.750839
1985.592285	203.433716
1984.805664	203.399857
1984.018921	222.431580
1983.232056	200.155106
1982.444946	206.474869
1981.657837	203.264511
1980.870605	203.230667
1980.083130	219.071594
1979.295654	187.290909
1978.507935	206.303101
1977.720093	206.268753
1976.932129	225.271439
1976.144165	209.372375
1975.355957	196.650391
1974.567627	180.761383
1973.779053	228.292145
1972.990479	190.211777
1972.201782	193.349762
1971.412964	218.670685
1970.623901	240.814545
1969.834839	180.580826
1969.045532	243.901871
1968.256226	247.028275
1967.466675	212.155594
1966.677002	183.626480
1965.887207	205.754013
1965.097290	205.719727
1964.307251	218.343002
1963.517090	205.651154
1962.726807	199.290207
1961.936401	218.233841
1961.145874	208.710617
1960.355103	167.573013
1959.564331	202.318588
1958.773315	230.731155
1957.982178	224.372345
1957.191040	214.855988
1956.399658	217.979279
1955.608154	217.942932
1954.816528	230.538849
1954.024780	211.555161
1953.232910	239.932983
1952.440918	233.579987
1951.648682	249.320831
1950.856445	214.569458
1950.063965	258.702362
1949.271484	252.350433
1948.478760	214.462082
1947.685913	245.959564
1946.893066	271.140930
1946.099976	258.486572
1945.306763	245.836441
1944.513428	204.829514
1943.719971	255.206482
1942.926270	292.965942
1942.132568	214.175888
1941.338745	242.482208
1940.544678	226.698746
1939.750610	217.216690
1938.956299	229.770584
1938.161865	188.820999
1937.367310	239.133331
1936.572632	254.823212
1935.777832	229.617126
1934.982910	226.433868
1934.187866	270.417480
1933.392700	245.221405
1932.597290	229.463745
1931.801880	245.139465
1931.006226	251.383087
1930.210571	182.222290
1929.414673	235.592896
1928.618652	216.709229
1927.822510	248.074905
1927.026245	226.055786
1926.229858	213.461456
1925.433350	241.673294
1924.636719	241.632889
1923.839844	254.142761
1923.042969	279.196594
1922.245850	225.829132
1921.448730	254.015305
1920.651367	285.327484
1919.853882	269.605072
1919.056274	272.694397
1918.258545	256.979309
1917.460693	253.802963
1916.662720	266.291901
1915.864624	272.511993
1915.066284	219.225830
1914.267944	278.683350
1913.469360	278.636719
1912.670776	256.678528
1911.871948	234.727646
1911.072998	256.592621
1910.273926	265.935638
1909.474731	247.122345
1908.675415	253.336197
1907.875977	272.056305
1907.076294	246.998260
1906.276611	209.444473
1905.476807	203.158386
1904.676758	262.499176
1903.876587	287.450958
1903.076294	284.278870
1902.275879	271.737610
1901.475342	290.429474
1900.674683	246.667587
1899.873901	262.235535
1899.072998	252.827621
1898.271851	268.389282
1897.470703	258.983490
1896.669312	268.299377
1895.867920	255.777466
1895.066284	274.446899
1894.264526	268.164520
1893.462646	283.707947
1892.660645	289.894684
1891.858521	280.496216
1891.056152	236.823776
1890.253784	252.361984
1889.451172	255.434738
1888.648560	239.819229
1887.845703	286.489227
1887.042725	286.441193
1886.239624	270.828308
1885.436401	255.220673
1884.633057	280.073273
1883.829590	258.246490
1883.025879	227.094345
1882.222168	314.146332
1881.418213	239.457520
1880.614258	286.057098
1879.810059	270.465149
1879.005737	289.069397
1878.201294	267.266632
1877.396729	301.401337
1876.592041	292.030640
1875.787231	291.981628
1874.982178	270.192963
1874.177124	267.042450
1873.371826	270.102264
1872.566406	279.369232
1871.760986	229.665039
1870.955322	288.584625
1870.149536	257.510773
1869.343506	307.099854
1868.537476	316.352783
1867.731323	282.188904
1866.924927	306.945160
1866.118530	288.294006
1865.311890	285.146179
1864.505127	266.504913
1863.698242	260.263397
1862.891235	232.339005
1862.084106	281.857300
1861.276855	343.746216
1860.469482	291.051483
1859.661865	306.481445
1858.854126	241.429642
1858.046387	312.567902
1857.238403	278.479065
1856.430298	275.338562
1855.622070	309.317169
1854.813721	309.265167
1854.005249	269.015472
1853.196533	275.153473
1852.387817	299.835968
1851.578857	339.962982
1850.769775	321.365509
1849.960693	302.774261
1849.151367	315.079407
1848.341919	296.495453
1847.532227	333.501282
1846.722534	268.608643
1845.912720	280.911194
1845.102661	317.900940
1844.292603	308.589783
1843.482300	265.342560
1842.671875	289.976776
1841.861328	280.674988
1841.050659	283.711578
1840.239868	320.663452
1839.428833	292.864441
1838.617798	286.650635
1837.806519	314.338104
1836.995117	311.203949
1836.183716	268.021637
1835.372070	301.858612
1834.560303	304.887482
1833.748291	301.756989
1832.936279	295.548920
1832.124146	301.655365
1831.311768	276.983795
1830.499390	323.093353
1829.686768	347.651428
1828.874023	295.300140
1828.061157	326.005646
1827.248169	316.725708
1826.434937	295.150940
1825.621704	301.249146
1824.808228	282.757660
1823.994751	319.585266
1823.181030	301.096893
1822.367188	291.830475
1821.553223	319.423706
1820.739136	310.157288
1819.924927	310.105011
1819.110474	294.703613
1818.296021	310.000488
1817.481323	303.810638
1816.666626	319.100800
1815.851685	297.572693
1815.036621	303.656982
1814.221436	303.605804
1813.406006	288.223541
1812.590576	306.569092
1811.774902	306.517395
1810.959229	300.336365
1810.143311	294.157440
1809.327271	318.616791
1808.511108	300.184418
1807.694824	318.509308
1806.878418	321.517639
1806.061768	345.955841
1805.245117	306.103943
1804.428223	330.536499
1803.611206	306.000641
1802.794067	333.484406
1801.976807	342.605042
1801.159424	296.670380
1800.341919	314.967926
1799.524170	311.857330
1798.706421	333.203064
1797.888428	320.921234
1797.070313	268.917145
1796.252075	360.532532
1795.433716	332.978058
1794.615234	302.378540
1793.796509	342.027039
1792.977783	277.850037
1792.158813	320.542053
1791.339844	323.540161
1790.520630	314.330261
1789.701294	344.789490
1788.881714	347.781952
1788.062134	341.622803
1787.242432	393.409760
1786.422485	335.408997
1785.602417	356.692932
1784.782349	374.921478
1783.962036	313.905579
1783.141479	350.417877
1782.320923	344.265442
1781.500244	341.161163
1780.679321	335.012329
1779.858398	334.955688
1779.037231	298.364624
1778.215942	325.710358
1777.394531	316.524780
1776.572998	343.858185
1775.751221	352.927460
1774.929443	310.280273
1774.107422	349.766632
1773.285278	328.420929
1772.463013	325.324951
1771.640625	325.269897
1770.818115	310.017914
1769.995483	328.198730
1769.172607	343.334991
1768.349731	322.011963
1767.526611	334.106812
1766.703369	340.123901
1765.880005	358.284149
1765.056519	364.295105
1764.232910	333.880646
1763.409058	324.719849
1762.585083	333.767609
1761.761108	351.913513
1760.936890	400.385529
1760.112549	376.056030
1759.288086	330.509399
1758.463379	345.611847
1757.638672	342.522156
1756.813721	342.464142
1755.988647	363.617126
1755.163574	309.022186
1754.338257	302.911621
1753.512695	351.317932
1752.687134	369.426971
1751.861328	339.088593
1751.035522	360.220581
1750.209473	357.132996
1749.383301	323.786041
1748.557007	375.165100
1747.730591	375.101501
1746.903931	362.939911
1746.077271	356.830414
1745.250366	359.793396
1744.423340	377.870178
1743.596313	344.559174
1742.768921	392.851746
1741.941528	353.506592
1741.114014	347.404846
1740.286255	365.468323
1739.458374	341.247223
1738.630493	347.228088
1737.802368	332.074890
1736.973999	350.128662
1736.145630	344.033569
1735.317139	340.957886
1734.488403	383.135437
1733.659546	364.972626
1732.830566	379.989624
1732.001465	367.864044
1731.172241	355.742523
1730.342896	361.710663
1729.513306	379.731720
1728.683594	343.508484
1727.853882	370.564667
1727.023926	343.391876
1726.193726	373.450531
1725.363525	394.465454
1724.533203	397.409149
1723.702637	388.311157
1722.871948	337.081116
1722.041138	370.124420
1721.210205	358.027039
1720.379150	379.023071
1719.547974	363.920654
1718.716553	369.873016
1717.885010	378.829926
1717.053467	369.747345
1716.221558	381.706787
1715.389648	339.571167
1714.557617	393.595245
1713.725342	378.508179
1712.893066	366.429779
1712.060547	375.376526
1711.227905	357.297699
1710.395142	369.244934
1709.562256	417.205872
1708.729126	381.123291
1707.895874	387.059418
1707.062622	323.994629
1706.229126	338.936737
1705.395508	353.873749
1704.561646	404.786713
1703.727783	386.730408
1702.893677	398.654236
1702.059570	413.570892
1701.225220	371.551208
1700.390747	383.471466
1699.556030	380.410858
1698.721313	392.325562
1697.886353	374.292755
1697.051392	395.185883
1696.216187	457.978424
1695.380859	350.159180
1694.545410	409.945679
1693.709717	379.957947
1692.874023	391.858398
1692.038086	355.902405
1691.202026	403.686066
1690.365845	397.637817
1689.529541	379.634644
1688.692993	391.524963
1687.856445	424.328827
1687.019653	388.403900
1686.182739	394.312164
1685.345703	367.364685
1684.508545	418.067444
1683.671143	426.953278
1682.833740	388.073212
1681.996094	376.068420
1681.158325	408.830139
1680.320435	435.613342
1679.482422	417.640259
1678.644287	390.725372
1677.805908	399.605164
1676.967407	387.610565
1676.128784	393.506744
1675.290039	411.323273
1674.451172	384.432312
1673.612183	378.407593
1672.772949	408.133881
1671.933594	384.235718
1671.094116	390.126343
1670.254517	396.014923
1669.414795	384.039215
1668.574829	407.786041
1667.734863	410.692505
1666.894653	452.279816
1666.054321	437.327576
1665.213867	380.737274
1664.373169	434.204376
1663.532471	389.527863
1662.691528	416.218292
1661.850464	466.679474
1661.009277	436.880096
1660.167969	439.777008
1659.326538	421.876190
1658.484863	409.922394
1657.643066	424.702148
1656.801147	391.965820
1655.959106	406.743561
1655.116943	403.705719
1654.274658	362.085938
1653.432129	394.665649
1652.589478	442.068726
1651.746704	415.295654
1650.903809	427.088287
1650.060791	418.119202
1649.217529	426.942413
1648.374146	438.726959
1647.530640	391.230194
1646.687012	388.200012
1645.843262	438.502167
1644.999390	471.013062
1644.155273	470.932587
1643.311035	420.509430
1642.466675	432.280884
1641.622192	432.207001
1640.777588	420.293884
1639.932739	473.489624
1639.087769	464.532288
1638.242798	446.703064
1637.397461	434.795532
1636.552124	440.635773
1635.706665	402.122284
1634.860962	416.834900
1634.015137	425.630951
1633.169189	431.468689
1632.323120	475.716278
1631.476929	452.000885
1630.630493	437.154846
1629.783936	428.220337
1628.937256	516.729248
1628.090454	448.739471
1627.243530	419.145416
1626.396484	451.537140
1625.549194	445.558441
1624.701782	483.834991
1623.854248	469.003632
1623.006592	477.770966
1622.158691	454.099609
1621.310791	406.850769
1620.462646	456.891846
1619.614380	501.021423
1618.765991	468.522156
1617.917358	521.473083
1617.068726	468.361725
1616.219849	494.788055
1615.370850	485.869324
1614.521729	485.786102
1613.672363	482.759277
1612.822998	500.335480
1611.973389	509.077698
1611.123657	526.643372
1610.273804	570.677673
1609.423828	552.933105
1608.573608	570.482178
1607.723389	632.127075
1606.872925	552.648926
1606.022339	626.032227
1605.171509	708.206116
1604.320679	708.084717
1603.469604	705.025757
1602.618408	701.967834
1601.767090	757.642883
1600.915649	775.129578
1600.064087	689.864441
1599.212280	692.681274
1598.360352	692.562500
1597.508301	677.773315
1596.656128	689.391418
1595.803833	695.139343
1594.951294	653.964050
1594.098633	606.938782
1593.245850	606.834656
1592.392944	636.041199
1591.539795	635.932068
1590.686646	568.431580
1589.833252	585.911377
1588.979736	626.817627
1588.126099	559.353394
1587.272217	611.962280
1586.418335	588.436829
1585.564209	556.138367
1584.709961	529.704041
1583.855591	573.503723
1583.000977	544.149841
1582.146362	558.681641
1581.291504	517.642273
1580.436523	517.553345
1579.581421	511.617432
1578.726074	549.528931
1577.870605	511.441711
1577.015137	531.808044
1576.159424	578.460999
1575.303467	514.099243
1574.447510	490.646790
1573.591309	516.842651
1572.734985	545.948975
1571.878540	572.126282
1571.021973	609.968567
1570.165161	542.749573
1569.308350	536.821289
1568.451294	551.314026
1567.594116	589.133850
1566.736694	548.208557
1565.879272	545.198792
1565.021606	562.595093
1564.163818	542.096863
1563.305908	542.003662
1562.447876	530.256470
1561.589600	591.338196
1560.731201	541.724121
1559.872681	544.542908
1559.014038	617.236633
1558.155273	611.308472
1557.296265	628.666260
1556.437134	532.528381
1555.577881	631.359436
1554.718506	663.249756
1553.859009	683.495056
1552.999268	709.549316
1552.139404	683.259827
1551.279419	668.607300
1550.419312	723.715515
1549.558960	714.872986
1548.698608	685.695068
1547.838013	662.337097
1546.977173	644.796143
1546.116333	665.013062
1545.255249	691.029968
1544.394165	598.015381
1543.532837	629.839783
1542.671265	577.495544
1541.809692	641.228821
1540.947876	568.593689
1540.085938	603.301575
1539.223877	550.997864
1538.361694	536.405518
1537.499268	602.989868
1536.636841	533.322205
1535.774170	553.516235
1534.911377	565.010803
1534.048340	538.840515
1533.185303	547.437134
1532.322021	579.198730
1531.458618	564.621460
1530.594971	506.624207
1529.731323	547.059814
1528.867432	552.753540
1528.003418	489.001251
1527.139282	497.595947
1526.275024	520.650146
1525.410522	511.884369
1524.545898	532.036621
1523.681152	520.380859
1522.816284	531.853088
1521.951172	517.311340
1521.086060	572.122742
1520.220703	525.799927
1519.355225	560.371338
1518.489502	528.506531
1517.623779	545.740417
1516.757813	551.420288
1515.891724	545.552063
1515.025513	585.862244
1514.159058	574.218994
1513.292480	611.625244
1512.425781	614.404175
1511.558960	614.298157
1510.692017	637.260315
1509.824829	683.278809
1508.957520	657.218018
1508.090088	659.986633
1507.222534	642.583374
1506.354736	651.115540
1505.486938	590.511658
1504.618896	584.649597
1503.750610	650.778259
1502.882324	647.786804
1502.013794	546.925476
1501.145142	641.806885
1500.276367	610.042786
1499.407471	601.306213
1498.538330	595.449158
1497.669067	612.602722
1496.799683	598.118958
1495.930176	667.017395
1495.060547	597.912231
1494.190674	612.179321
1493.320679	649.430054
1492.450562	629.206177
1491.580200	600.371521
1490.709717	649.093262
1489.839233	651.852661
1488.968384	737.872986
1488.097534	714.780518
1487.226440	688.825928
1486.355347	680.097961
1485.483887	677.111206
1484.612427	699.943054
1483.740845	748.580017
1482.869019	728.377136
1481.997070	716.782593
1481.124878	788.324463
1480.252686	748.062073
1479.380249	707.813660
1478.507690	756.398621
1477.635010	713.297974
1476.762207	756.136841
1475.889160	718.778381
1475.015991	741.559265
1474.142700	770.057556
1473.269165	744.164673
1472.395630	732.589111
1471.521851	775.380005
1470.647949	829.598755
1469.773804	858.057007
1468.899658	872.206848
1468.025269	894.929382
1467.150757	1009.122559
1466.276001	1014.664124
1465.401245	1057.354126
1464.526245	1128.601318
1463.651123	1205.537354
1462.775879	1265.309326
1461.900391	1367.896484
1461.024780	1447.606079
1460.149048	1470.193115
1459.273193	1581.254028
1458.397217	1652.323853
1457.520996	1706.249390
1456.644653	1606.106812
1455.768188	1625.794189
1454.891479	1608.401733
1454.014648	1556.799805
1453.137695	1479.558594
1452.260620	1419.445801
1451.383423	1387.851929
1450.505981	1333.474365
1449.628418	1293.359741
1448.750732	1333.011841
1447.872803	1176.150391
1446.994873	1198.724976
1446.116699	1172.895508
1445.238403	1078.762817
1444.359863	1052.963013
1443.481201	1155.213013
1442.602417	1086.735962
1441.723511	1080.858521
1440.844482	1100.578125
1439.965210	1191.375122
1439.085815	1282.140625
1438.206299	1313.184326
1437.326538	1236.225098
1436.446777	1329.776733
1435.566772	1323.864014
1434.686646	1249.783325
1433.806274	1198.447754
1432.925781	1104.538330
1432.045166	1095.829712
1431.164429	973.586304
1430.283569	936.523804
1429.402466	831.375183
1428.521240	760.306641
1427.639893	785.702759
1426.758301	723.174744
1425.876709	686.187744
1424.994873	705.913452
1424.112793	714.294250
1423.230713	714.170105
1422.348389	674.376770
1421.465942	759.250244
1420.583374	713.797791
1419.700562	775.978516
1418.817627	707.886536
1417.934570	804.019287
1417.051392	843.507324
1416.167969	803.739685
1415.284546	803.599915
1414.400757	775.169312
1413.516968	794.834656
1412.633057	715.509583
1411.748901	704.074646
1410.864624	638.928467
1409.980103	652.950439
1409.095459	712.185669
1408.210815	695.107849
1407.325806	638.483948
1406.440796	655.320740
1405.555542	742.755859
1404.670166	666.387390
1403.784668	683.210510
1402.899048	762.126953
1402.013184	742.238892
1401.127197	708.249146
1400.241089	767.371399
1399.354736	739.030518
1398.468262	724.800659
1397.581665	769.790344
1396.694946	780.933350
1395.807983	761.065979
1394.920898	710.204529
1394.033691	721.351929
1393.146362	707.139832
1392.258789	661.947876
1391.371094	695.628235
1390.483276	684.243774
1389.595337	678.493896
1388.707153	669.931152
1387.818848	650.113953
1386.930420	650.000671
1386.041748	678.020996
1385.152954	672.277100
1384.264038	677.784668
1383.375000	649.547546
1382.485718	700.039612
1381.596313	640.888367
1380.706787	668.880859
1379.817139	680.003967
1378.927246	671.457031
1378.037231	688.193665
1377.147095	716.158264
1376.256714	786.232666
1375.366333	743.983276
1374.475586	811.221375
1373.584839	777.401794
1372.693970	760.430054
1371.802856	749.075256
1370.911499	791.020081
1370.020142	757.227478
1369.128540	765.507507
1368.236816	815.838135
1367.344971	804.483398
1366.453003	829.566284
1365.560791	826.619385
1364.668457	848.887939
1363.775879	901.961060
1362.883301	988.623169
1361.990479	1061.254272
1361.097534	1069.467896
1360.204346	1066.481934
1359.311035	1111.074463
1358.417603	1110.880493
1357.524048	1135.865723
1356.630249	1015.387268
1355.736450	978.852478
1354.842285	883.609558
1353.948120	894.638123
1353.053711	863.734009
1352.159180	760.176697
1351.264526	723.718201
1350.369751	706.828979
1349.474731	726.258545
1348.579590	751.266968
1347.684204	664.573547
1346.788818	670.041016
1345.893188	675.506592
1344.997314	745.159973
1344.101440	742.239319
1343.205322	680.732056
1342.309082	750.347961
1341.412720	780.894714
1340.516113	764.027649
1339.619385	752.742249
1338.722534	744.248230
1337.825439	813.791992
1336.928223	841.514343
1336.030884	841.367126
1335.133423	899.715332
1334.235718	985.893188
1333.337891	1041.411133
1332.439941	1194.350708
1331.541870	1155.171997
1330.643555	1302.472046
1329.745117	1327.287109
1328.846436	1382.696533
1327.947754	1440.868042
1327.048828	1401.680176
1326.149780	1254.061646
1325.250488	1170.437988
1324.351074	1114.640015
1323.451538	986.603210
1322.551880	1008.659851
1321.651978	905.690125
1320.751953	866.643616
1319.851807	808.170227
1318.951416	794.145020
1318.050903	705.166016
1317.150269	818.848572
1316.249512	765.974915
1315.348511	749.191956
1314.447388	732.414917
1313.546021	754.477051
1312.644653	743.251465
1311.743042	732.029846
1310.841309	737.446228
1309.939331	717.913879
1309.037231	684.531433
1308.135010	737.058411
1307.232666	789.566956
1306.330078	758.959351
1305.427368	775.442871
1304.524536	744.848389
1303.621460	747.486206
1302.718262	783.338867
1301.814941	841.318909
1300.911499	796.899109
1300.007813	868.688965
1299.104004	857.472412
1298.199951	887.743042
1297.295898	923.533142
1296.391602	1022.896118
1295.487061	1260.429077
1294.582520	1340.352661
1293.677734	1403.669312
1292.772827	1334.356934
1291.867676	1154.582275
1290.962402	969.347473
1290.057007	869.774475
1289.151489	734.347290
1288.245728	781.142029
1287.339844	761.686707
1286.433838	756.034424
1285.527588	664.862427
1284.621216	684.053589
1283.714722	686.691223
1282.808105	672.784058
1281.901245	702.990967
1280.994263	606.395447
1280.087036	628.335754
1279.179810	639.246826
1278.272217	586.791565
1277.364624	589.442871
1276.456787	611.370667
1275.548828	605.756287
1274.640747	600.143921
1273.732544	613.800781
1272.824097	555.901123
1271.915405	528.288391
1271.006714	580.464844
1270.097778	572.111145
1269.188721	585.760803
1268.279541	610.403931
1267.370117	555.314880
1266.460571	571.708801
1265.550781	546.875183
1264.640991	598.984009
1263.730957	590.637207
1262.820679	598.773254
1261.910400	595.921753
1260.999878	571.105591
1260.089233	614.928528
1259.178345	592.862427
1258.267334	611.967834
1257.356201	631.066528
1256.444824	666.618103
1255.533447	671.986389
1254.621704	652.671814
1253.709961	638.847778
1252.797974	608.580383
1251.885864	649.586304
1250.973633	654.952637
1250.061157	621.958435
1249.148560	572.539307
1248.235840	629.956177
1247.322876	621.629883
1246.409790	574.974792
1245.496582	654.260803
1244.583130	634.986450
1243.669556	615.718872
1242.755859	596.458008
1241.841919	607.295166
1240.927856	640.009155
1240.013672	680.915344
1239.099365	656.188232
1238.184814	672.474426
1237.270142	653.223755
1236.355225	702.296692
1235.440186	713.101685
1234.525024	693.853943
1233.609741	650.031982
1232.694214	595.302429
1231.778564	660.723816
1230.862671	619.660522
1229.946777	646.844238
1229.030640	641.272522
1228.114258	679.356140
1227.197876	589.216980
1226.281128	616.386780
1225.364380	635.366272
1224.447388	618.895691
1223.530273	667.853271
1222.613037	694.989929
1221.695557	713.942017
1220.777954	697.469116
1219.860229	749.102112
1218.942261	708.117004
1218.024170	781.514221
1217.105957	775.931091
1216.187500	688.687378
1215.268921	694.008972
1214.350220	663.954102
1213.431274	644.792358
1212.512207	633.797791
1211.593018	587.451294
1210.673706	554.717102
1209.754150	541.025513
1208.834351	543.648132
1207.914551	535.398804
1206.994507	521.717834
1206.074219	543.360046
1205.153931	510.668182
1204.233398	575.758057
1203.312744	529.495178
1202.391846	491.393280
1201.470825	583.596069
1200.549683	586.206787
1199.628296	602.383789
1198.706787	591.425476
1197.785156	588.608398
1196.863281	604.776367
1195.941284	596.534851
1195.019165	599.140381
1194.096802	607.166077
1193.174438	490.525116
1192.251709	520.244019
1191.328979	525.570190
1190.406006	455.052460
1189.482788	495.594421
1188.559570	481.968323
1187.636108	487.297455
1186.712402	489.917938
1185.788696	487.125000
1184.864746	495.156097
1183.940552	495.068451
1183.016357	497.685638
1182.091919	513.823547
1181.167236	516.436401
1180.242554	486.607849
1179.317505	518.956482
1178.392456	486.435547
1177.467163	472.839691
1176.541748	537.591064
1175.616211	548.299805
1174.690430	575.207703
1173.764526	642.606506
1172.838501	585.802124
1171.912231	674.767700
1170.985840	696.236877
1170.059204	766.264526
1169.132446	801.197998
1168.205566	927.822449
1167.278564	924.961365
1166.351318	935.582214
1165.423828	965.069397
1164.496338	889.431396
1163.568604	908.137085
1162.640747	872.950317
1161.712646	845.857422
1160.784424	875.334106
1159.856079	824.014587
1158.927490	829.253235
1157.998779	837.181885
1157.069946	869.330505
1156.140869	853.030640
1155.211670	844.807922
1154.282349	850.038025
1153.352783	941.330811
1152.423096	908.895325
1151.493164	1072.736328
1150.563232	994.591492
1149.632935	1010.540649
1148.702637	986.177124
1147.772095	902.715820
1146.841431	827.342651
1145.910522	819.138672
1144.979492	727.695679
1144.048340	727.566467
1143.116943	654.961975
1142.185425	662.897095
1141.253784	614.479675
1140.321899	590.224976
1139.389893	630.355591
1138.457764	624.879883
1137.525391	571.140625
1136.592896	589.805725
1135.660278	576.298645
1134.727417	605.676086
1133.794434	578.773438
1132.861206	610.818970
1131.927856	626.781738
1130.994385	707.012695
1130.060669	781.859924
1129.126831	867.388977
1128.192871	934.151123
1127.258667	917.927979
1126.324341	933.819031
1125.389893	882.823730
1124.455200	789.050598
1123.520386	671.242310
1122.585327	644.385010
1121.650146	580.110718
1120.714844	558.624756
1119.779297	523.784607
1118.843628	545.066589
1117.907837	542.298218
1116.971802	520.834167
1116.035645	536.764343
1115.099365	568.708740
1114.162842	531.234314
1113.226196	475.089844
1112.289307	525.708130
1111.352417	522.946472
1110.415161	538.859070
1109.477905	576.103210
1108.540405	512.000549
1107.602661	567.899536
1106.664917	522.481140
1105.726807	530.383850
1104.788696	578.255310
1103.850342	508.880646
1102.911865	602.023804
1101.973145	588.599854
1101.034302	540.563293
1100.095337	572.415771
1099.156128	524.399170
1098.216797	537.612976
1097.277344	564.126953
1096.337646	566.686951
1095.397827	545.305786
1094.457764	593.080566
1093.517700	563.724976
1092.577271	539.697083
1091.636841	544.917114
1090.696167	499.639801
1089.755249	520.808228
1088.814209	480.864685
1087.873047	507.341339
1086.931763	525.841248
1085.990234	501.849854
1085.048584	544.237427
1084.106689	530.868652
1083.164673	530.773987
1082.222412	440.463806
1081.280151	466.914490
1080.337524	506.617920
1079.394897	511.831512
1078.452026	493.179657
1077.509033	463.930328
1076.565796	500.955353
1075.622437	484.965454
1074.678955	487.528503
1073.735229	463.599243
1072.791382	466.165161
1071.847290	447.544617
1070.903076	476.589630
1069.958740	487.093536
1069.014160	518.767883
1068.069458	518.675232
1067.124512	478.895172
1066.179565	529.071411
1065.234253	584.519531
1064.288940	637.303406
1063.343384	690.068359
1062.397583	729.597107
1061.451660	816.685608
1060.505615	798.042053
1059.559448	774.120972
1058.613037	787.190552
1057.666382	678.764526
1056.719727	673.361938
1055.772827	541.233459
1054.825684	599.209900
1053.878418	527.843872
1052.931030	559.414490
1051.983398	503.910706
1051.035645	524.923035
1050.087769	524.829163
1049.139648	445.629517
1048.191406	458.731781
1047.242920	453.377899
1046.294312	545.537415
1045.345581	526.995056
1044.396606	611.204895
1043.447510	587.389282
1042.498291	579.383484
1041.548828	605.610718
1040.599121	618.665466
1039.649414	631.715515
1038.699341	573.705566
1037.749268	620.964600
1036.798950	607.699829
1035.848511	633.893677
1034.897827	681.116455
1033.947021	680.994568
1032.996094	599.378235
1032.044922	601.899292
1031.093506	586.024048
1030.142090	546.507507
1029.190430	528.020874
1028.238525	535.805786
1027.286499	477.937225
1026.334351	493.604950
1025.381958	459.390381
1024.429443	522.298950
1023.476807	509.084625
1022.523926	467.014557
1021.570923	503.655792
1020.617737	469.469940
1019.664368	430.051819
1018.710815	495.519653
1017.757080	492.809509
1016.803223	476.996033
1015.849121	466.428986
1014.894897	487.304718
1013.940491	450.545074
1012.985962	479.273071
1012.031189	476.568604
1011.076294	489.573334
1010.121216	494.720703
1009.165955	502.483276
1008.210510	439.593994
1007.254944	497.070709
1006.299133	525.754150
1005.343201	543.966370
1004.387085	504.647491
1003.430786	541.156921
1002.474365	541.059814
1001.517700	561.869507
1000.560913	595.736084
999.603943	666.164185
998.646790	692.164001
997.689514	707.708557
996.731995	762.412598
995.774353	707.454529
994.816528	608.145020
993.858521	566.282288
992.900330	581.835388
991.942017	558.252991
990.983459	511.205292
990.024780	482.428528
989.065918	479.734619
988.106873	503.109528
987.147705	489.987549
986.188293	461.235199
985.228760	495.022278
984.269043	500.143127
983.309143	458.382172
982.349060	489.547485
981.388794	499.873535
980.428406	458.135071
979.467834	426.821838
978.507019	556.850342
977.546082	587.969849
976.585022	637.286377
975.623718	691.786499
974.662292	787.870789
973.700623	772.130493
972.738831	803.183228
971.776855	764.056274
970.814758	813.287781
969.852417	698.834045
968.889954	677.928894
967.927246	664.822144
966.964417	594.597168
966.001404	558.145813
965.038208	596.978760
964.074890	539.779297
963.111328	552.655273
962.147644	542.179199
961.183777	562.831116
960.219727	531.611145
959.255493	487.438538
958.291077	521.050537
957.326538	495.038513
956.361755	474.218506
955.396851	476.723999
954.431763	455.914734
953.466492	416.983276
952.501038	442.803070
951.535461	486.736755
950.569641	478.883392
949.603699	439.975739
948.637573	434.721222
947.671265	452.753021
946.704773	455.258118
945.738098	493.969482
944.771240	517.152344
943.804260	465.353210
942.837097	501.456940
941.869751	511.704010
940.902222	506.443970
939.934509	555.437866
938.966614	547.588867
937.998535	534.577576
937.030334	601.614136
936.061951	524.058533
935.093323	469.760864
934.124573	461.934204
933.155640	459.270721
932.186584	451.448761
931.217285	433.312622
930.247864	464.179749
929.278198	433.156281
928.308411	402.143982
927.338440	458.773773
926.368286	468.998657
925.397949	461.184662
924.427429	412.157684
923.456787	471.320251
922.485901	466.085083
921.514893	432.531250
920.543701	432.453156
919.572327	432.375092
918.600769	470.894958
917.629028	403.918884
916.657104	442.429962
915.685059	437.206451
914.712769	465.412201
913.740356	431.906769
912.767761	470.384888
911.794983	421.470947
910.822021	447.089600
909.848877	449.577820
908.875549	413.536865
907.902039	441.711090
906.928406	477.578003
905.954590	467.223053
904.980530	444.038330
904.006348	482.451538
903.031982	436.180511
902.057434	489.973022
901.082703	525.792175
900.107849	548.776489
899.132751	561.496826
898.157532	528.070435
897.182068	525.411987
896.206482	522.754395
895.230713	486.791046
894.254761	527.688477
893.278625	489.176056
892.302307	509.572906
891.325806	450.595978
890.349182	468.432648
889.372314	506.737030
888.395325	460.586670
887.418091	475.853424
886.440735	447.630524
885.463196	452.664337
884.485474	452.582397
883.507568	472.952454
882.529480	467.754730
881.551270	431.891998
880.572815	457.364899
879.594238	444.508850
878.615417	480.186951
877.636475	497.976044
876.657349	495.332581
875.677979	467.162048
874.698486	502.810120
873.718811	454.233429
872.739014	469.459595
871.758972	505.087799
870.778748	512.647766
869.798401	504.904755
868.817810	494.614990
867.837097	489.427155
866.856140	502.081635
865.875061	547.857788
864.893799	486.613312
863.912354	504.355835
862.930725	471.156128
861.948914	519.450928
860.966919	506.627380
859.984741	559.989014
859.002441	511.533508
858.019897	526.707642
857.037231	569.860413
856.054321	554.495667
855.071289	531.507202
854.088074	617.860352
853.104614	546.567383
852.121033	579.510498
851.137268	571.781555
850.153320	658.064636
849.169189	614.759583
848.184937	612.108154
847.200439	683.100403
846.215759	726.138489
845.230896	814.853577
844.245911	951.758911
843.260681	1027.713013
842.275330	1276.162354
841.289795	1352.029785
840.304016	1415.188721
839.318115	1278.002808
838.332031	1135.796143
837.345764	955.619141
836.359314	864.209351
835.372681	843.781311
834.385864	787.892761
833.398865	790.282532
832.411743	749.619019
831.424377	648.201294
830.436829	706.309753
829.449158	718.836914
828.461243	678.215759
827.473206	678.092468
826.484924	667.850220
825.496521	652.553162
824.507935	657.492126
823.519104	601.748718
822.530151	619.334534
821.541016	583.837769
820.551697	626.690186
819.562195	591.204956
818.572510	601.201599
817.582642	626.348206
816.592590	666.636475
815.602356	686.712585
814.611938	679.014954
813.621399	772.270508
812.630615	936.144470
811.639648	1102.481567
810.648560	1309.116211
809.657227	1523.241455
808.665771	1545.657227
807.674072	1590.753906
806.682251	1386.300049
805.690186	1229.802246
804.697998	1078.400635
803.705566	836.364014
802.713013	821.099426
801.720276	727.774597
800.727356	657.143860
799.734253	626.816101
798.740906	566.296875
797.747437	591.357910
796.753784	598.798035
795.759949	601.204407
794.765930	535.703735
793.771729	565.781128
792.777344	532.994385
791.782776	495.192230
790.788025	487.562317
789.793091	497.524445
788.798035	504.970612
787.802734	482.272034
786.807251	509.809204
785.811584	489.628906
784.815796	482.008209
783.819763	484.430298
782.823547	436.660614
781.827148	431.562775
780.830627	421.449554
779.833862	456.487030
778.836975	478.973175
777.839844	443.784180
776.842529	446.209991
775.845093	446.128571
774.847412	466.094208
773.849609	471.019989
772.851563	470.933990
771.853394	443.298401
770.854980	463.249908
769.856445	498.215668
768.857666	443.055634
767.858765	442.974731
766.859680	477.924988
765.860352	472.834167
764.860901	490.256989
763.861206	477.663147
762.861389	502.579865
761.861389	414.990143
760.861145	459.905029
759.860779	457.321960
758.860168	429.754120
757.859436	429.675598
756.858521	447.080658
755.857361	444.501740
754.856079	389.492126
753.854614	446.835541
752.852905	451.745514
751.851074	434.195313
750.848999	444.095612
749.846802	449.003326
748.844421	446.427216
747.841797	516.164978
746.839050	441.277740
745.836121	428.733826
744.832947	391.272675
743.829651	473.428070
742.826111	495.762909
741.822449	445.855896
740.818604	428.341797
739.814514	445.692749
738.810303	445.611176
737.805847	457.974579
736.801270	507.661499
735.796448	485.175842
734.791504	475.136536
733.786316	482.511047
732.781006	497.343018
731.775452	512.169495
730.769775	512.075745
729.763855	502.040558
728.757751	494.493927
727.751526	504.341095
726.745056	474.440918
725.738403	558.794006
724.731628	541.310120
723.724609	466.732361
722.717407	456.718201
721.710083	488.896729
720.702515	459.032104
719.694763	486.236755
718.686829	483.667297
717.678711	513.337341
716.670410	520.681580
715.661987	488.359344
714.653320	495.705383
713.644470	465.877655
712.635437	478.180298
711.626221	458.275330
710.616821	497.818634
709.607178	527.442383
708.597412	475.353821
707.587463	492.594055
706.577332	433.106262
705.567017	425.603516
704.556458	467.583160
703.545776	447.709137
702.534912	415.476959
701.523804	430.236450
700.512573	440.046173
699.501099	472.097717
698.489502	442.355927
697.477661	479.336853
696.465698	459.486023
695.453491	439.642456
694.441101	429.683929
693.428589	414.791077
692.415833	441.868866
691.402893	431.915375
690.389771	436.771301
689.376465	421.888000
688.362976	389.743042
687.349304	414.334198
686.335449	448.779572
685.321411	438.835632
684.307190	409.176025
683.292725	460.854553
682.278137	438.593781
681.263367	440.976715
680.248352	470.452942
679.233215	477.754425
678.217834	433.347015
677.202332	416.035126
676.186584	420.881226
675.170654	438.029724
674.154541	474.855011
673.138306	432.948761
672.121826	432.869141
671.105164	454.920807
670.088318	425.334198
669.071289	440.004700
668.054016	454.669800
667.036621	486.530060
666.019043	395.540039
665.001282	437.224670
663.983276	446.967682
662.965149	454.251678
661.946777	429.618439
660.928223	407.448761
659.909546	468.725250
658.890625	453.917297
657.871521	451.380585
656.852234	448.844788
655.832764	394.812592
654.813110	394.739899
653.793274	448.596863
652.773254	443.612457
651.752991	436.179413
650.732605	421.399109
649.711975	448.266449
648.691223	399.202026
647.670227	475.036346
646.649048	445.570557
645.627747	413.667847
644.606201	447.853638
643.584473	440.430573
642.562561	489.277130
641.540466	454.943848
640.518127	457.305481
639.495667	479.226471
638.473022	442.469391
637.450134	464.384979
636.427063	474.074066
635.403870	493.532501
634.380432	459.242554
633.356812	434.734589
632.333008	488.375732
631.309021	522.465637
630.284851	488.195557
629.260498	500.308136
628.235901	507.536041
627.211182	465.968750
626.186218	517.105469
625.161133	512.132568
624.135803	480.340485
623.110291	470.500519
622.084595	482.600555
621.058716	465.452972
620.032654	475.112946
619.006409	467.717163
617.979919	477.373108
616.953308	411.536499
615.926453	499.108917
614.899414	479.542908
613.872253	496.490784
612.844849	515.865723
611.817261	486.575867
610.789490	532.702148
609.761475	505.851929
608.733337	488.737762
607.705017	534.838013
606.676453	476.403992
605.647705	466.595215
604.618774	507.814453
603.589722	490.715576
602.560425	485.767212
601.530884	444.394836
600.501221	485.587616
599.471375	487.925323
598.441284	449.002441
597.411011	470.758759
596.380615	499.785400
595.349976	485.138794
594.319153	472.922852
593.288147	482.534546
592.256897	453.353119
591.225525	465.388733
590.193970	479.843323
589.162170	453.101501
588.130188	494.201111
587.098022	484.421204
586.065674	457.693329
585.033142	462.451019
584.000427	452.682373
582.967468	479.222015
581.934387	450.094940
580.901062	440.333923
579.867554	483.793823
578.833862	534.493225
577.799988	464.270081
576.765930	512.536621
575.731628	495.521454
574.697205	512.346741
573.662537	553.328674
572.627747	497.661957
571.592712	504.815918
570.557434	485.402863
569.522034	478.069427
568.486450	506.949371
567.450623	487.546631
566.414673	477.803680
565.378479	497.016754
564.342102	448.679504
563.305542	484.773438
562.268799	528.088074
561.231812	508.702850
560.194702	535.123657
559.157349	510.924225
558.119812	530.106018
557.082092	525.189453
556.044189	520.274719
555.006042	541.852295
553.967773	508.042755
552.929260	493.504486
551.890625	536.737000
550.851746	507.760040
549.812683	490.823822
548.773376	500.354919
547.733948	562.794800
546.694275	531.429810
545.654419	557.777466
544.614441	502.387299
543.574158	533.537231
542.533752	504.603638
541.493164	528.534241
540.452332	574.073730
539.411316	578.770203
538.370178	564.256165
537.328735	592.959106
536.287170	621.651367
535.245422	611.936829
534.203430	604.625244
533.161255	611.709473
532.118896	602.002197
531.076355	604.288269
530.033630	592.188354
528.990723	668.784790
527.947571	601.554749
526.904236	608.631531
525.860718	606.122620
524.817017	603.614685
523.773132	629.845764
522.729004	610.573425
521.684692	596.096130
520.640198	615.133423
519.595520	636.556641
518.550659	559.874268
517.505615	578.907532
516.460327	574.016357
515.414856	578.692139
514.369202	542.721802
513.323364	540.230469
512.277283	590.318970
511.231079	540.029419
510.184631	561.430481
509.138000	503.999084
508.091187	518.234314
507.044159	496.648285
505.996948	539.526978
504.949554	515.558105
503.901947	572.735718
502.854126	541.611633
501.806152	505.728119
500.757965	534.254761
499.709564	562.770691
