#Wave		#Intensity
3200.600830	63.147785
3200.007080	12.629557
3199.413086	37.882946
3198.819092	50.502956
3198.224854	21.039719
3197.630615	29.451153
3197.036377	33.653374
3196.442139	33.648285
3195.847656	21.027000
3195.252930	8.409529
3194.658447	37.837154
3194.063721	25.220957
3193.468750	33.622856
3192.873779	50.426659
3192.278809	37.814278
3191.683838	4.200951
3191.088623	46.203472
3190.493164	20.998402
3189.897949	41.990452
3189.302490	25.190460
3188.706787	8.395550
3188.111328	20.985701
3187.515381	46.161556
3186.919678	62.938053
3186.323730	29.366648
3185.727783	54.529808
3185.131592	37.745693
3184.535400	29.353319
3183.939209	16.770788
3183.342773	16.768250
3182.746338	12.574285
3182.149902	-12.572381
3181.553223	16.760637
3180.956543	33.516201
3180.359619	12.566673
3179.762695	37.694313
3179.165771	8.375246
3178.568604	50.243870
3177.971436	29.304487
3177.374268	54.414379
3176.776855	29.295614
3176.179443	16.737816
3175.581787	50.205845
3174.984131	50.198246
3174.386475	66.920860
3173.788574	4.181920
3173.190674	0.000000
3172.592773	33.445229
3171.994629	33.440163
3171.396484	29.255711
3170.798340	12.536263
3170.199951	54.315575
3169.601563	54.307346
3169.002930	29.237988
3168.404297	62.643337
3167.805664	41.755898
3167.206787	20.874786
3166.607910	45.917572
3166.008789	33.389538
3165.409912	12.519178
3164.810547	25.034563
3164.211426	29.202564
3163.612061	29.198137
3163.012695	29.193712
3162.413086	20.849491
3161.813477	25.015596
3161.213623	25.011805
3160.614014	16.672009
3160.013916	16.669481
3159.414063	20.833693
3158.813965	33.328854
3158.213867	20.827375
3157.613525	45.813278
3157.013184	20.821060
3156.412598	12.490742
3155.812256	45.792439
3155.211426	24.973906
3154.610840	37.455177
3154.010010	33.288441
3153.409180	20.802120
3152.808105	33.278343
3152.207031	49.909943
3151.605957	37.426777
3151.004639	62.368500
3150.403320	24.943615
3149.801758	12.469915
3149.200195	12.468023
3148.598633	54.019905
3147.996826	54.011707
3147.395020	74.774094
3146.793213	29.074400
3146.191162	24.917131
3145.589111	16.608900
3144.986816	49.819138
3144.384766	12.452894
3143.782227	24.902008
3143.179932	16.598818
3142.577393	37.341671
3141.974609	70.523560
3141.371826	24.886889
3140.769043	41.471851
3140.166260	12.439666
3139.563232	12.437778
3138.960205	37.307667
3138.356934	37.301998
3137.753662	24.864223
3137.150391	33.147263
3136.546875	8.285557
3135.943359	20.710747
3135.339600	33.132160
3134.735840	62.113365
3134.132080	37.262356
3133.528076	24.837797
3132.924072	45.529045
3132.320068	41.383751
3131.715820	37.239716
3131.111572	20.685589
3130.507080	62.047337
3129.902588	24.815163
3129.298096	-8.270464
3128.693604	74.422859
3128.088867	28.937826
3127.483887	45.466812
3126.878906	49.592621
3126.273926	57.849262
3125.668945	45.446083
3125.063721	41.308342
3124.458252	70.213501
3123.853027	33.036625
3123.247559	28.902651
3122.641846	33.026581
3122.036133	37.149254
3121.430420	57.778938
3120.824707	66.023033
3120.218750	41.258118
3119.612549	33.001476
3119.006592	20.622786
3118.400391	37.115368
3117.793945	28.863117
3117.187500	20.613377
3116.581055	24.732288
3115.974609	32.971367
3115.367920	41.207939
3114.760986	45.321838
3114.154297	45.314941
3113.547363	20.594566
3112.940186	45.301151
3112.333008	20.588299
3111.725830	57.638466
3111.118408	45.280472
3110.510986	20.578901
3109.903564	41.151539
3109.295898	24.687164
3108.688232	65.822418
3108.080566	16.453100
3107.472656	20.563244
3106.864746	12.336067
3106.256592	49.336758
3105.648438	32.886166
3105.040039	8.220289
3104.431885	36.985668
3103.823486	32.871143
3103.214844	41.082672
3102.606201	16.430567
3101.997559	28.749113
3101.388672	16.425562
3100.779785	16.423061
3100.170898	53.366817
3099.561768	36.940628
3098.952637	36.935001
3098.343262	32.826111
3097.733887	4.102639
3097.124512	41.020138
3096.514893	41.013889
3095.905273	-4.100764
3095.295410	82.002777
3094.685791	24.597086
3094.075684	20.494448
3093.465820	73.768768
3092.855713	53.269321
3092.245361	36.873142
3091.635254	16.385565
3091.024658	20.478834
3090.414307	45.046566
3089.803711	36.850662
3089.193115	49.126728
3088.582275	57.305779
3087.971436	16.370583
3087.360596	24.552130
3086.749512	20.456989
3086.138428	69.543159
3085.527100	20.450750
3084.915771	16.358105
3084.304443	40.889027
3083.692871	16.353115
3083.081299	16.350622
3082.469482	20.435160
3081.857910	69.468941
3081.245850	36.772064
3080.634033	36.766457
3080.021973	32.676308
3079.409668	49.006985
3078.797607	40.832924
3078.185059	32.661354
3077.572754	61.230694
3076.960205	73.465622
3076.347656	53.050407
3075.734863	53.042309
3075.122070	40.795551
3074.509033	57.105053
3073.895996	20.391548
3073.282959	40.776871
3072.669922	16.308260
3072.056641	36.687981
3071.443115	32.606560
3070.829834	28.526384
3070.216064	28.522030
3069.602539	52.961395
3068.988770	48.879978
3068.375000	44.799805
3067.760986	48.865051
3067.146973	40.714657
3066.532715	20.354219
3065.918701	-12.210666
3065.304199	24.417603
3064.689941	65.103661
3064.075439	56.957001
3063.460693	28.474150
3062.846191	32.536915
3062.231445	60.997395
3061.616455	44.724586
3061.001465	32.522003
3060.386475	60.969440
3059.771240	60.960121
3059.156006	28.443710
3058.540771	24.376596
3057.925293	28.435017
3057.309814	56.861343
3056.694092	52.791748
3056.078369	40.602829
3055.462646	24.357973
3054.846680	36.531376
3054.230713	44.642632
3053.614502	48.693607
3052.998291	77.086426
3052.382080	16.226240
3051.765625	60.839096
3051.149170	64.885117
3050.532715	24.328197
3049.916016	36.486713
3049.299316	36.481136
3048.682373	28.369877
3048.065430	36.469975
3047.448486	40.515999
3046.831299	32.407841
3046.214111	36.453243
3045.596680	52.646629
3044.979248	64.785942
3044.361816	64.776031
3043.744141	76.909767
3043.126465	60.708946
3042.508545	40.466438
3041.890869	52.598316
3041.272705	56.635674
3040.654785	0.000000
3040.036621	40.441673
3039.418213	52.566128
3038.799805	56.601009
3038.181396	12.126931
3037.562988	24.250151
3036.944336	16.164291
3036.325439	36.364090
3035.706543	36.358521
3035.087646	36.352955
3034.468750	52.501785
3033.849609	76.721626
3033.230469	80.747238
3032.611084	40.367439
3031.991699	68.614136
3031.372070	40.355076
3030.752441	44.383785
3030.132813	52.445530
3029.513184	32.269230
3028.893066	32.264286
3028.273193	48.389015
3027.653076	40.318001
3027.032959	64.498917
3026.412598	52.397343
3025.792480	72.539047
3025.171875	24.175978
3024.551270	36.258411
3023.930664	36.252853
3023.310059	48.329731
3022.689209	68.456627
3022.068115	40.262432
3021.447266	40.256264
3020.826172	36.225082
3020.204834	60.365883
3019.583496	40.237751
3018.962158	68.393692
3018.340576	96.541000
3017.718994	52.285023
3017.097412	48.255699
3016.475586	68.351761
3015.853760	44.220829
3015.231689	16.077835
3014.609619	24.113054
3013.987549	48.218712
3013.365234	64.281754
3012.742920	4.016994
3012.120361	68.278419
3011.497803	40.157612
3010.875244	60.227180
3010.252441	40.145294
3009.629639	76.264359
3009.006836	44.146275
3008.383789	64.202911
3007.760498	56.168926
3007.137451	60.171761
3006.514160	56.151691
3005.890625	68.173737
3005.267090	16.038416
3004.643555	64.143822
3004.019775	64.133972
3003.395996	80.155167
3002.772217	76.135719
3002.148193	84.137085
3001.524170	80.118256
3000.899902	32.042385
3000.275635	96.112389
2999.651367	68.069160
2999.026855	52.044895
2998.402344	64.045418
2997.777588	44.024464
2997.152832	28.011265
2996.528076	28.006964
2995.903076	92.008751
2995.278076	59.996490
2994.653076	51.988972
2994.027832	31.988298
2993.402344	83.956383
2992.777100	79.946182
2992.151367	59.950424
2991.525879	55.945133
2990.900146	55.936535
2990.274414	63.917648
2989.648438	83.879021
2989.022461	71.885254
2988.396240	71.874214
2987.770264	67.870766
2987.143799	75.843903
2986.517578	59.867565
2985.891113	79.811150
2985.264404	47.879330
2984.637695	99.733269
2984.010986	79.774353
2983.384033	63.809669
2982.757080	91.712296
2982.130127	55.816296
2981.502930	107.629158
2980.875732	75.727394
2980.248291	75.715752
2979.620850	103.595093
2978.993408	107.562973
2978.365723	75.680824
2977.738037	107.529892
2977.110107	83.621498
2976.482178	95.552727
2975.854248	119.422531
2975.226074	159.205551
2974.597900	123.365318
2973.969482	119.367424
2973.341309	135.262268
2972.712646	135.241455
2972.083984	151.128952
2971.455322	151.105698
2970.826660	151.082443
2970.197754	206.712585
2969.568604	182.832993
2968.939697	190.752884
2968.310547	174.829895
2967.681152	190.694168
2967.051758	182.720459
2966.422363	262.123779
2965.792725	230.315735
2965.163086	226.309921
2964.533203	238.184296
2963.903564	190.518097
2963.273438	230.173920
2962.643311	293.624939
2962.013184	261.841400
2961.383057	257.834381
2960.752686	269.692902
2960.122314	313.271423
2959.491699	309.258331
2958.861084	313.174927
2958.230225	317.090302
2957.599609	324.967499
2956.968506	269.443726
2956.337646	336.752777
2955.706299	289.166656
2955.075195	340.609589
2954.443848	320.757263
2953.812500	340.504639
2953.180908	292.947205
2952.549316	340.399689
2951.917725	360.134857
2951.285889	344.251678
2950.653809	363.980164
2950.021973	387.658234
2949.389893	336.182343
2948.757568	367.766357
2948.125244	332.124847
2947.492920	347.886688
2946.860352	312.259216
2946.227783	312.211060
2945.595215	300.308624
2944.962402	300.262329
2944.329590	240.962860
2943.696533	229.076889
2943.063477	280.378479
2942.430420	252.696533
2941.797119	244.762009
2941.163574	268.407257
2940.530273	224.953720
2939.896729	201.243332
2939.262939	197.266953
2938.629150	181.457596
2937.995361	209.038452
2937.361328	197.175659
2936.727295	201.088135
2936.093262	216.826294
2935.458984	204.967773
2934.824707	287.698822
2934.190186	224.606873
2933.555664	260.030975
2932.921143	259.990845
2932.286377	228.441528
2931.651367	255.972534
2931.016602	283.495056
2930.381592	311.009033
2929.746338	279.471313
2929.111084	326.655457
2928.475830	314.800018
2927.840332	283.276276
2927.204834	338.305511
2926.569336	326.453735
2925.933594	373.594147
2925.297607	381.400391
2924.661865	369.547424
2924.025879	381.282562
2923.389648	463.756653
2922.753418	444.037323
2922.117188	400.750549
2921.480713	408.545288
2920.844238	369.205017
2920.207764	443.763000
2919.571045	479.032928
2918.934082	423.996399
2918.297363	400.379181
2917.660156	408.166656
2917.023193	404.179504
2916.385986	427.657837
2915.748779	384.440277
2915.111328	345.158325
2914.473877	454.911102
2913.836182	407.788269
2913.198486	395.963928
2912.560791	399.822540
2911.922852	431.114532
2911.284912	395.780304
2910.646729	387.883087
2910.008545	419.162354
2909.370361	442.598328
2908.731934	450.362274
2908.093506	481.617340
2907.455078	458.052948
2906.816406	501.040253
2906.177490	504.876526
2905.538574	500.885254
2904.899658	536.020813
2904.260498	555.497681
2903.621338	571.057129
2902.982178	590.522522
2902.342773	578.700745
2901.703369	590.339783
2901.063721	617.610962
2900.424072	523.715576
2899.784424	570.527161
2899.144531	570.438904
2898.504639	609.415710
2897.864502	617.133179
2897.224365	527.215759
2896.583984	562.276367
2895.943848	523.148438
2895.303223	577.716248
2894.662842	511.277802
2894.021973	565.830566
2893.381348	554.037903
2892.740479	577.358582
2892.099609	538.264465
2891.458496	565.480164
2890.817383	612.183716
2890.176025	592.595642
2889.534668	576.911621
2888.893311	608.001892
2888.251709	678.050903
2887.610107	596.124817
2886.968262	627.197571
2886.326416	666.050720
2885.684570	732.152832
2885.042480	716.464111
2884.400391	720.246338
2883.758057	766.846130
2883.115723	786.187378
2882.473389	797.739807
2881.830811	747.035645
2881.188232	735.249268
2880.545410	820.706604
2879.902588	832.246399
2879.259766	808.786987
2878.616699	738.681274
2877.973633	758.002747
2877.330322	742.338867
2876.687012	726.679810
2876.043457	738.223328
2875.399902	738.108826
2874.756348	644.774048
2874.112549	687.393433
2873.468750	652.340027
2872.824707	667.768372
2872.180664	535.684570
2871.536621	675.323608
2870.892334	601.488037
2870.248047	566.475037
2869.603760	597.422058
2868.958984	597.329407
2868.314453	601.114868
2867.669678	608.776733
2867.024902	604.805359
2866.379883	631.846008
2865.734863	627.872192
2865.089844	627.774780
2864.444580	647.050110
2863.799316	604.336243
2863.153809	553.888855
2862.508301	596.403137
2861.862549	495.634766
2861.216797	468.457001
2860.571045	449.029541
2859.925049	414.126740
2859.279053	402.453217
2858.632813	383.045044
2857.986572	355.905762
2857.340332	363.586395
2856.693848	344.193237
2856.047363	340.273041
2855.400635	305.424957
2854.753906	328.570740
2854.107178	305.330078
2853.460205	343.926025
2852.813232	297.507782
2852.166016	243.377640
2851.518799	262.652496
2850.871338	278.059448
2850.223877	301.184265
2849.576416	285.694519
2848.928711	324.251495
2848.281006	301.043915
2847.633301	293.279236
2846.985352	281.658661
2846.337158	316.334534
2845.688965	343.285339
2845.040771	308.523132
2844.392578	323.898926
2843.743896	354.691284
2843.095459	366.200378
2842.446777	389.268311
2841.798096	400.768402
2841.149170	489.323792
2840.500244	396.791443
2839.851074	439.098938
2839.202148	412.072662
2838.552734	477.467865
2837.903320	477.393616
2837.253906	427.277832
2836.604492	523.430176
2835.954834	500.259827
2835.304932	419.383362
2834.655029	430.859009
2834.005127	380.789337
2833.354980	365.347046
2832.704834	299.922485
2832.054688	338.321442
2831.404297	288.297272
2830.753906	230.601929
2830.103271	249.779892
2829.452637	238.214508
2828.801758	230.494293
2828.150879	215.094528
2827.500000	188.178421
2826.848877	203.508240
2826.197754	176.602295
2825.546387	176.574799
2824.895020	184.223282
2824.243408	176.519836
2823.591797	141.961243
2822.940186	138.102936
2822.288330	168.766205
2821.636475	145.729935
2820.984619	149.541641
2820.332520	103.512703
2819.680176	122.662613
2819.028076	107.313072
2818.375488	149.448502
2817.723145	88.122566
2817.070557	111.093750
2816.417725	153.208893
2815.764893	145.525772
2815.112061	126.357956
2814.458984	95.710808
2813.805908	88.040222
2813.152832	99.508224
2812.499512	95.666069
2811.845947	122.433487
2811.192383	103.287155
2810.538818	118.570473
2809.885010	130.024765
2809.231201	130.004501
2808.577393	87.930511
2807.923340	103.206688
2807.269287	129.943710
2806.614990	80.246841
2805.960693	106.979103
2805.306152	103.142342
2804.651611	118.404221
2803.997070	95.472382
2803.342285	99.275795
2802.687500	110.713425
2802.032471	95.427727
2801.377441	125.944946
2800.722412	103.029793
2800.067139	91.567757
2799.411621	72.479828
2798.756348	129.680511
2798.100586	68.643677
2797.445068	80.071800
2796.789307	102.933395
2796.133301	114.352592
2795.477539	125.768219
2794.821289	102.885216
2794.165283	99.059189
2793.509033	68.568733
2792.852539	64.749252
2792.196045	91.396446
2791.539551	76.151817
2790.882813	110.402893
2790.226074	106.579262
2789.569092	60.892925
2788.912109	110.351196
2788.255127	102.724731
2787.597900	87.492584
2786.940430	95.085793
2786.283203	95.070938
2785.625488	102.660583
2784.968018	83.636299
2784.310303	79.822182
2783.652588	114.013878
2782.994629	110.196198
2782.336426	98.781158
2781.678467	83.570999
2781.020264	106.346474
2780.361816	91.139885
2779.703369	98.719444
2779.044922	106.296638
2778.386230	117.667175
2777.727539	79.697563
2777.068604	94.863228
2776.409668	64.496918
2775.750732	72.073517
2775.091553	72.062256
2774.432373	102.388252
2773.772949	109.955376
2773.113525	109.938187
2772.453857	106.130623
2771.794189	94.744675
2771.134521	75.783890
2770.474609	60.617630
2769.814697	87.124222
2769.154541	79.535759
2768.494385	113.604744
2767.833984	60.579723
2767.173584	87.069733
2766.513184	98.411263
2765.852539	79.473587
2765.191895	113.515938
2764.531006	71.882179
2763.870117	83.218979
2763.209229	79.423866
2762.548096	86.974442
2761.886719	102.084450
2761.225586	109.629105
2760.563965	94.493065
2759.902588	94.478279
2759.240967	98.242035
2758.579102	124.672295
2757.917236	83.101852
2757.255371	90.642380
2756.593262	79.299667
2755.931152	120.818672
2755.269043	109.474785
2754.606689	120.780853
2753.944092	90.571457
2753.281494	79.237617
2752.618896	139.587280
2751.956055	71.668732
2751.293213	135.772110
2750.630371	109.354851
2749.967285	113.107994
2749.303955	116.859955
2748.640625	105.534393
2747.977295	97.980873
2747.313721	128.108765
2746.650146	105.484810
2745.986572	124.301910
2745.322754	109.217896
2744.658691	128.028503
2743.994873	131.773407
2743.330566	150.574585
2742.666504	131.732117
2742.002197	97.842804
2741.337646	139.216019
2740.673096	101.574142
2740.008545	157.979462
2739.343750	120.346436
2738.678955	112.807098
2738.013916	139.106949
2737.348877	131.567032
2736.683594	101.478653
2736.018311	131.525772
2735.353027	131.505157
2734.687500	123.971130
2734.021973	116.439468
2733.356201	150.220917
2732.690430	168.972031
2732.024658	116.384697
2731.358643	120.120201
2730.692383	146.373535
2730.026367	135.092834
2729.359863	168.839554
2728.693604	120.044846
2728.027100	153.783340
2727.360352	142.508530
2726.693604	149.985443
2726.026855	149.961914
2725.359863	176.177597
2724.692871	142.419113
2724.025635	191.111435
2723.358398	187.334747
2722.691162	209.781998
2722.023682	164.802841
2721.355957	168.521896
2720.688477	161.006760
2720.020508	190.931534
2719.352783	149.726715
2718.684814	183.386429
2718.016602	164.647675
2717.348389	190.811661
2716.680176	187.040878
2716.011719	138.388519
2715.343262	186.982132
2714.674561	164.518433
2714.005859	179.446472
2713.337158	127.087952
2712.668213	183.127396
2711.999023	145.731567
2711.329834	123.291954
2710.660645	156.892380
2709.991455	186.747299
2709.321777	119.499496
2708.652344	141.883347
2707.982666	182.926102
2707.312988	145.571365
2706.643066	111.960381
2705.972900	126.868484
2705.302979	156.695267
2704.632813	138.019363
2703.962402	100.701004
2703.291992	104.414261
2702.621582	156.596771
2701.950928	152.844238
2701.280273	126.728958
2700.609375	126.709030
2699.938477	130.415253
2699.267334	104.315804
2698.596191	152.724121
2697.925049	152.700104
2697.253662	130.333252
2696.582031	107.973419
2695.910645	111.679077
2695.239014	100.495354
2694.567139	156.301514
2693.895264	141.393417
2693.223145	119.049408
2692.551270	141.348938
2691.878906	126.450203
2691.206543	126.430305
2690.534180	130.128357
2689.861816	126.390518
2689.189209	133.804199
2688.516357	133.783142
2687.843506	126.330856
2687.170654	133.741028
2686.497559	137.434418
2685.824463	118.843491
2685.151123	148.530975
2684.477783	115.093391
2683.804199	96.514740
2683.130615	103.922592
2682.457031	129.882782
2681.783203	96.469162
2681.109375	126.132118
2680.435303	137.239807
2679.761230	152.052597
2679.086914	137.196579
2678.412598	114.930382
2677.738281	114.912277
2677.063721	140.838028
2676.389160	118.581764
2675.714355	129.678375
2675.039551	100.021835
2674.364502	148.157150
2673.689453	170.353882
2673.014404	114.785614
2672.339111	107.363174
2671.663574	125.854225
2670.988037	144.339447
2670.312500	155.417984
2669.636719	144.293961
2668.960938	103.579330
2668.285156	70.274895
2667.609131	92.452393
2666.932861	96.135330
2666.256592	129.392548
2665.580322	133.068497
2664.903809	114.568687
2664.227295	114.550621
2663.550781	147.783951
2662.874023	99.738434
2662.197021	110.803009
2661.520020	125.556938
2660.843018	162.459824
2660.165771	129.209015
2659.488525	110.733116
2658.811035	99.644089
2658.133545	125.457939
2657.455811	129.127502
2656.778076	140.173462
2656.100342	173.345078
2655.422363	103.253120
2654.744385	143.794144
2654.066162	162.203690
2653.387939	129.005310
2652.709473	125.299660
2652.031006	103.171669
2651.352539	128.944229
2650.673828	114.189720
2649.994873	132.586487
2649.316162	139.930298
2648.636963	128.862823
2647.958008	125.161270
2647.278809	136.183411
2646.599365	92.001282
2645.919922	132.460938
2645.240479	128.761124
2644.560791	121.384171
2643.880859	136.075912
2643.201172	132.377274
2642.520996	158.092331
2641.841064	143.363419
2641.160889	139.665359
2640.480469	143.318115
2639.800049	121.250023
2639.119629	150.620163
2638.438965	132.230957
2637.758301	161.590073
2637.077393	95.469955
2636.396484	113.811577
2635.715332	88.098259
2635.034180	117.445786
2634.353027	135.775223
2633.671631	84.387474
2632.989990	110.053223
2632.308350	135.710846
2631.626709	102.683868
2630.944824	102.667633
2630.262939	139.312622
2629.581055	146.621674
2628.898926	117.278793
2628.216553	106.267097
2627.534180	95.258881
2626.851807	128.212830
2626.169189	106.216690
2625.486572	87.889565
2624.803711	113.506065
2624.120850	146.436264
2623.437988	98.828842
2622.754883	135.410690
2622.071533	109.775085
2621.388184	128.050674
2620.704834	109.740349
2620.021240	128.010147
2619.337646	109.705627
2618.653809	109.688263
2617.969971	142.572174
2617.286133	138.894485
2616.602051	135.217972
2615.917725	109.618835
2615.233398	94.987953
2614.549072	120.542549
2613.864502	164.350174
2613.179932	171.627457
2612.495117	142.391724
2611.810303	135.068192
2611.125488	102.197586
2610.440430	109.480072
2609.755127	127.706520
2609.069824	134.982666
2608.384521	127.666077
2607.698975	109.410736
2607.013428	142.211426
2606.327637	109.376076
2605.641846	127.585205
2604.956055	164.012131
2604.270020	116.612373
2603.583740	112.950340
2602.897461	116.575424
2602.211182	112.914543
2601.524658	120.180305
2600.838135	109.237511
2600.151367	112.860870
2599.464600	134.683563
2598.777832	134.662216
2598.090820	120.085098
2597.403564	145.534622
2596.716309	134.598190
2596.029053	127.302422
2595.341553	123.645607
2594.654053	123.625999
2593.966309	149.054779
2593.278564	101.777367
2592.590820	116.298538
2591.902832	109.012589
2591.214600	141.693893
2590.526367	134.406219
2589.838135	167.073120
2589.149658	137.995026
2588.461182	159.758377
2587.772461	112.539185
2587.083740	159.707687
2586.394775	145.165771
2585.705811	123.371330
2585.016846	119.723763
2584.327637	130.587021
2583.638184	148.700500
2582.948975	130.545578
2582.259277	137.776230
2581.569824	148.629715
2580.879883	130.483414
2580.190186	144.958572
2579.500244	123.195221
2578.810059	126.798477
2578.119873	112.289391
2577.429688	94.163246
2576.739258	119.495918
2576.048584	97.753860
2575.358154	104.978218
2574.667236	86.864723
2573.976563	112.182449
2573.285645	108.546417
2572.594482	141.087936
2571.903320	112.129005
2571.212158	144.659607
2570.520752	86.781975
2569.829102	108.460236
2569.137451	144.590668
2568.445801	155.410278
2567.753906	122.863022
2567.062012	144.521759
2566.370117	111.986565
2565.677979	122.804459
2564.985596	93.894363
2564.293213	115.543930
2563.600830	129.966263
2562.908203	140.774399
2562.215332	93.834686
2561.522705	97.428215
2560.829590	126.275757
2560.136719	151.506821
2559.443604	147.876007
2558.750244	104.578590
2558.056885	155.040146
2557.363525	122.570389
2556.669922	100.924263
2555.976074	136.946869
2555.282227	104.495461
2554.588379	104.478836
2553.894287	133.279388
2553.200195	133.258179
2552.505859	118.832985
2551.811523	118.814079
2551.117188	147.594009
2550.422607	133.173401
2549.727783	125.954788
2549.032959	118.738472
2548.338135	125.914703
2547.643066	115.103699
2546.947998	125.874634
2546.252686	104.279518
2545.557373	129.429840
2544.861816	150.977432
2544.166260	143.765152
2543.470703	100.619583
2542.774902	158.091309
2542.078857	122.142021
2541.382813	89.796005
2540.686768	93.372978
2539.990479	104.130196
2539.294189	150.785233
2538.597656	125.634354
2537.901123	154.326187
2537.204346	154.301605
2536.507568	121.986488
2535.810791	143.490662
2535.113770	136.294403
2534.416504	118.342079
2533.719238	111.152122
2533.021973	150.569199
2532.324463	136.207565
2531.626953	111.098991
2530.929199	146.913971
2530.231445	96.732803
2529.533447	136.120758
2528.835449	132.517517
2528.137451	164.725250
2527.439209	121.734032
2526.740723	146.773529
2526.042236	125.274498
2525.343750	118.097122
2524.645020	146.703339
2523.946289	96.594109
2523.247314	150.233551
2522.548340	135.903915
2521.849121	135.882233
2521.149902	107.258347
2520.450684	117.965363
2519.751221	132.243103
2519.051514	117.927734
2518.351807	114.335922
2517.652100	85.738266
2516.952148	96.440155
2516.252197	107.138634
2515.552002	142.828720
2514.851807	110.674599
2514.151367	139.213562
2513.450928	135.622345
2512.750244	128.463821
2512.049561	114.171837
2511.348877	128.422821
2510.647949	149.802704
2509.946777	114.117172
2509.245605	110.533363
2508.544434	139.035904
2507.843018	92.675804
2507.141602	142.555405
2506.439941	138.969315
2505.738281	138.947128
2505.036377	131.800583
2504.334473	135.341156
2503.632568	131.758499
2502.930420	153.100281
2502.228027	149.515930
2501.525635	106.780029
2500.823242	149.468155
2500.120605	124.536903
2499.417969	170.766190
2498.715088	131.611237
2498.012207	120.920731
2497.309082	128.013260
2496.605957	135.103516
2495.902588	156.410645
2495.199219	145.722992
2494.495605	159.914307
2493.791992	131.464081
2493.088379	120.785522
2492.384521	142.077911
2491.680664	131.401047
2490.976563	170.438980
2490.272461	120.708313
2489.568115	131.338043
2488.863770	156.160812
2488.159180	152.587296
2487.454590	149.014923
2486.749756	138.348862
2486.044922	120.592545
2485.339844	120.573257
2484.634766	159.556732
2483.929688	141.805511
2483.224365	127.604553
2482.519043	127.584137
2481.813477	166.541534
2481.107666	116.914711
2480.402100	120.438309
2479.696045	141.669449
2478.990234	141.646790
2478.284180	162.867737
2477.577881	145.141495
2476.871582	155.736664
2476.165039	148.633942
2475.458496	166.301834
2474.751953	173.350754
2474.045166	152.099777
2473.338379	134.392242
2472.631348	152.051086
2471.924072	173.239761
2471.217041	113.118057
2470.509521	148.443680
2469.802246	120.149452
2469.094482	148.396149
2468.386963	144.839706
2467.679199	144.816498
2466.971191	169.514114
2466.263184	137.708160
2465.554932	109.442795
2464.846680	144.723740
2464.138428	148.229828
2463.429932	144.677368
2462.721436	151.710495
2462.012695	130.520676
2461.303955	148.134857
2460.594971	148.111115
2459.885986	169.242722
2459.176758	133.962341
2458.467529	151.564682
2457.758057	123.346825
2457.048584	105.708900
2456.338867	151.491806
2455.629150	140.900009
2454.919434	151.443237
2454.209473	161.983063
2453.499512	137.311447
2452.789307	161.931122
2452.078857	168.944504
2451.368408	98.535164
2450.657959	116.112099
2449.947266	147.755341
2449.236572	137.179382
2448.525879	130.123657
2447.814697	172.298279
2447.103760	168.754913
2446.392578	130.061050
2445.681152	151.127777
2444.969727	147.589493
2444.258301	140.538864
2443.546631	137.003403
2442.834717	126.444389
2442.122803	133.447662
2441.410889	101.825287
2440.698730	143.936783
2439.986572	168.484314
2439.274170	164.947739
2438.561768	178.957108
2437.849121	150.861191
2437.136475	136.805618
2436.423584	147.305481
2435.710693	171.828796
2434.997803	161.282761
2434.284424	143.728943
2433.571289	143.705856
2432.857910	161.205063
2432.144287	157.675278
2431.430908	168.159958
2430.717041	168.132935
2430.003174	154.097107
2429.289307	133.062485
2428.575195	136.542191
2427.861084	129.519211
2427.146729	136.498322
2426.432373	129.477600
2425.717773	181.939270
2425.003174	146.927338
2424.288330	143.406006
2423.573486	118.902946
2422.858643	139.863327
2422.143555	139.840851
2421.428223	125.836533
2420.712891	164.260178
2419.997559	167.728104
2419.281982	178.182465
2418.566162	164.180969
2417.850586	143.198669
2417.134521	174.604431
2416.418457	171.084824
2415.702393	185.021179
2414.986084	143.106567
2414.269775	139.593704
2413.553223	163.996231
2412.836670	153.503693
2412.120117	136.038193
2411.403076	129.041122
2410.686279	163.890717
2409.969238	139.459030
2409.251953	153.380249
2408.534668	142.899506
2407.817383	163.785263
2407.099854	135.885040
2406.382080	184.634583
2405.664307	160.223083
2404.946533	177.610046
2404.228516	135.797577
2403.510498	142.738586
2402.792236	160.119949
2402.073975	149.653244
2401.355469	146.149399
2400.636963	180.917740
2399.918213	139.145081
2399.199463	100.863937
2398.480469	156.487808
2397.761475	142.554810
2397.042480	114.720764
2396.323242	149.460556
2395.603760	125.109612
2394.884277	152.887115
2394.164795	145.914185
2393.445068	145.890686
2392.725098	149.340210
2392.005127	180.568359
2391.285156	180.539261
2390.564941	159.682068
2389.844727	170.068710
2389.124268	142.279449
2388.403809	138.786850
2387.683105	169.986496
2386.962402	124.867905
2386.241455	142.187744
2385.520508	135.229950
2384.799316	142.141907
2384.078125	117.854767
2383.356689	159.424866
2382.635254	162.864349
2381.913818	183.625931
2381.192139	124.706940
2380.470215	142.004440
2379.748291	166.222290
2379.026367	145.421036
2378.304199	107.317268
2377.581787	117.683823
2376.859375	155.732880
2376.136963	145.327225
2375.414307	121.086487
2374.691650	155.657501
2373.968750	134.881409
2373.245850	165.981094
2372.522705	138.295258
2371.799316	138.272949
2371.076172	127.881828
2370.352783	172.785385
2369.629150	169.302353
2368.905518	217.639313
2368.181641	176.155762
2367.457764	155.406464
2366.733643	127.758018
2366.009521	189.879913
2365.285400	169.138428
2364.561035	158.757370
2363.836426	158.731735
2363.111816	141.455429
2362.387207	141.432587
2361.662354	175.899933
2360.937256	155.180756
2360.212158	131.020355
2359.487061	182.709396
2358.761719	179.233093
2358.036377	144.741806
2357.310791	137.827057
2356.584961	158.475510
2355.859375	192.895538
2355.133301	106.764198
2354.407471	137.737991
2353.681152	165.258881
2352.955078	113.597122
2352.228516	154.880127
2351.502197	192.708557
2350.775635	182.355408
2350.048828	168.565475
2349.322021	185.736008
2348.594971	189.144974
2347.867920	165.045288
2347.140869	175.332260
2346.413330	147.805252
2345.686035	151.218124
2344.958496	151.193665
2344.230713	154.604889
2343.502930	168.320313
2342.775146	147.685760
2342.047119	171.699860
2341.319092	164.805191
2340.590820	157.912766
2339.862305	188.778183
2339.133789	154.429886
2338.405273	157.836121
2337.676514	150.949249
2336.947754	164.645264
2336.218750	150.900406
2335.489746	192.023972
2334.760498	174.850662
2334.031250	143.971359
2333.301758	154.230057
2332.572266	191.899673
2331.842529	178.163696
2331.112793	188.411865
2330.382813	137.004623
2329.652832	219.171906
2328.922607	154.080292
2328.192383	222.524384
2327.462158	171.144882
2326.731689	157.427795
2326.000977	157.402283
2325.270264	157.376801
2324.539307	157.351303
2323.808350	164.166061
2323.077393	150.461182
2322.346191	153.855820
2321.614746	198.270920
2320.883301	164.059692
2320.151855	170.867828
2319.420166	136.672104
2318.688232	150.314957
2317.956299	92.223770
2317.224365	153.681381
2316.492188	180.973175
2315.760010	139.975418
2315.027588	157.020126
2314.295166	160.407608
2313.562500	197.917709
2312.829590	180.826523
2312.096924	177.385925
2311.363770	156.892883
2310.630615	156.867432
2309.897461	173.890045
2309.164063	207.952393
2308.430664	160.199631
2307.697021	139.725937
2306.963379	149.925476
2306.229492	197.596970
2305.495605	183.939743
2304.761719	180.504166
2304.027344	194.095627
2303.293213	173.636322
2302.558838	190.628555
2301.824219	153.158798
2301.089600	166.745850
2300.354736	173.523636
2299.619873	170.093597
2298.885010	173.467316
2298.149658	159.836090
2297.414551	180.211426
2296.679199	193.780823
2295.943604	193.749374
2295.208008	193.717911
2294.472412	132.522308
2293.736572	180.065186
2293.000488	203.814270
2292.264404	176.610352
2291.528320	162.998459
2290.791992	142.600479
2290.055420	179.919006
2289.318848	186.678070
2288.582275	152.711792
2287.845459	210.368729
2287.108398	156.054672
2286.371582	172.989014
2285.634277	179.743698
2284.896973	189.887009
2284.159668	159.343552
2283.422119	183.045822
2282.684570	176.237701
2281.946777	193.152222
2281.208740	196.508911
2280.470703	186.314377
2279.732666	176.123138
2278.994385	186.253799
2278.256104	209.924698
2277.517578	182.807907
2276.779053	192.932526
2276.040283	175.979996
2275.301514	155.649292
2274.562500	169.156509
2273.823486	165.746414
2273.084229	189.393661
2272.344971	172.455460
2271.605469	165.665543
2270.865967	172.399353
2270.126221	168.991486
2269.386475	168.963989
2268.646484	162.179031
2267.906494	168.909012
2267.166260	202.657822
2266.426025	175.608200
2265.685547	185.709213
2264.945068	182.303009
2264.204346	165.396179
2263.463623	172.119019
2262.722656	172.091003
2261.981689	165.315414
2261.240723	158.542038
2260.499268	182.125015
2259.758057	175.351089
2259.016602	192.180481
2258.274902	168.551910
2257.533203	198.858871
2256.791260	215.676193
2256.049316	171.838974
2255.307129	168.442139
2254.564941	181.887878
2253.822754	208.800217
2253.080322	205.399002
2252.337646	114.466034
2251.594971	212.064285
2250.852051	212.029724
2250.109131	208.630173
2249.366211	178.316086
2248.623047	171.559219
2247.879639	171.531250
2247.136230	174.866104
2246.392578	198.373444
2245.648926	194.979385
2244.905273	191.586441
2244.161377	164.670273
2243.417236	188.163910
2242.673096	198.211792
2241.928955	191.461533
2241.184570	198.147156
2240.439941	191.399094
2239.695313	171.223892
2238.950439	194.693451
2238.205566	204.730408
2237.460693	161.073059
2236.715576	184.532776
2235.970215	171.084305
2235.224854	130.807831
2234.479492	224.684479
2233.733887	194.471252
2232.988037	157.563049
2232.242188	130.722473
2231.496338	201.078690
2230.750244	184.292053
2230.003906	190.962402
2229.257568	174.182892
2228.511230	214.343948
2227.764648	177.474609
2227.017822	177.445633
2226.270996	184.111633
2225.523926	190.775452
2224.776855	190.744308
2224.029785	217.479919
2223.282471	224.134995
2222.534912	190.650879
2221.787354	210.684982
2221.039795	173.870316
2220.291992	183.871262
2219.543945	197.211487
2218.795898	203.863327
2218.047852	187.122635
2217.299561	197.114853
2216.551025	177.040344
2215.802490	207.069977
2215.053955	187.000381
2214.305176	186.969818
2213.556152	190.277466
2212.807129	183.571060
2212.058105	163.518402
2211.308838	156.818542
2210.559326	186.817093
2209.809814	176.780121
2209.060303	166.746445
2208.310547	156.716034
2207.560547	200.030304
2206.810547	163.331375
2206.060303	179.968414
2205.310059	166.610168
2204.559814	193.236191
2203.809326	176.549026
2203.058594	189.842422
2202.307861	156.511124
2201.557129	189.780319
2200.806152	173.104599
2200.054932	203.031799
2199.303711	186.359360
2198.552246	159.710449
2197.800781	202.932159
2197.049316	176.289261
2196.297607	176.260406
2195.545654	182.881805
2194.793701	166.228989
2194.041504	192.794052
2193.289307	186.115524
2192.537109	239.252213
2191.784668	189.376999
2191.031982	205.955292
2190.279297	195.957626
2189.526367	159.397049
2188.773438	205.854156
2188.020508	182.582657
2187.267090	172.595322
2186.513916	179.204254
2185.760498	205.719345
2185.006836	169.193039
2184.253174	159.214417
2183.499268	182.403305
2182.745361	175.741669
2181.991211	215.496918
2181.237061	175.684082
2180.482666	205.483551
2179.728271	198.822479
2178.973877	202.103058
2178.218994	178.881592
2177.464355	211.973068
2176.709229	195.380646
2175.954346	261.568481
2175.198975	152.280731
2174.443848	215.144028
2173.688232	182.015106
2172.932861	198.529373
2172.177002	188.571991
2171.421387	198.464279
2170.665283	267.882843
2169.909424	191.785904
2169.153076	224.815552
2168.396729	175.195160
2167.640381	201.606628
2166.883789	181.746658
2166.127197	214.756271
2165.370361	188.293839
2164.613525	181.657242
2163.856445	178.325119
2163.099365	188.201187
2162.342041	224.483871
2161.584473	181.538040
2160.826904	217.809906
2160.069336	174.879257
2159.311523	184.747757
2158.553711	188.015961
2157.795654	184.687103
2157.037354	181.359344
2156.279053	214.298599
2155.520752	181.299820
2154.762207	220.819870
2154.003662	224.078903
2153.244873	230.631577
2152.485840	233.887909
2151.726807	194.325638
2150.967773	171.241928
2150.208252	197.554382
2149.448975	217.274139
2148.689453	194.197998
2147.929688	190.875153
2147.169922	200.715027
2146.410156	203.971924
2145.650146	177.623779
2144.889893	213.771271
2144.129639	190.718414
2143.369141	161.097702
2142.608643	197.230072
2141.847900	193.911026
2141.087158	161.018280
2140.326416	193.847290
2139.565186	190.530426
2138.804199	183.930161
2138.042725	203.603500
2137.281494	210.136795
2136.519775	193.688004
2135.758301	216.632324
2134.996338	242.850845
2134.234619	200.154938
2133.472412	200.122025
2132.710449	154.167023
2131.947998	223.013474
2131.185547	232.813995
2130.423096	193.433334
2129.660400	216.347458
2128.897705	186.814789
2128.134766	216.276276
2127.371826	219.517059
2126.608643	229.308441
2125.845215	209.618942
2125.081787	183.386383
2124.318359	229.195267
2123.554688	206.241791
2122.790771	219.300400
2122.026855	199.628693
2121.262939	176.691391
2120.498779	245.364319
2119.734375	189.717163
2118.969971	206.038162
2118.205322	219.083878
2117.440674	199.431580
2116.676025	199.398743
2115.911133	215.707367
2115.145996	192.797562
2114.380859	192.765808
2113.615479	209.067459
2112.850098	225.363724
2112.084473	215.529785
2111.318848	202.434021
2110.552979	212.194260
2109.787109	199.103333
2109.020996	202.333984
2108.254883	231.666855
2107.488525	192.480179
2106.722168	185.924774
2105.955566	215.245850
2105.188965	241.296478
2104.422119	254.297607
2103.655029	218.399109
2102.887939	228.140564
2102.120850	215.068497
2101.353516	211.774963
2100.585938	231.285278
2099.818359	182.392120
2099.050781	175.849106
2098.282959	208.379395
2097.514893	195.323456
2096.746826	234.349487
2095.978760	227.802200
2095.210449	208.241943
2094.441895	237.486786
2093.673340	221.184082
2092.904541	217.895416
2092.135742	188.594757
2091.366699	221.074615
2090.597656	240.541504
2089.828369	253.501907
2089.059082	217.715698
2088.289551	230.675583
2087.520020	230.637512
2086.750244	224.103683
2085.980469	224.066696
2085.210449	224.029694
2084.440186	204.515091
2083.670166	194.744110
2082.899658	217.428360
2082.129150	197.924484
2081.358643	201.135925
2080.587891	210.833481
2079.816895	220.527832
2079.045898	201.036285
2078.274902	226.938965
2077.503662	207.452774
2076.732178	194.454849
2075.960693	197.663116
2075.188965	230.028885
2074.417236	204.076416
2073.645264	194.326385
2072.873291	216.961929
2072.101074	220.163788
2071.328857	190.992889
2070.556396	226.564285
2069.783936	184.457565
2069.011230	177.955963
2068.238525	184.396591
2067.465576	239.352493
2066.692627	239.312927
2065.919434	213.405975
2065.145996	219.836472
2064.372559	226.264832
2063.599121	216.531952
2062.825439	193.877151
2062.051514	209.998840
2061.277588	216.424545
2060.503662	216.388748
2059.729248	209.894653
2058.955078	196.945480
2058.180664	235.649857
2057.406006	216.245590
2056.631348	219.436829
2055.856445	248.438828
2055.081543	222.590164
2054.306396	235.454971
2053.531250	196.717484
2052.755859	238.601395
2051.980225	235.338089
2051.204590	251.415512
2050.428955	215.923737
2049.653076	212.665787
2048.877197	196.522202
2048.101074	267.354797
2047.324707	173.912872
2046.548340	209.304901
2045.771851	244.685211
2044.995239	177.045502
2044.218506	183.453125
2043.441528	225.255997
2042.664551	199.479416
2041.887329	225.181381
2041.110107	238.009460
2040.332642	205.811920
2039.555176	218.638931
2038.777466	225.032196
2037.999634	208.923843
2037.221802	205.675552
2036.443726	196.002029
2035.665527	260.221863
2034.887207	205.573318
2034.108765	215.173889
2033.330200	224.771286
2032.551514	221.523544
2031.772705	247.166443
2030.993774	250.334885
2030.214600	250.293381
2029.435425	224.585022
2028.656128	234.171265
2027.876587	227.717850
2027.097046	192.405701
2026.317261	221.229858
2025.537476	208.370377
2024.757446	259.618469
2023.977295	214.710526
2023.197021	278.756989
2022.416626	205.028580
2021.636230	211.400650
2020.855591	233.783142
2020.074707	259.360168
2019.293823	236.907013
2018.512817	252.872269
2017.731689	243.229156
2016.950439	233.589218
2016.168945	220.753174
2015.387451	220.716522
2014.605713	262.257263
2013.823975	278.202362
2013.041992	258.972992
2012.260010	242.946671
2011.477783	214.141098
2010.695435	207.714340
2009.912964	255.605957
2009.130371	271.536224
2008.347656	239.550995
2007.564819	258.672119
2006.781860	274.593903
2005.998779	223.469543
2005.215576	239.391876
2004.432129	239.352112
2003.648682	204.213196
2002.864990	255.224091
2002.081299	226.473740
2001.297363	242.382309
2000.513428	248.719452
1999.729248	242.301758
1998.944946	290.076263
1998.160522	229.472733
1997.375977	238.994370
1996.591309	245.326767
1995.806519	270.770233
1995.021606	248.430206
1994.236572	200.621811
1993.451416	232.427887
1992.666016	245.122894
1991.880615	254.630783
1991.094971	254.588440
1990.309326	260.909760
1989.523438	248.141159
1988.737549	289.449860
1987.951416	270.320282
1987.165161	292.533295
1986.378784	219.363464
1985.592285	247.934830
1984.805664	244.715454
1984.018921	241.497147
1983.232056	247.811096
1982.444946	244.593307
1981.657837	273.136688
1980.870605	234.985474
1980.083130	241.296249
1979.295654	276.174744
1978.507935	272.954865
1977.720093	247.522507
1976.932129	291.901001
1976.144165	228.406235
1975.355957	250.570663
1974.567627	266.385193
1973.779053	202.926361
1972.990479	253.615707
1972.201782	244.064453
1971.412964	294.730042
1970.623901	269.332062
1969.834839	250.278687
1969.045532	262.907227
1968.256226	291.366669
1967.466675	253.320114
1966.677002	262.775818
1965.887207	250.070251
1965.097290	256.358429
1964.307251	262.644470
1963.517090	259.436859
1962.726807	287.863647
1961.936401	278.327240
1961.145874	294.092255
1960.355103	268.749176
1959.564331	249.737000
1958.773315	240.213257
1957.982178	265.454590
1957.191040	240.133163
1956.399658	293.798157
1955.608154	293.749176
1954.816528	306.332428
1954.024780	265.233337
1953.232910	255.718048
1952.440918	246.205933
1951.648682	271.412537
1950.856445	293.455292
1950.063965	302.871063
1949.271484	239.732910
1948.478760	236.539063
1947.685913	271.186188
1946.893066	296.363342
1946.099976	255.334305
1945.306763	252.139938
1944.513428	286.761322
1943.719971	270.959961
1942.926270	286.665588
1942.132568	314.964539
1941.338745	289.718994
1940.544678	302.265015
1939.750610	280.178040
1938.956299	276.983734
1938.161865	245.467300
1937.367310	267.451752
1936.572632	289.428833
1935.777832	308.253143
1934.982910	289.332153
1934.187866	289.283813
1933.392700	282.947784
1932.597290	254.610458
1931.801880	279.710419
1931.006226	320.513428
1930.210571	301.609283
1929.414673	292.135193
1928.618652	310.930634
1927.822510	288.897369
1927.026245	304.547394
1926.229858	301.357330
1925.433350	298.168365
1924.636719	279.289978
1923.839844	291.793549
1923.042969	291.744751
1922.245850	307.378540
1921.448730	297.919189
1920.651367	319.817627
1919.853882	257.065308
1919.056274	297.769745
1918.258545	303.987732
1917.460693	269.469818
1916.662720	303.886047
1915.864624	278.776611
1915.066284	291.257172
1914.267944	291.208435
1913.469360	278.636719
1912.670776	328.673706
1911.871948	303.581085
1911.072998	300.401123
1910.273926	300.350830
1909.474731	300.300568
1908.675415	322.143555
1907.875977	322.089630
1907.076294	325.162262
1906.276611	312.603699
1905.476807	287.547241
1904.676758	356.248901
1903.876587	290.575439
1903.076294	290.526764
1902.275879	346.699677
1901.475342	318.535553
1900.674683	271.646576
1899.873901	305.941437
1899.072998	349.588806
1898.271851	333.926208
1897.470703	280.825470
1896.669312	277.658661
1895.867920	324.400696
1895.066284	324.346344
1894.264526	299.346436
1893.462646	283.707947
1892.660645	305.480408
1891.858521	333.478851
1891.056152	324.074646
1890.253784	299.095673
1889.451172	308.390717
1888.648560	308.339020
1887.845703	330.085419
1887.042725	342.484039
1886.239624	314.409882
1885.436401	320.582062
1884.633057	289.409058
1883.829590	283.137695
1883.025879	311.088135
1882.222168	320.367065
1881.418213	360.741211
1880.614258	314.040955
1879.810059	326.423431
1879.005737	332.585236
1878.201294	316.990662
1877.396729	295.186859
1876.592041	332.417847
1875.787231	341.680634
1874.982178	363.362946
1874.177124	332.250519
1873.371826	332.194733
1872.566406	347.659485
1871.760986	322.772491
1870.955322	356.851959
1870.149536	328.869202
1869.343506	350.528107
1868.537476	328.758759
1867.731323	356.612366
1866.924927	350.351563
1866.118530	344.092865
1865.311890	309.941498
1864.505127	347.076172
1863.698242	337.722748
1862.891235	368.644562
1862.084106	346.901306
1861.276855	334.455780
1860.469482	334.399567
1859.661865	349.822235
1858.854126	359.049225
1858.046387	324.946838
1857.238403	365.116974
1856.430298	321.743927
1855.622070	383.553284
1854.813721	352.562286
1854.005249	361.779419
1853.196533	309.161194
1852.387817	336.929077
1851.578857	383.231018
1850.769775	352.266052
1849.960693	355.296326
1849.151367	336.702515
1848.341919	339.734375
1847.532227	348.941162
1846.722534	333.445190
1845.912720	407.475586
1845.102661	333.333038
1844.292603	320.933350
1843.482300	364.074677
1842.671875	336.249695
1841.861328	336.193115
1841.050659	351.555634
1840.239868	326.830078
1839.428833	311.361145
1838.617798	391.447632
1837.806519	372.891266
1836.995117	342.016235
1836.183716	388.169281
1835.372070	354.221863
1834.560303	341.843536
1833.748291	314.073608
1832.936279	363.278870
1832.124146	344.748993
1831.311768	335.458160
1830.499390	375.403687
1829.686768	356.881104
1828.874023	366.049133
1828.061157	378.289581
1827.248169	362.850800
1826.434937	359.715210
1825.621704	341.210754
1824.808228	353.447083
1823.994751	381.043945
1823.181030	334.893494
1822.367188	380.915558
1821.553223	371.637207
1820.739136	420.708405
1819.924927	340.808472
1819.110474	356.100189
1818.296021	362.178772
1817.481323	349.842560
1816.666626	371.261505
1815.851685	322.114746
1815.036621	380.338043
1814.221436	395.607544
1813.406006	377.143585
1812.590576	364.817230
1811.774902	392.342255
1810.959229	337.112274
1810.143311	392.209930
1809.327271	352.316650
1808.511108	370.635864
1807.694824	379.761108
1806.878418	361.324585
1806.061768	364.325195
1805.245117	348.958496
1804.428223	416.231140
1803.611206	364.140778
1802.794067	394.674225
1801.976807	394.607605
1801.159424	370.073334
1800.341919	379.184692
1799.524170	376.063263
1798.706421	379.056671
1797.888428	372.879883
1797.070313	381.984558
1796.252075	381.920074
1795.433716	320.758698
1794.615234	400.117065
1793.796509	369.511353
1792.977783	363.342346
1792.158813	402.967133
1791.339844	381.533203
1790.520630	381.468750
1789.701294	381.404297
1788.881714	363.035553
1788.062134	359.924011
1787.242432	301.919128
1786.422485	362.851563
1785.602417	347.546936
1784.782349	347.488220
1783.962036	414.477264
1783.141479	359.559204
1782.320923	374.731415
1781.500244	362.483734
1780.679321	344.149048
1779.858398	395.856750
1779.037231	374.478058
1778.215942	377.458740
1777.394531	413.916992
1776.572998	380.374084
1775.751221	392.479675
1774.929443	368.077576
1774.107422	383.222565
1773.285278	398.362396
1772.463013	340.527039
1771.640625	334.389618
1770.818115	446.790527
1769.995483	404.170654
1769.172607	419.294067
1768.349731	413.147430
1767.526611	440.413513
1766.703369	379.602570
1765.880005	385.610931
1765.056519	355.187714
1764.232910	409.762604
1763.409058	385.415131
1762.585083	376.247131
1761.761108	430.790680
1760.936890	406.451965
1760.112549	373.023315
1759.288086	403.282135
1758.463379	363.801941
1757.638672	372.833832
1756.813721	387.923981
1755.988647	409.069275
1755.163574	384.762939
1754.338257	414.988922
1753.512695	402.804199
1752.687134	426.960663
1751.861328	402.667694
1751.035522	426.815979
1750.209473	393.451599
1749.383301	366.150574
1748.557007	414.496918
1747.730591	444.676788
1746.903931	393.184906
1746.077271	381.022308
1745.250366	383.981201
1744.423340	432.283478
1743.596313	401.985687
1742.768921	410.983337
1741.941528	413.935089
1741.114014	413.864899
1740.286255	422.855896
1739.458374	416.744415
1738.630493	425.731842
1737.802368	398.489868
1736.973999	398.422272
1736.145630	428.533051
1735.317139	431.477692
1734.488403	473.639862
1733.659546	488.641022
1732.830566	410.147552
1732.001465	443.246002
1731.172241	413.023102
1730.342896	418.981506
1729.513306	421.924133
1728.683594	458.011322
1727.853882	391.653717
1727.023926	346.404083
1726.193726	430.672791
1725.363525	418.554932
1724.533203	472.676025
1723.702637	394.331482
1722.871948	442.418976
1722.041138	457.389526
1721.210205	367.052948
1720.379150	403.088013
1719.547974	421.065216
1718.716553	427.007874
1717.885010	408.895813
1717.053467	354.716949
1716.221558	390.723480
1715.389648	441.743011
1714.557617	477.722473
1713.725342	390.524323
1712.893066	444.521362
1712.060547	432.433746
1711.227905	408.340240
1710.395142	447.296722
1709.562256	438.216217
1708.729126	480.155304
1707.895874	432.066315
1707.062622	458.992401
1706.229126	386.927795
1705.395508	449.839508
1704.561646	410.783569
1703.727783	407.715790
1702.893677	431.625641
1702.059570	398.586426
1701.225220	446.460724
1700.390747	452.376495
1699.556030	479.257782
1698.721313	458.212280
1697.886353	470.111694
1697.051392	461.050201
1696.216187	511.858215
1695.380859	496.807037
1694.545410	463.807159
1693.709717	463.728210
1692.874023	442.710266
1692.038086	490.487335
1691.202026	439.569275
1690.365845	430.525177
1689.529541	478.279846
1688.692993	436.356049
1687.856445	466.164063
1687.019653	472.060120
1686.182739	442.107605
1685.345703	439.045593
1684.508545	459.874176
1683.671143	423.967590
1682.833740	432.850891
1681.996094	465.608521
1681.158325	483.434174
1680.320435	465.449890
1679.482422	459.404297
1678.644287	423.534363
1677.805908	414.515808
1676.967407	450.224609
1676.128784	384.563416
1675.290039	444.109924
1674.451172	458.934692
1673.612183	476.733978
1672.772949	446.861908
1671.933594	500.400024
1671.094116	464.577942
1670.254517	419.835358
1669.414795	473.350647
1668.574829	503.035309
1667.734863	476.165222
1666.894653	493.937164
1666.054321	377.827240
1665.213867	452.125519
1664.373169	466.918427
1663.532471	454.944763
1662.691528	454.867157
1661.850464	481.541870
1661.009277	517.123352
1660.167969	436.805542
1659.326538	463.469635
1658.484863	463.390533
1657.643066	507.860596
1656.801147	436.507385
1655.959106	480.966858
1655.116943	507.600555
1654.274658	474.866791
1653.432129	477.753143
1652.589478	462.837036
1651.746704	477.589996
1650.903809	430.054169
1650.060791	456.669189
1649.217529	462.520935
1648.374146	462.441956
1647.530640	456.435211
1646.687012	453.393890
1645.843262	453.316437
1644.999390	497.674164
1644.155273	473.894409
1643.311035	453.084106
1642.466675	470.771637
1641.622192	411.484741
1640.777588	479.490204
1639.932739	432.059296
1639.087769	485.243896
1638.242798	437.828186
1637.397461	502.824768
1636.552124	496.824249
1635.706665	443.517212
1634.860962	413.878632
1634.015137	449.277100
1633.169189	428.513428
1632.323120	481.625793
1631.476929	452.000885
1630.630493	499.183563
1629.783936	478.425476
1628.937256	466.532684
1628.090454	475.309570
1627.243530	489.986877
1626.396484	439.732269
1625.549194	483.917786
1624.701782	421.880493
1623.854248	474.903046
1623.006592	498.415405
1622.158691	486.535309
1621.310791	459.918274
1620.462646	459.839539
1619.614380	471.549561
1618.765991	436.108673
1617.917358	468.441956
1617.068726	471.307404
1616.219849	509.513885
1615.370850	432.865387
1614.521729	479.897797
1613.672363	465.097351
1612.822998	459.131378
1611.973389	473.765961
1611.123657	491.337646
1610.273804	470.662018
1609.423828	464.699127
1608.573608	435.213196
1607.723389	514.522034
1606.872925	517.373474
1606.022339	434.989502
1605.171509	514.257568
1604.320679	490.664520
1603.469604	475.892395
1602.618408	469.936615
1601.767090	446.363251
1600.915649	475.647705
1600.064087	422.725464
1599.212280	481.354797
1598.360352	469.533905
1597.508301	481.189728
1596.656128	451.771393
1595.803833	507.422394
1594.951294	454.549011
1594.098633	477.927612
1593.245850	425.077393
1592.392944	498.281128
1591.539795	465.959442
1590.686646	474.669678
1589.833252	445.292664
1588.979736	454.003418
1588.126099	500.782349
1587.272217	486.056152
1586.418335	509.393097
1585.564209	459.545929
1584.709961	491.658997
1583.855591	471.092316
1583.000977	459.309296
1582.146362	470.930573
1581.291504	465.000671
1580.436523	482.464996
1579.581421	491.152740
1578.726074	505.683533
1577.870605	496.829102
1577.015137	461.679504
1576.159424	522.952148
1575.303467	470.283966
1574.447510	525.692993
1573.591309	511.002594
1572.734985	470.041626
1571.878540	472.879883
1571.021973	461.124573
1570.165161	525.241516
1569.308350	516.398743
1568.451294	487.139923
1567.594116	463.724182
1566.736694	466.560455
1565.879272	483.973267
1565.021606	501.380066
1564.163818	512.951843
1563.305908	524.519653
1562.447876	469.073029
1561.589600	512.687317
1560.731201	489.299194
1559.872681	489.215027
1559.014038	506.599854
1558.155273	483.224792
1557.296265	477.320679
1556.437134	439.408691
1555.577881	485.884918
1554.718506	500.346283
1553.859009	468.266815
1552.999268	511.806061
1552.139404	552.422852
1551.279419	526.164856
1550.419312	523.167847
1549.558960	470.770020
1548.698608	476.499939
1547.838013	505.467804
1546.977173	531.521179
1546.116333	467.541931
1545.255249	496.496307
1544.394165	508.022766
1543.532837	476.007935
1542.671265	467.220001
1541.809692	530.972290
1540.947876	504.771912
1540.085938	516.286926
1539.223877	513.298035
1538.361694	495.812653
1537.499268	521.818115
1536.636841	501.438812
1535.774170	515.842346
1534.911377	504.163513
1534.048340	478.003693
1533.185303	532.954712
1532.322021	550.238831
1531.458618	544.352966
1530.594971	506.624207
1529.731323	480.486420
1528.867432	538.283508
1528.003418	512.149231
1527.139282	514.953918
1526.275024	494.617645
1525.410522	508.992340
1524.545898	514.687561
1523.681152	474.124756
1522.816284	540.524597
1521.951172	502.861298
1521.086060	485.437500
1520.220703	494.020782
1519.355225	485.270020
1518.489502	470.746246
1517.623779	499.540161
1516.757813	511.002045
1515.891724	508.027344
1515.025513	516.597717
1514.159058	478.996765
1513.292480	504.879333
1512.425781	501.907654
1511.558960	513.357117
1510.692017	498.850830
1509.824829	481.466522
1508.957520	536.151550
1508.090088	518.766785
1507.222534	507.151031
1506.354736	547.398010
1505.486938	501.214783
1504.618896	538.568848
1503.750610	475.125702
1502.882324	457.769318
1502.013794	532.532654
1501.145142	558.343201
1500.276367	529.471130
1499.407471	503.486084
1498.538330	514.905334
1497.669067	546.453125
1496.799683	560.736511
1495.930176	511.763336
1495.060547	534.671509
1494.190674	525.956848
1493.320679	540.233887
1492.450562	597.602234
1491.580200	551.537476
1490.709717	494.000214
1489.839233	542.731934
1488.968384	582.833496
1488.097534	576.991516
1487.226440	553.930847
1486.355347	594.009644
1485.483887	527.917236
1484.612427	547.906250
1483.740845	573.624573
1482.869019	625.142578
1481.997070	599.230286
1481.124878	627.792908
1480.252686	619.085876
1479.380249	590.322327
1478.507690	627.467041
1477.635010	587.253357
1476.762207	627.249878
1475.889160	609.959351
1475.015991	644.211731
1474.142700	652.688171
1473.269165	704.094299
1472.395630	695.387329
1471.521851	723.878723
1470.647949	780.967102
1469.773804	777.971680
1468.899658	823.592041
1468.025269	857.759766
1467.150757	980.535461
1466.276001	980.365662
1465.401245	1128.796875
1464.526245	1148.601929
1463.651123	1165.543213
1462.775879	1376.702148
1461.900391	1542.096191
1461.024780	1593.223267
1460.149048	1769.941284
1459.273193	1766.780273
1458.397217	1783.596558
1457.520996	1843.205811
1456.644653	1862.855591
1455.768188	1742.737305
1454.891479	1671.140747
1454.014648	1608.122803
1453.137695	1502.364868
1452.260620	1490.703125
1451.383423	1422.049438
1450.505981	1313.529297
1449.628418	1281.964600
1448.750732	1190.596069
1447.872803	1190.389526
1446.994873	1087.679199
1446.116699	987.851318
1445.238403	993.372620
1444.359863	941.975037
1443.481201	924.739441
1442.602417	1009.924744
1441.723511	1001.216370
1440.844482	887.287720
1439.965210	963.904907
1439.085815	955.208923
1438.206299	1037.472412
1437.326538	1088.446533
1436.446777	1110.988770
1435.566772	1085.227661
1434.686646	1153.209229
1433.806274	1209.807373
1432.925781	1149.969238
1432.045166	996.466919
1431.164429	999.132263
1430.283569	820.167847
1429.402466	763.276184
1428.521240	712.078247
1427.639893	655.225037
1426.758301	655.111206
1425.876709	697.529663
1424.994873	652.048584
1424.112793	660.438782
1423.230713	566.801697
1422.348389	518.533386
1421.465942	566.604675
1420.583374	552.343506
1419.700562	515.431030
1418.817627	521.004456
1417.934570	594.521301
1417.051392	557.620605
1416.167969	580.164185
1415.284546	531.960510
1414.400757	534.697083
1413.516968	565.718628
1412.633057	520.370605
1411.748901	489.176361
1410.864624	556.942078
1409.980103	593.591309
1409.095459	536.965393
1408.210815	584.907837
1407.325806	522.652771
1406.440796	528.211121
1405.555542	536.591675
1404.670166	584.500793
1403.784668	516.642639
1402.899048	482.680420
1402.013184	578.551208
1401.127197	538.946533
1400.241089	524.746643
1399.354736	521.834534
1398.468262	549.946045
1397.581665	538.571289
1396.694946	515.923462
1395.807983	538.383728
1394.920898	529.835144
1394.033691	521.289490
1393.146362	518.381409
1392.258789	495.756683
1391.371094	568.894348
1390.483276	568.795227
1389.595337	537.727539
1388.707153	557.337646
1387.818848	607.898743
1386.930420	582.468140
1386.041748	568.299805
1385.152954	559.762085
1384.264038	531.540649
1383.375000	584.874023
1382.485718	596.017639
1381.596313	590.291931
1380.706787	542.411804
1379.817139	646.284729
1378.927246	604.030396
1378.037231	674.148865
1377.147095	662.797424
1376.256714	718.841309
1375.366333	741.175781
1374.475586	665.257629
1373.584839	757.756226
1372.693970	715.533813
1371.802856	684.548157
1370.911499	701.258972
1370.020142	695.527466
1369.128540	723.446655
1368.236816	678.463318
1367.344971	697.966431
1366.453003	703.449768
1365.560791	795.796265
1364.668457	720.013855
1363.775879	820.728516
1362.883301	800.980774
1361.990479	820.441956
1361.097534	895.889343
1360.204346	918.126221
1359.311035	912.368469
1358.417603	1012.943909
1357.524048	1001.576172
1356.630249	1018.184448
1355.736450	920.121338
1354.842285	891.998230
1353.948120	880.659424
1353.053711	765.900085
1352.159180	799.303406
1351.264526	782.398071
1350.369751	745.942078
1349.474731	701.118835
1348.579590	762.438171
1347.684204	698.081421
1346.788818	695.167542
1345.893188	745.290283
1344.997314	669.806763
1344.101440	666.899231
1343.205322	703.051147
1342.309082	714.085815
1341.412720	725.116516
1340.516113	777.969727
1339.619385	786.197449
1338.722534	774.910156
1337.825439	813.791992
1336.928223	874.952026
1336.030884	916.588684
1335.133423	891.358826
1334.235718	916.267944
1333.337891	1049.764648
1332.439941	1163.726318
1331.541870	1260.946777
1330.643555	1335.868652
1329.745117	1508.154419
1328.846436	1583.006714
1327.947754	1546.568726
1327.048828	1579.671265
1326.149780	1448.705322
1325.250488	1320.565308
1324.351074	1139.656860
1323.451538	1094.990601
1322.551880	1014.217163
1321.651978	930.693848
1320.751953	908.309143
1319.851807	877.600647
1318.951416	816.358826
1318.050903	838.425781
1317.150269	791.091003
1316.249512	679.941528
1315.348511	693.696289
1314.447388	668.606018
1313.546021	707.322205
1312.644653	668.371643
1311.743042	665.481689
1310.841309	673.682068
1309.939331	704.054504
1309.037231	629.103760
1308.135010	681.640503
1307.232666	703.684265
1306.330078	753.419495
1305.427368	706.206909
1304.524536	733.772583
1303.621460	689.348389
1302.718262	727.979248
1301.814941	686.339111
1300.911499	688.985718
1300.007813	694.397888
1299.104004	683.211853
1298.199951	683.091980
1297.295898	666.381714
1296.391602	652.441833
1295.487061	671.676025
1294.582520	685.376221
1293.677734	726.702820
1292.772827	651.983887
1291.867676	685.015320
1290.962402	635.184937
1290.057007	626.789856
1289.151489	612.876282
1288.245728	587.926697
1287.339844	554.706604
1286.433838	568.405457
1285.527588	493.818970
1284.621216	540.622986
1283.714722	512.950073
1282.808105	510.102661
1281.901245	551.365417
1280.994263	531.974182
1280.087036	531.880676
1279.179810	451.881378
1278.272217	479.350861
1277.364624	515.073914
1276.456787	512.229431
1275.548828	528.660034
1274.640747	506.543488
1273.732544	506.454437
1272.824097	542.141235
1271.915405	478.761353
1271.006714	478.677185
1270.097778	484.094055
1269.188721	481.258881
1268.279541	439.930756
1267.370117	450.849701
1266.460571	516.736816
1265.550781	461.683563
1264.640991	508.312134
1263.730957	480.751190
1262.820679	519.119934
1261.910400	480.582031
1260.999878	507.954468
1260.089233	483.158142
1259.178345	557.180908
1258.267334	493.965088
1257.356201	532.290894
1256.444824	512.994202
1255.533447	589.702332
1254.621704	559.432983
1253.709961	548.367188
1252.797974	540.046570
1251.885864	523.506226
1250.973633	523.414063
1250.061157	509.622345
1249.148560	506.793152
1248.235840	495.748138
1247.322876	498.399261
1246.409790	479.145660
1245.496582	487.273712
1244.583130	462.554779
1243.669556	487.102020
1242.755859	487.016205
1241.841919	492.401489
1240.927856	489.579651
1240.013672	467.616547
1239.099365	473.002380
1238.184814	475.652618
1237.270142	470.102478
1236.355225	445.425537
1235.440186	459.007965
1234.525024	423.414825
1233.609741	453.383667
1232.694214	483.341888
1231.778564	453.223755
1230.862671	453.143829
1229.946777	433.958801
1229.030640	513.018005
1228.114258	512.927490
1227.197876	572.849854
1226.281128	534.565552
1225.364380	564.467041
1224.447388	583.452332
1223.530273	556.090088
1222.613037	694.989929
1221.695557	727.566895
1220.777954	711.091553
1219.860229	759.998169
1218.942261	754.416931
1218.024170	792.406372
1217.105957	773.208557
1216.187500	767.627869
1215.268921	723.946655
1214.350220	707.492065
1213.431274	579.496887
1212.512207	603.876038
1211.593018	579.292236
1210.673706	598.224304
1209.754150	538.306763
1208.834351	464.819153
1207.914551	589.754028
1206.994507	546.173340
1206.074219	494.457642
1205.153931	518.817139
1204.233398	477.987854
1203.312744	453.465118
1202.391846	518.542114
1201.470825	450.590424
1200.549683	445.082947
1199.628296	426.010162
1198.706787	482.907043
1197.785156	447.559387
1196.863281	447.480255
1195.941284	460.958740
1195.019165	444.610962
1194.096802	449.953461
1193.174438	479.684784
1192.251709	471.471130
1191.328979	425.332581
1190.406006	427.966003
1189.482788	463.096436
1188.559570	481.968323
1187.636108	487.297455
1186.712402	433.076630
1185.788696	443.824982
1184.864746	438.334900
1183.940552	427.436157
1183.016357	478.751923
1182.091919	492.188843
1181.167236	505.621002
1180.242554	492.014587
1179.317505	473.007202
1178.392456	445.899231
1177.467163	513.368774
1176.541748	453.845703
1175.616211	494.280090
1174.690430	496.893036
1173.764526	542.705505
1172.838501	615.497192
1171.912231	623.485352
1170.985840	734.017212
1170.059204	736.585266
1169.132446	863.243652
1168.205566	898.153748
1167.278564	930.354736
1166.351318	895.139160
1165.423828	886.893372
1164.496338	886.736145
1163.568604	865.020813
1162.640747	829.841675
1161.712646	875.489380
1160.784424	821.467407
1159.856079	832.093201
1158.927490	813.098938
1157.998779	864.100952
1157.069946	831.650574
1156.140869	812.666382
1155.211670	944.355347
1154.282349	1003.367676
1153.352783	1000.500183
1152.423096	1118.640381
1151.493164	1115.753296
1150.563232	1244.583496
1149.632935	1150.296265
1148.702637	1176.963501
1147.772095	1066.601685
1146.841431	983.140930
1145.910522	902.395386
1144.979492	776.029663
1144.048340	751.729187
1143.116943	681.804688
1142.185425	654.845703
1141.253784	603.746399
1140.321899	563.396545
1139.389893	525.743408
1138.457764	560.514587
1137.525391	530.919495
1136.592896	562.996399
1135.660278	493.204437
1134.727417	458.277039
1133.794434	487.670197
1132.861206	468.830322
1131.927856	431.247253
1130.994385	495.444519
1130.060669	431.093994
1129.126831	460.465759
1128.192871	457.707275
1127.258667	503.120880
1126.324341	454.868866
1125.389893	468.164093
1124.455200	502.852600
1123.520386	451.951996
1122.585327	438.502655
1121.650146	465.157898
1120.714844	446.365234
1119.779297	384.821320
1118.843628	422.159424
1117.907837	395.370117
1116.971802	430.022064
1116.035645	413.922729
1115.099365	427.199066
1114.162842	413.775452
1113.226196	395.018524
1112.289307	410.959625
1111.352417	453.576019
1110.415161	426.819092
1109.477905	432.077393
1108.540405	493.333893
1107.602661	458.585541
1106.664917	445.175293
1105.726807	495.735687
1104.788696	500.976959
1103.850342	508.880646
1102.911865	506.126190
1101.973145	484.729279
1101.034302	521.923157
1100.095337	476.569397
1099.156128	481.808350
1098.216797	497.691223
1097.277344	428.417175
1096.337646	425.680359
1095.397827	425.604492
1094.457764	417.549988
1093.517700	436.089142
1092.577271	382.839294
1091.636841	438.591827
1090.696167	390.675812
1089.755249	441.092682
1088.814209	390.536530
1087.873047	427.654205
1086.931763	459.447144
1085.990234	459.365204
1085.048584	376.983978
1084.106689	445.929657
1083.164673	432.580780
1082.222412	427.196838
1081.280151	450.996948
1080.337524	411.129730
1079.394897	424.316284
1078.452026	493.179657
1077.509033	477.185486
1076.565796	482.401459
1075.622437	421.363434
1074.678955	381.544037
1073.735229	426.511322
1072.791382	418.489197
1071.847290	397.228943
1070.903076	458.055603
1069.958740	434.148590
1069.014160	452.598511
1068.069458	444.578766
1067.124512	476.249359
1066.179565	380.931427
1065.234253	388.798065
1064.288940	449.550110
1063.343384	462.689514
1062.397583	473.180725
1061.451660	457.238220
1060.505615	425.446259
1059.559448	491.421509
1058.613037	438.502136
1057.666382	441.064880
1056.719727	438.345428
1055.772827	462.028534
1054.825684	475.144409
1053.878418	467.141846
1052.931030	440.670868
1051.983398	451.145172
1051.035645	506.458405
1050.087769	485.269196
1049.139648	442.992645
1048.191406	490.368439
1047.242920	556.178711
1046.294312	545.537415
1045.345581	542.804871
1044.396606	584.859863
1043.447510	595.291382
1042.498291	629.421143
1041.548828	671.437988
1040.599121	634.461182
1039.649414	642.244080
1038.699341	644.760864
1037.749268	689.375977
1036.798950	728.713623
1035.848511	715.431885
1034.897827	654.818542
1033.947021	688.882507
1032.996094	672.986084
1032.044922	672.865601
1031.093506	596.535706
1030.142090	599.056335
1029.190430	554.290588
1028.238525	577.829773
1027.286499	525.205750
1026.334351	501.481628
1025.381958	509.267059
1024.429443	456.683472
1023.476807	477.594849
1022.523926	432.906769
1021.570923	474.800507
1020.617737	500.942780
1019.664368	461.519012
1018.710815	461.436310
1017.757080	469.217590
1016.803223	419.337189
1015.849121	490.012482
1014.894897	461.105530
1013.940491	442.686737
1012.985962	476.654083
1012.031189	447.765015
1011.076294	476.483154
1010.121216	473.780121
1009.165955	450.141266
1008.210510	481.460083
1007.254944	491.838379
1006.299133	431.589233
1005.343201	491.661926
1004.387085	528.180298
1003.430786	535.928345
1002.474365	546.287476
1001.517700	598.456360
1000.560913	645.380737
999.603943	728.862000
998.646790	760.074463
997.689514	757.326538
996.731995	775.467590
995.774353	699.622925
994.816528	657.736267
993.858521	657.618164
992.900330	597.490173
991.942017	550.427002
990.983459	516.421692
990.024780	487.643982
989.065918	466.698364
988.106873	432.726318
987.147705	448.286499
986.188293	442.994263
985.228760	487.206116
984.269043	510.562805
983.309143	468.799927
982.349060	453.091827
981.388794	492.063019
980.428406	489.371552
979.467834	554.347900
978.507019	559.452454
977.546082	629.596069
976.585022	715.321411
975.623718	764.606140
974.662292	871.078247
973.700623	912.517822
972.738831	946.144592
971.776855	899.195496
970.814758	873.050110
969.852417	818.337280
968.889954	792.215759
967.927246	659.628235
966.964417	594.597168
966.001404	576.317993
965.038208	537.280884
964.074890	529.398926
963.111328	531.898254
962.147644	578.497437
961.183777	482.426697
960.219727	477.153381
959.255493	471.881989
958.291077	469.204742
957.326538	487.263031
956.361755	469.035797
955.396851	453.405975
954.431763	440.372192
953.466492	424.753143
952.501038	479.055969
951.535461	414.244049
950.569641	408.992310
949.603699	486.561401
948.637573	501.999481
947.671265	470.863129
946.704773	452.671417
945.738098	460.348541
944.771240	501.637756
943.804260	535.156189
942.837097	553.153564
941.869751	560.806946
940.902222	583.960938
939.934509	581.272217
938.966614	619.911865
937.998535	550.072632
937.030334	583.539856
936.061951	555.037354
935.093323	534.288452
934.124573	498.063141
933.155640	464.431061
932.186584	415.332855
931.217285	435.891876
930.247864	386.816467
929.278198	433.156281
928.308411	422.766724
927.338440	463.928528
926.368286	409.729584
925.397949	414.808533
924.427429	430.189575
923.456787	448.140594
922.485901	419.734070
921.514893	445.404205
920.543701	460.768555
919.572327	406.638458
918.600769	437.443390
917.629028	424.500732
916.657104	437.285400
915.685059	403.773010
914.712769	390.843384
913.740356	429.335876
912.767761	418.976685
911.794983	421.470947
910.822021	418.825317
909.848877	408.473572
908.875549	423.811066
907.902039	416.030212
906.928406	395.414032
905.954590	446.685760
904.980530	464.571899
904.006348	449.090515
903.031982	495.193146
902.057434	510.495453
901.082703	564.264771
900.107849	533.390259
899.132751	502.526855
898.157532	563.958740
897.182068	548.478821
896.206482	504.816742
895.230713	435.549866
894.254761	509.757324
893.278625	448.197968
892.302307	437.874207
891.325806	404.512299
890.349182	455.633942
889.372314	468.347870
888.395325	445.233765
887.418091	427.244720
886.440735	422.051636
885.463196	432.204926
884.485474	414.227936
883.507568	455.056946
882.529480	434.526276
881.551270	439.558716
880.572815	442.034241
879.594238	439.399536
878.615417	469.970184
877.636475	464.777618
876.657349	423.841278
875.677979	444.186890
874.698486	477.286774
873.718811	441.474060
872.739014	510.282166
871.758972	561.208679
870.778748	563.657471
869.798401	512.554810
868.817810	466.569824
867.837097	481.779846
866.856140	514.824829
865.875061	476.508850
864.893799	430.563599
863.912354	468.694336
862.930725	524.638733
861.948914	504.172943
860.966919	481.168732
859.984741	486.172272
859.002441	486.084106
858.019897	529.252136
857.037231	549.508240
856.054321	503.624512
855.071289	539.136475
854.088074	567.007690
853.104614	549.109558
852.121033	597.302429
851.137268	622.606567
850.153320	642.819885
849.169189	640.162903
848.184937	703.543396
847.200439	769.440247
846.215759	809.923706
845.230896	875.777222
844.245911	1020.285583
843.260681	1185.041870
842.275330	1486.741821
841.289795	1613.303833
840.304016	1623.155640
839.318115	1463.110352
838.332031	1181.430786
837.345764	1026.593506
836.359314	912.361755
835.372681	876.721680
834.385864	782.825928
833.398865	805.480286
832.411743	769.878967
831.424377	686.181824
830.436829	741.751770
829.449158	716.305786
828.461243	698.460999
827.473206	680.622620
826.484924	708.325989
825.496521	670.258057
824.507935	695.424316
823.519104	652.315796
822.530151	685.059814
821.541016	662.188293
820.551697	636.798096
819.562195	639.208801
818.572510	623.936157
817.582642	651.604187
816.592590	709.563843
815.602356	785.175049
814.611938	855.710327
813.621399	926.219849
812.630615	1029.506592
811.639648	1296.740356
810.648560	1526.041138
809.657227	1833.437866
808.665771	1928.919678
807.674072	1802.518311
806.682251	1663.560059
805.690186	1368.406982
804.697998	1196.823120
803.705566	962.322510
802.713013	891.623352
801.720276	757.993591
800.727356	725.124207
799.734253	699.818787
798.740906	682.073181
797.747437	664.333984
796.753784	671.760803
795.759949	638.936890
794.765930	565.884216
793.771729	585.897766
792.777344	568.192139
791.782776	550.492859
790.788025	515.207581
789.793091	492.498932
788.798035	547.679565
787.802734	492.319366
786.807251	477.161316
785.811584	462.008789
784.815796	459.414093
783.819763	479.410309
782.823547	446.698792
781.827148	456.653656
780.830627	436.501312
779.833862	423.880829
778.836975	398.726349
777.839844	393.639069
776.842529	448.716797
775.845093	476.204651
774.847412	441.035370
773.849609	423.416901
772.851563	418.329681
771.853394	475.857056
770.854980	430.697205
769.856445	425.611389
768.857666	430.539948
767.858765	420.450592
766.859680	455.404968
765.860352	450.318268
764.860901	472.747803
763.861206	442.651215
762.861389	472.575104
761.861389	424.989899
760.861145	402.416901
759.860779	444.826843
758.860168	384.779846
757.859436	412.188782
756.858521	414.611115
755.857361	402.049347
754.856079	391.988861
753.854614	421.872681
752.852905	389.349731
751.851074	386.783173
750.848999	459.065125
749.846802	436.531006
748.844421	443.933197
747.841797	468.787506
746.839050	428.812256
745.836121	373.895782
744.832947	376.319580
743.829651	416.118347
742.826111	401.094604
741.822449	483.218109
740.818604	425.851440
739.814514	450.672546
738.810303	410.758911
737.805847	363.392883
736.801270	398.165894
735.796448	403.069153
734.791504	405.483002
733.786316	437.741974
732.781006	415.281403
731.775452	430.122925
730.769775	410.157745
729.763855	484.643097
728.757751	419.947113
727.751526	442.230133
726.745056	402.405396
725.738403	439.584625
724.731628	417.156433
723.724609	434.458313
722.717407	399.628418
721.710083	402.036896
720.702515	382.113190
719.694763	424.216766
718.686829	451.422821
717.678711	446.380310
716.670410	389.271454
715.661987	433.821747
714.653320	456.048950
713.644470	411.360046
712.635437	381.553192
711.626221	376.528900
710.616821	406.180359
709.607178	418.487152
708.597412	410.983002
707.587463	420.808990
706.577332	381.133514
705.567017	390.961365
704.556458	418.103455
703.545776	393.291443
702.534912	380.853882
701.523804	425.291229
700.512573	378.241943
699.501099	388.059387
698.489502	444.827179
697.477661	417.566650
696.465698	390.316071
695.453491	385.304626
694.441101	367.947754
693.428589	424.667053
692.415833	392.498047
691.402893	436.851532
690.389771	417.030243
689.376465	372.544373
688.362976	367.542480
687.349304	434.064392
686.335449	421.655548
685.321411	411.716583
684.307190	436.290100
683.292725	426.352081
682.278137	441.057800
681.263367	406.486938
680.248352	450.748108
679.233215	460.515839
678.217834	509.675171
677.202332	460.346558
676.186584	413.497345
675.170654	398.656250
674.154541	386.281006
673.138306	400.969604
672.121826	452.545013
671.105164	388.526978
670.088318	383.538330
669.071289	371.177155
668.054016	415.347015
667.036621	398.070038
666.019043	402.910339
665.001282	363.535126
663.983276	405.217957
662.965149	424.786682
661.946777	378.064240
660.928223	377.994629
659.909546	382.833191
658.890625	441.649261
657.871521	414.583252
656.852234	387.527191
655.832764	404.621582
654.813110	389.836273
653.793274	392.215851
652.773254	416.652588
651.752991	411.674957
650.732605	411.599121
649.711975	355.183807
648.691223	416.345673
647.670227	433.409454
646.649048	403.951324
645.627747	428.354279
644.606201	433.169922
643.584473	415.962219
642.562561	413.439178
641.540466	379.119873
640.518127	425.514191
639.495667	388.760254
638.473022	405.800659
637.450134	427.723022
636.427063	390.988922
635.403870	430.008514
634.380432	381.073608
633.356812	363.907043
632.333008	395.584320
631.309021	446.781372
630.284851	407.643280
629.260498	410.008606
628.235901	458.734497
627.211182	439.132843
626.186218	419.538391
625.161133	412.144806
624.135803	385.247681
623.110291	433.933105
622.084595	419.228760
621.058716	402.092896
620.032654	416.637512
619.006409	457.973053
617.979919	423.790405
616.953308	450.498566
615.926453	457.719391
614.899414	438.161041
613.872253	455.116547
612.844849	435.565857
611.817261	471.978577
610.789490	428.107666
609.761475	464.508270
608.733337	435.244080
607.705017	427.870392
606.676453	454.528290
605.647705	415.561340
604.618774	398.476410
603.589722	429.983459
602.560425	429.903992
601.530884	427.396118
600.501221	407.893585
599.471375	439.375549
598.441284	492.689178
597.411011	453.772614
596.380615	434.279541
595.349976	451.179077
594.319153	424.417938
593.288147	424.339417
592.256897	414.563538
591.225525	424.182434
590.193970	448.338470
589.162170	487.023560
588.130188	503.891327
587.098022	428.712769
586.065674	406.838501
585.033142	435.817719
584.000427	401.846405
582.967468	442.917328
581.934387	474.293579
580.901062	391.945587
579.867554	462.023102
578.833862	476.448700
577.799988	483.614685
576.765930	473.854614
575.731628	452.012238
574.697205	442.261597
573.662537	466.342499
572.627747	495.246124
571.592712	490.323578
570.557434	507.137299
569.522034	458.753510
568.486450	432.113983
567.450623	458.583466
566.414673	485.043121
565.378479	417.397552
564.342102	448.679504
563.305542	451.008118
562.268799	482.272217
561.231812	537.633789
560.194702	482.093384
559.157349	503.694153
558.119812	491.552887
557.082092	570.962891
556.044189	532.318115
555.006042	520.178162
553.967773	594.723022
552.929260	512.763184
551.890625	524.702515
550.851746	502.947144
549.812683	543.755798
548.773376	500.354919
547.733948	502.667175
546.694275	526.620483
545.654419	502.480591
544.614441	487.964691
543.574158	495.084076
542.533752	519.020874
541.493164	554.960938
540.452332	559.661865
539.411316	552.353333
538.370178	605.074707
537.328735	576.154602
536.287170	590.448792
535.245422	602.337830
534.203430	679.003723
533.161255	695.669617
532.118896	637.978394
531.076355	666.635498
530.033630	654.523987
528.990723	673.578979
527.947571	695.023438
526.904236	685.309509
525.860718	670.807678
524.817017	641.939392
523.773132	620.266418
522.729004	629.728699
521.684692	658.339111
520.640198	634.281555
519.595520	615.018982
518.550659	669.934998
517.505615	629.143311
516.460327	617.067627
515.414856	578.692139
514.369202	580.975342
513.323364	545.011230
512.277283	578.369202
511.231079	597.377686
510.184631	573.375793
509.138000	518.330811
508.091187	482.411682
507.044159	494.260559
505.996948	475.070221
504.949554	517.944946
503.901947	522.621338
502.854126	517.752075
501.806152	498.571594
500.757965	515.174194
499.709564	569.924561
