#Wave		#Intensity
3200.600830	8.419704
3200.007080	8.419704
3199.413086	-12.627648
3198.819092	21.042900
3198.224854	-16.831776
3197.630615	12.621923
3197.036377	-4.206672
3196.442139	16.824142
3195.847656	16.821600
3195.252930	12.614292
3194.658447	8.408257
3194.063721	0.000000
3193.468750	25.217144
3192.873779	12.606665
3192.278809	-4.201586
3191.683838	8.401901
3191.088623	37.802841
3190.493164	25.198082
3189.897949	-20.995226
3189.302490	-16.793640
3188.706787	4.197775
3188.111328	4.197140
3187.515381	16.786020
3186.919678	0.000000
3186.323730	12.585706
3185.727783	16.778402
3185.131592	46.133625
3184.535400	20.966658
3183.939209	25.156181
3183.342773	46.112686
3182.746338	-8.382856
3182.149902	25.144762
3181.553223	16.760637
3180.956543	16.758101
3180.359619	12.566673
3179.762695	-4.188257
3179.165771	4.187623
3178.568604	25.121935
3177.971436	0.000000
3177.374268	0.000000
3176.776855	8.370175
3176.179443	29.291180
3175.581787	12.551461
3174.984131	46.015057
3174.386475	8.365108
3173.788574	12.545760
3173.190674	8.362574
3172.592773	12.541961
3171.994629	12.540061
3171.396484	12.538162
3170.798340	4.178754
3170.199951	20.890606
3169.601563	-25.064930
3169.002930	-25.061132
3168.404297	29.233559
3167.805664	20.877949
3167.206787	4.174957
3166.607910	8.348649
3166.008789	16.694769
3165.409912	45.903656
3164.810547	16.689709
3164.211426	4.171795
3163.612061	12.513488
3163.012695	41.705303
3162.413086	-8.339796
3161.813477	29.184862
3161.213623	20.843170
3160.614014	-20.840012
3160.013916	33.338963
3159.414063	25.000431
3158.813965	33.328854
3158.213867	12.496426
3157.613525	12.494531
3157.013184	8.328424
3156.412598	8.327161
3155.812256	24.977694
3155.211426	0.000000
3154.610840	12.485059
3154.010010	8.322110
3153.409180	0.000000
3152.808105	-8.319586
3152.207031	4.159162
3151.605957	20.792654
3151.004639	-8.315800
3150.403320	24.943615
3149.801758	20.783192
3149.200195	-4.156008
3148.598633	4.155377
3147.996826	-8.309493
3147.395020	20.770580
3146.793213	33.227886
3146.191162	16.611422
3145.589111	-4.152225
3144.986816	20.757975
3144.384766	20.754824
3143.782227	45.653679
3143.179932	-12.449114
3142.577393	0.000000
3141.974609	-12.445333
3141.371826	16.591259
3140.769043	8.294370
3140.166260	-8.293111
3139.563232	20.729628
3138.960205	33.162369
3138.356934	4.144667
3137.753662	12.432112
3137.150391	12.430223
3136.546875	16.571114
3135.943359	49.705791
3135.339600	-16.566080
3134.735840	8.281782
3134.132080	4.140262
3133.528076	-16.558531
3132.924072	20.695021
3132.320068	45.522125
3131.715820	-16.550985
3131.111572	12.411353
3130.507080	4.136489
3129.902588	-8.271721
3129.298096	8.270464
3128.693604	0.000000
3128.088867	-16.535900
3127.483887	-4.133347
3126.878906	12.398155
3126.273926	24.792542
3125.668945	33.051697
3125.063721	0.000000
3124.458252	24.781237
3123.853027	28.907047
3123.247559	28.902651
3122.641846	24.769936
3122.036133	20.638474
3121.430420	37.143604
3120.824707	8.252879
3120.218750	12.377436
3119.612549	4.125185
3119.006592	28.871899
3118.400391	8.247859
3117.793945	24.739815
3117.187500	20.613377
3116.581055	20.610241
3115.974609	12.364263
3115.367920	24.724764
3114.760986	16.480667
3114.154297	20.597700
3113.547363	32.951305
3112.940186	12.354859
3112.333008	8.235320
3111.725830	0.000000
3111.118408	8.232813
3110.510986	12.347341
3109.903564	41.151539
3109.295898	-4.114527
3108.688232	24.683407
3108.080566	20.566374
3107.472656	28.788540
3106.864746	0.000000
3106.256592	24.668379
3105.648438	24.664623
3105.040039	20.550724
3104.431885	-4.109519
3103.823486	0.000000
3103.214844	4.108267
3102.606201	16.430567
3101.997559	4.107016
3101.388672	0.000000
3100.779785	24.634590
3100.170898	-8.210279
3099.561768	16.418058
3098.952637	24.623335
3098.343262	32.826111
3097.733887	28.718472
3097.124512	8.204027
3096.514893	12.304167
3095.905273	57.410694
3095.295410	12.300417
3094.685791	12.298543
3094.075684	16.395557
3093.465820	24.589588
3092.855713	24.585842
3092.245361	20.485079
3091.635254	16.385565
3091.024658	0.000000
3090.414307	12.285427
3089.803711	12.283554
3089.193115	28.657257
3088.582275	12.279809
3087.971436	28.648520
3087.360596	24.552130
3086.749512	24.548386
3086.138428	20.453869
3085.527100	-40.901501
3084.915771	-20.447632
3084.304443	0.000000
3083.692871	-4.088279
3083.081299	12.262966
3082.469482	16.348127
3081.857910	32.691269
3081.245850	-28.600496
3080.634033	8.170323
3080.021973	20.422693
3079.409668	-16.335661
3078.797607	20.416462
3078.185059	16.330677
3077.572754	8.164093
3076.960205	-4.081423
3076.347656	4.080801
3075.734863	24.481066
3075.122070	4.079555
3074.509033	32.631458
3073.895996	40.783096
3073.282959	-4.077687
3072.669922	12.231194
3072.056641	16.305769
3071.443115	4.075820
3070.829834	-8.150395
3070.216064	8.149151
3069.602539	12.221861
3068.988770	8.146663
3068.375000	20.363546
3067.760986	12.216263
3067.146973	16.285862
3066.532715	32.566750
3065.918701	-4.070222
3065.304199	24.417603
3064.689941	-8.137958
3064.075439	4.068357
3063.460693	8.135471
3062.846191	-4.067114
3062.231445	-28.465450
3061.616455	4.065872
3061.001465	-12.195751
3060.386475	-4.064629
3059.771240	24.384048
3059.156006	4.063387
3058.540771	20.313831
3057.925293	20.310726
3057.309814	16.246098
3056.694092	4.060904
3056.078369	8.120565
3055.462646	4.059662
3054.846680	24.354250
3054.230713	-8.116842
3053.614502	28.404606
3052.998291	16.228722
3052.382080	8.113120
3051.765625	24.335638
3051.149170	16.221279
3050.532715	-4.054699
3049.916016	24.324476
3049.299316	8.106918
3048.682373	12.158519
3048.065430	16.208878
3047.448486	20.257999
3046.831299	-16.203920
3046.214111	32.402882
3045.596680	24.298445
3044.979248	16.196486
3044.361816	28.339512
3043.744141	24.287294
3043.126465	16.189053
3042.508545	16.186575
3041.890869	4.046024
3041.272705	8.090811
3040.654785	28.313503
3040.036621	20.220837
3039.418213	36.391933
3038.799805	4.042929
3038.181396	32.338482
3037.562988	-4.041692
3036.944336	36.369656
3036.325439	4.040454
3035.706543	36.358521
3035.087646	20.196087
3034.468750	-8.077198
3033.849609	20.189901
3033.230469	32.298897
3032.611084	20.183720
3031.991699	12.108377
3031.372070	28.248552
3030.752441	32.279114
3030.132813	28.239901
3029.513184	16.134615
3028.893066	24.198214
3028.273193	-4.032418
3027.653076	24.190800
3027.032959	12.093547
3026.412598	-4.030565
3025.792480	28.209631
3025.171875	16.117319
3024.551270	24.172274
3023.930664	32.224758
3023.310059	20.137388
3022.689209	-24.161163
3022.068115	40.262432
3021.447266	8.051252
3020.826172	40.250092
3020.204834	48.292706
3019.583496	36.213978
3018.962158	8.046317
3018.340576	8.045083
3017.718994	32.175400
3017.097412	24.127850
3016.475586	40.206917
3015.853760	24.120451
3015.231689	-8.038918
3014.609619	8.037684
3013.987549	4.018226
3013.365234	8.035219
3012.742920	16.067974
3012.120361	20.081886
3011.497803	48.189137
3010.875244	-28.106018
3010.252441	16.058117
3009.629639	4.013914
3009.006836	44.146275
3008.383789	28.088774
3007.760498	20.060331
3007.137451	52.148857
3006.514160	12.032505
3005.890625	44.112415
3005.267090	28.067228
3004.643555	4.008989
3004.019775	36.075363
3003.395996	12.023274
3002.772217	24.042858
3002.148193	12.019584
3001.524170	24.035477
3000.899902	32.042385
3000.275635	52.060879
2999.651367	28.028477
2999.026855	28.024174
2998.402344	36.025547
2997.777588	28.015568
2997.152832	48.019314
2996.528076	44.010944
2995.903076	24.002283
2995.278076	27.998362
2994.653076	11.997455
2994.027832	67.975136
2993.402344	0.000000
2992.777100	19.986546
2992.151367	39.966949
2991.525879	43.956890
2990.900146	47.945602
2990.274414	7.989706
2989.648438	27.959675
2989.022461	47.923504
2988.396240	43.923130
2987.770264	39.923981
2987.143799	19.958923
2986.517578	51.885223
2985.891113	43.896133
2985.264404	43.889385
2984.637695	31.914646
2984.010986	51.853329
2983.384033	63.809669
2982.757080	47.849895
2982.130127	27.908148
2981.502930	55.807713
2980.875732	55.799133
2980.248291	83.685829
2979.620850	27.890985
2978.993408	51.789581
2978.365723	27.882408
2977.738037	67.704002
2977.110107	47.783710
2976.482178	67.683182
2975.854248	87.576523
2975.226074	51.741802
2974.597900	95.508636
2973.969482	59.683712
2973.341309	95.479248
2972.712646	99.442245
2972.083984	131.243561
2971.455322	127.246910
2970.826660	135.179031
2970.197754	123.232506
2969.568604	155.010574
2968.939697	127.168594
2968.310547	182.776718
2967.681152	186.721375
2967.051758	135.054245
2966.422363	198.578613
2965.792725	162.809402
2965.163086	190.576782
2964.533203	190.547440
2963.903564	206.394608
2963.273438	218.268372
2962.643311	218.234756
2962.013184	198.364685
2961.383057	230.067596
2960.752686	241.930389
2960.122314	297.409576
2959.491699	269.609833
2958.861084	245.782852
2958.230225	265.563141
2957.599609	253.633179
2956.968506	265.481323
2956.337646	312.981995
2955.706299	301.050201
2955.075195	273.279785
2954.443848	300.957458
2953.812500	269.236206
2953.180908	281.070953
2952.549316	344.357819
2951.917725	296.814453
2951.285889	360.079346
2950.653809	348.154938
2950.021973	387.658234
2949.389893	427.149353
2948.757568	355.902924
2948.125244	355.848053
2947.492920	391.372498
2946.860352	367.596283
2946.227783	308.259033
2945.595215	324.017212
2944.962402	288.409851
2944.329590	252.813492
2943.696533	272.522522
2943.063477	276.429474
2942.430420	229.006241
2941.797119	193.440948
2941.163574	213.146942
2940.530273	213.114059
2939.896729	217.027130
2939.262939	248.556366
2938.629150	224.849625
2937.995361	209.038452
2937.361328	193.232147
2936.727295	197.145233
2936.093262	177.403336
2935.458984	185.259338
2934.824707	228.582611
2934.190186	240.368759
2933.555664	248.211380
2932.921143	267.869354
2932.286377	244.196121
2931.651367	263.848633
2931.016602	330.744232
2930.381592	311.009033
2929.746338	338.514526
2929.111084	322.719849
2928.475830	342.345001
2927.840332	420.980011
2927.204834	401.246063
2926.569336	381.518219
2925.933594	467.975830
2925.297607	479.699463
2924.661865	467.831299
2924.025879	510.997253
2923.389648	404.804535
2922.753418	459.755463
2922.117188	479.329071
2921.480713	498.896637
2920.844238	514.530396
2920.207764	455.544312
2919.571045	479.032928
2918.934082	478.958893
2918.297363	443.557312
2917.660156	431.714752
2917.023193	478.736908
2916.385986	435.504761
2915.748779	490.357513
2915.111328	427.525665
2914.473877	400.008026
2913.836182	482.288055
2913.198486	435.168304
2912.560791	466.459656
2911.922852	450.710632
2911.284912	415.373413
2910.646729	489.751373
2910.008545	485.758240
2909.370361	501.350342
2908.731934	509.105194
2908.093506	520.773193
2907.455078	540.267578
2906.816406	606.728455
2906.177490	618.375916
2905.538574	669.151428
2904.899658	715.998596
2904.260498	692.416138
2903.621338	668.840881
2902.982178	735.220093
2902.342773	723.375916
2901.703369	750.630737
2901.063721	770.059204
2900.424072	683.956909
2899.784424	781.544067
2899.144531	707.187927
2898.504639	687.545898
2897.864502	675.721802
2897.224365	663.901306
2896.583984	671.607910
2895.943848	667.599854
2895.303223	605.040710
2894.662842	608.849915
2894.021973	600.951111
2893.381348	647.678162
2892.740479	706.093933
2892.099609	674.780823
2891.458496	662.976746
2890.817383	592.687439
2890.176025	654.974121
2889.534668	732.833740
2888.893311	713.232971
2888.251709	755.987793
2887.610107	767.559387
2886.968262	841.457581
2886.326416	833.537170
2885.684570	848.985718
2885.042480	907.261597
2884.400391	872.082031
2883.758057	899.195251
2883.115723	860.135742
2882.473389	972.853455
2881.830811	902.668091
2881.188232	972.551941
2880.545410	1003.518005
2879.902588	921.693420
2879.259766	1007.095337
2878.616699	901.968750
2877.973633	944.588013
2877.330322	893.915894
2876.687012	827.715515
2876.043457	878.097229
2875.399902	773.071899
2874.756348	800.141296
2874.112549	780.599304
2873.468750	737.765503
2872.824707	753.180603
2872.180664	733.654907
2871.536621	714.135315
2870.892334	690.741089
2870.248047	725.553650
2869.603760	651.733215
2868.958984	682.662170
2868.314453	771.753967
2867.669678	674.695251
2867.024902	728.867981
2866.379883	759.765747
2865.734863	810.032654
2865.089844	775.030579
2864.444580	743.913879
2863.799316	794.159790
2863.153809	728.189575
2862.508301	743.567566
2861.862549	615.671326
2861.216797	681.391968
2860.571045	514.835632
2859.925049	580.551514
2859.279053	472.108612
2858.632813	437.213013
2857.986572	456.487854
2857.340332	375.190216
2856.693848	340.325897
2856.047363	348.006531
2855.400635	282.228119
2854.753906	305.377502
2854.107178	320.789825
2853.460205	316.875671
2852.813232	239.551712
2852.166016	243.377640
2851.518799	258.789978
2850.871338	254.887833
2850.223877	293.461609
2849.576416	285.694519
2848.928711	304.950836
2848.281006	304.903442
2847.633301	320.291809
2846.985352	339.533722
2846.337158	339.480957
2845.688965	389.570984
2845.040771	416.506226
2844.392578	374.026154
2843.743896	416.376740
2843.095459	454.859436
2842.446777	516.454956
2841.798096	473.985718
2841.149170	527.853210
2840.500244	547.032898
2839.851074	577.761780
2839.202148	550.713928
2838.552734	554.478821
2837.903320	569.792358
2837.253906	577.402466
2836.604492	631.195190
2835.954834	492.563507
2835.304932	596.370850
2834.655029	507.798096
2834.005127	492.333679
2833.354980	469.182526
2832.704834	434.503113
2832.054688	361.388824
2831.404297	311.361053
2830.753906	311.312622
2830.103271	257.465424
2829.452637	261.267517
2828.801758	226.652725
2828.150879	203.571609
2827.500000	207.380295
2826.848877	176.629791
2826.197754	142.049667
2825.546387	149.704727
2824.895020	149.681427
2824.243408	118.959015
2823.591797	122.777283
2822.940186	141.939133
2822.288330	88.218697
2821.636475	107.379951
2820.984619	92.025620
2820.332520	72.842270
2819.680176	84.330551
2819.028076	91.982635
2818.375488	68.976227
2817.723145	107.279640
2817.070557	111.093750
2816.417725	99.585777
2815.764893	99.570267
2815.112061	68.922523
2814.458984	42.112755
2813.805908	76.556717
2813.152832	53.581348
2812.499512	53.573002
2811.845947	87.999069
2811.192383	72.683556
2810.538818	45.898251
2809.885010	49.715351
2809.231201	49.707603
2808.577393	84.107445
2807.923340	84.094337
2807.269287	76.437477
2806.614990	34.391502
2805.960693	72.592964
2805.306152	61.121384
2804.651611	42.014400
2803.997070	76.377907
2803.342285	49.637897
2802.687500	41.994747
2802.032471	22.902653
2801.377441	72.513756
2800.722412	80.134285
2800.067139	57.229847
2799.411621	72.479828
2798.756348	45.769592
2798.100586	34.321838
2797.445068	22.877657
2796.789307	49.560524
2796.133301	53.364544
2795.477539	41.922741
2794.821289	26.673944
2794.165283	26.669783
2793.509033	49.521866
2792.852539	76.175591
2792.196045	49.506409
2791.539551	41.883499
2790.882813	38.069965
2790.226074	38.064022
2789.569092	60.892925
2788.912109	49.467777
2788.255127	41.850815
2787.597900	49.452332
2786.940430	45.641178
2786.283203	53.239727
2785.625488	22.813463
2784.968018	53.223099
2784.310303	57.015842
2783.652588	79.809715
2782.994629	45.598427
2782.336426	56.989132
2781.678467	56.980228
2781.020264	56.971325
2780.361816	34.177456
2779.703369	41.765919
2779.044922	37.963085
2778.386230	60.731445
2777.727539	26.565855
2777.068604	30.356234
2776.409668	26.557552
2775.750732	49.313461
2775.091553	45.513004
2774.432373	30.337259
2773.772949	49.290340
2773.113525	34.118748
2772.453857	26.532656
2771.794189	41.687656
2771.134521	45.470333
2770.474609	30.308815
2769.814697	30.304075
2769.154541	41.661591
2768.494385	64.376022
2767.833984	22.717396
2767.173584	64.355888
2766.513184	60.560776
2765.852539	68.120216
2765.191895	49.190239
2764.531006	37.832726
2763.870117	26.478765
2763.209229	37.820889
2762.548096	68.066948
2761.886719	26.466339
2761.225586	37.803143
2760.563965	37.797226
2759.902588	60.466099
2759.240967	68.013718
2758.579102	37.779484
2757.917236	33.996212
2757.255371	49.097958
2756.593262	26.433224
2755.931152	41.531418
2755.269043	56.624889
2754.606689	33.969616
2753.944092	52.833351
2753.281494	49.051857
2752.618896	67.907326
2751.956055	49.036499
2751.293213	60.343163
2750.630371	90.500572
2749.967285	64.094528
2749.303955	56.545139
2748.640625	60.305370
2747.977295	67.832916
2747.313721	71.590195
2746.650146	67.811668
2745.986572	67.801041
2745.322754	45.193615
2744.658691	60.248711
2743.994873	90.358902
2743.330566	71.522926
2742.666504	86.566818
2742.002197	63.974140
2741.337646	60.201519
2740.673096	82.764114
2740.008545	75.228317
2739.343750	41.369087
2738.678955	78.964973
2738.013916	93.991180
2737.348877	90.217392
2736.683594	101.478653
2736.018311	93.946983
2735.353027	82.660385
2734.687500	93.917526
2734.021973	71.366127
2733.356201	86.377029
2732.690430	101.383217
2732.024658	101.367317
2731.358643	105.105171
2730.692383	78.816513
2730.026367	105.072205
2729.359863	123.815674
2728.693604	97.536438
2728.027100	105.022766
2727.360352	108.756508
2726.693604	59.994179
2726.026855	93.726196
2725.359863	101.208405
2724.692871	127.427628
2724.025635	146.144043
2723.358398	127.387634
2722.691162	149.844284
2722.023682	127.347649
2721.355957	183.501633
2720.688477	161.006760
2720.020508	127.287689
2719.352783	160.956223
2718.684814	119.762566
2718.016602	149.679703
2717.348389	157.139008
2716.680176	130.928619
2716.011719	142.128738
2715.343262	123.408211
2714.674561	134.605988
2714.005859	149.538727
2713.337158	108.398552
2712.668213	130.805283
2711.999023	89.680962
2711.329834	119.555832
2710.660645	97.123856
2709.991455	112.048378
2709.321777	108.296417
2708.652344	119.480721
2707.982666	126.928314
2707.312988	115.710571
2706.643066	111.960381
2705.972900	89.554222
2705.302979	93.270988
2704.632813	93.256332
2703.962402	85.782341
2703.291992	93.227020
2702.621582	108.126343
2701.950928	74.558167
2701.280273	63.364479
2700.609375	85.714935
2699.938477	55.892254
2699.267334	59.609032
2698.596191	37.249786
2697.925049	93.109818
2697.253662	52.133297
2696.582031	55.848320
2695.910645	44.671631
2695.239014	81.885109
2694.567139	104.201012
2693.895264	74.417587
2693.223145	81.846466
2692.551270	59.515339
2691.878906	40.910358
2691.206543	81.807846
2690.534180	55.769299
2689.861816	52.043156
2689.189209	70.618881
2688.516357	59.459171
2687.843506	66.881042
2687.170654	70.585541
2686.497559	63.145546
2685.824463	44.566311
2685.151123	48.272568
2684.477783	70.541107
2683.804199	63.105793
2683.130615	63.095860
2682.457031	40.820305
2681.783203	44.524227
2681.109375	63.066059
2680.435303	74.183678
2679.761230	74.171997
2679.086914	81.576347
2678.412598	63.026340
2677.738281	55.602715
2677.063721	51.887695
2676.389160	66.702240
2675.714355	70.396828
2675.039551	81.499275
2674.364502	51.855003
2673.689453	48.143490
2673.014404	70.352470
2672.339111	62.937031
2671.663574	51.822330
2670.988037	40.711128
2670.312500	55.506424
2669.636719	55.497677
2668.960938	62.887451
2668.285156	40.685467
2667.609131	25.886671
2666.932861	77.647766
2666.256592	62.847809
2665.580322	55.445206
2664.903809	25.870350
2664.227295	33.256634
2663.550781	36.945988
2662.874023	84.962372
2662.197021	92.335838
2661.520020	66.471321
2660.843018	66.460838
2660.165771	66.450356
2659.488525	77.513184
2658.811035	29.524174
2658.133545	73.798790
2657.455811	77.476501
2656.778076	51.642853
2656.100342	77.452057
2655.422363	66.377007
2654.744385	70.053558
2654.066162	47.923820
2653.387939	55.287987
2652.709473	73.705681
2652.031006	66.324646
2651.352539	92.103020
2650.673828	95.772026
2649.994873	125.220566
2649.316162	106.788918
2648.636963	77.317696
2647.958008	88.349129
2647.278809	103.057709
2646.599365	51.520721
2645.919922	62.550995
2645.240479	80.935562
2644.560791	106.670937
2643.880859	66.199089
2643.201172	58.834343
2642.520996	73.531311
2641.841064	29.407879
2641.160889	40.429447
2640.480469	33.073414
2639.800049	44.090916
2639.119629	69.799591
2638.438965	69.788559
2637.758301	51.415024
2637.077393	25.703449
2636.396484	73.426819
2635.715332	51.390652
2635.034180	47.712349
2634.353027	40.365608
2633.671631	33.021187
2632.989990	44.021290
2632.308350	66.021492
2631.626709	25.670967
2630.944824	99.000931
2630.262939	62.324066
2629.581055	51.317585
2628.898926	29.319698
2628.216553	40.308208
2627.534180	40.301834
2626.851807	18.316118
2626.169189	80.578178
2625.486572	80.565430
2624.803711	51.260803
2624.120850	43.930882
2623.437988	69.546227
2622.754883	73.194969
2622.071533	69.524223
2621.388184	43.903088
2620.704834	51.212162
2620.021240	25.602030
2619.337646	32.911686
2618.653809	65.812958
2617.969971	40.212666
2617.286133	54.826775
2616.602051	54.818096
2615.917725	25.577728
2615.233398	58.454124
2614.549072	51.139263
2613.864502	54.783394
2613.179932	76.684608
2612.495117	47.463909
2611.810303	54.757378
2611.125488	29.199310
2610.440430	62.038708
2609.755127	47.433853
2609.069824	29.185440
2608.384521	40.123623
2607.698975	61.999416
2607.013428	40.110916
2606.327637	47.396297
2605.641846	54.679375
2604.956055	29.157713
2604.270020	54.662048
2603.583740	72.871185
2602.897461	58.287712
2602.211182	43.708855
2601.524658	43.701931
2600.838135	50.977505
2600.151367	43.688080
2599.464600	50.961349
2598.777832	76.429909
2598.090820	36.389423
2597.403564	72.767311
2596.716309	69.117989
2596.029053	21.823273
2595.341553	29.093084
2594.654053	39.996647
2593.966309	25.448376
2593.278564	58.158493
2592.590820	58.149269
2591.902832	58.140049
2591.214600	76.296715
2590.526367	39.958607
2589.838135	58.112389
2589.149658	43.577377
2588.461182	47.201340
2587.772461	61.715034
2587.083740	54.445805
2586.394775	50.808022
2585.705811	68.942802
2585.016846	54.419891
2584.327637	29.019337
2583.638184	50.775780
2582.948975	47.141457
2582.259277	39.882595
2581.569824	54.376724
2580.879883	39.869934
2580.190186	50.735497
2579.500244	54.350834
2578.810059	50.719391
2578.119873	36.222385
2577.429688	57.946613
2576.739258	47.074150
2576.048584	28.964108
2575.358154	57.919014
2574.667236	18.096817
2573.976563	43.425465
2573.285645	50.654995
2572.594482	47.029312
2571.903320	68.724228
2571.212158	10.849470
2570.520752	36.159157
2569.829102	57.845459
2569.137451	32.532902
2568.445801	43.370312
2567.753906	57.817890
2567.062012	68.647835
2566.370117	46.962109
2565.677979	10.835688
2564.985596	61.392471
2564.293213	28.885983
2563.600830	46.932262
2562.908203	36.096001
2562.215332	86.616631
2561.522705	18.042263
2560.829590	25.255152
2560.136719	68.538803
2559.443604	54.100975
2558.750244	61.304691
2558.056885	50.478188
2557.363525	61.285194
2556.669922	50.462132
2555.976074	28.830919
2555.282227	64.859253
2554.588379	46.835342
2553.894287	46.827892
2553.200195	43.218868
2552.505859	57.615993
2551.811523	36.004265
2551.117188	50.397953
2550.422607	35.992809
2549.727783	28.789665
2549.032959	21.588814
2548.338135	28.780504
2547.643066	25.178934
2546.947998	39.560596
2546.252686	39.554302
2545.557373	28.762186
2544.861816	28.757607
2544.166260	50.317802
2543.470703	39.529121
2542.774902	28.743876
2542.078857	50.293774
2541.382813	39.510242
2540.686768	64.642830
2539.990479	46.679054
2539.294189	39.491371
2538.597656	53.843292
2537.901123	28.711849
2537.204346	43.060913
2536.507568	46.641895
2535.810791	53.808998
2535.113770	28.693560
2534.416504	43.033482
2533.719238	68.125496
2533.021973	43.019772
2532.324463	68.103783
2531.626953	39.422222
2530.929199	46.582478
2530.231445	53.740444
2529.533447	39.403378
2528.835449	42.978653
2528.137451	42.971802
2527.439209	57.286606
2526.740723	17.899210
2526.042236	35.792713
2525.343750	60.837914
2524.645020	57.250080
2523.946289	25.042917
2523.247314	75.116776
2522.548340	53.646282
2521.849121	42.910179
2521.149902	42.903336
2520.450684	64.344742
2519.751221	39.315514
2519.051514	3.573568
2518.351807	46.448967
2517.652100	46.441559
2516.952148	42.862293
2516.252197	32.141590
2515.552002	57.131489
2514.851807	28.561186
2514.151367	53.543678
2513.450928	82.087204
2512.750244	32.115955
2512.049561	32.110828
2511.348877	42.807606
2510.647949	28.533848
2509.946777	53.492424
2509.245605	39.221516
2508.544434	42.780277
2507.843018	57.031265
2507.141602	42.766621
2506.439941	28.506527
2505.738281	71.254936
2505.036377	49.870491
2504.334473	46.300919
2503.632568	35.610405
2502.930420	42.725658
2502.228027	39.158932
2501.525635	64.068016
2500.823242	14.235063
2500.120605	14.232789
2499.417969	35.576286
2498.715088	28.456484
2498.012207	60.460365
2497.309082	35.559238
2496.605957	21.332134
2495.902588	56.876598
2495.199219	67.530167
2494.495605	24.875559
2493.791992	49.743168
2493.088379	35.525154
2492.384521	42.623371
2491.680664	39.065178
2490.976563	42.609745
2490.272461	56.803909
2489.568115	31.947090
2488.863770	49.687531
2488.159180	42.582500
2487.454590	49.671638
2486.749756	56.758511
2486.044922	56.749432
2485.339844	60.286629
2484.634766	35.457050
2483.929688	53.177071
2483.224365	38.990280
2482.519043	21.264023
2481.813477	60.238426
2481.107666	31.885830
2480.402100	46.049942
2479.696045	21.250418
2478.990234	24.788187
2478.284180	53.109043
2477.577881	81.420837
2476.871582	31.855228
2476.165039	24.772324
2475.458496	42.460041
2474.751953	60.142097
2474.045166	42.446449
2473.338379	53.049568
2472.631348	28.288572
2471.924072	84.852135
2471.217041	35.349396
2470.509521	45.946854
2469.802246	38.871880
2469.094482	42.398899
2468.386963	35.326756
2467.679199	52.981647
2466.971191	7.063088
2466.263184	31.778807
2465.554932	63.547432
2464.846680	67.067101
2464.138428	52.939228
2463.429932	38.815880
2462.721436	42.337811
2462.012695	28.220686
2461.303955	56.432327
2460.594971	38.791008
2459.885986	49.362461
2459.176758	38.778576
2458.467529	49.346638
2457.758057	52.862923
2457.048584	56.378082
2456.338867	52.845978
2455.629150	49.315006
2454.919434	49.307098
2454.209473	45.777824
2453.499512	42.249676
2452.789307	63.364353
2452.078857	45.755806
2451.368408	42.229355
2450.657959	56.296776
2449.947266	38.697826
2449.236572	49.243877
2448.525879	24.617990
2447.814697	52.744373
2447.103760	49.220184
2446.392578	52.727451
2445.681152	42.175194
2444.969727	63.252640
2444.258301	59.729019
2443.546631	66.745247
2442.834717	42.148129
2442.122803	77.259171
2441.410889	21.067301
2440.698730	49.149147
2439.986572	38.610989
2439.274170	42.114315
2438.561768	49.125481
2437.849121	52.625996
2437.136475	38.586201
2436.423584	56.116371
2435.710693	35.067101
2434.997803	38.567616
2434.284424	49.078175
2433.571289	49.070293
2432.857910	45.557953
2432.144287	73.581795
2431.430908	31.529991
2430.717041	77.060928
2430.003174	49.030895
2429.289307	38.518089
2428.575195	28.008654
2427.861084	35.005192
2427.146729	62.999222
2426.432373	59.489704
2425.717773	27.990656
2425.003174	52.474049
2424.288330	69.954155
2423.573486	59.451473
2422.858643	34.965832
2422.143555	13.984085
2421.428223	48.936432
2420.712891	62.908154
2419.997559	69.886711
2419.281982	41.925285
2418.566162	41.918545
2417.850586	48.897102
2417.134521	59.365509
2416.418457	41.898327
2415.702393	83.783173
2414.986084	59.336868
2414.269775	48.857800
2413.553223	59.317783
2412.836670	34.887199
2412.120117	48.834225
2411.403076	41.851173
2410.686279	31.383329
2409.969238	45.324184
2409.251953	41.830975
2408.534668	31.368183
2407.817383	48.787098
2407.099854	66.200409
2406.382080	38.320385
2405.664307	59.212879
2404.946533	27.860399
2404.228516	17.409946
2403.510498	52.221432
2402.792236	48.732159
2402.073975	38.283386
2401.355469	48.716465
2400.636963	34.791874
2399.918213	20.871763
2399.199463	34.780670
2398.480469	48.685097
2397.761475	52.154202
2397.042480	3.476387
2396.323242	55.613228
2395.603760	72.980606
2394.884277	31.272364
2394.164795	45.163914
2393.445068	41.683052
2392.725098	38.203308
2392.005127	52.087025
2391.285156	41.662907
2390.564941	69.426987
2389.844727	41.649479
2389.124268	45.112999
2388.403809	55.514740
2387.683105	34.691120
2386.962402	48.559742
2386.241455	52.019905
2385.520508	45.076653
2384.799316	31.201881
2384.078125	41.595802
2383.356689	48.520611
2382.635254	20.791195
2381.913818	58.898884
2381.192139	45.033062
2380.470215	34.635231
2379.748291	31.166679
2379.026367	31.161652
2378.304199	55.389557
2377.581787	65.764488
2376.859375	44.989498
2376.136963	38.061893
2375.414307	41.515366
2374.691650	31.131502
2373.968750	34.584976
2373.245850	38.037334
2372.522705	44.945961
2371.799316	31.111412
2371.076172	27.650126
2370.352783	41.468494
2369.629150	44.916950
2368.905518	38.000515
2368.181641	44.902451
2367.457764	31.081293
2366.733643	31.076275
2366.009521	51.785431
2365.285400	58.680676
2364.561035	58.671200
2363.836426	27.605518
2363.111816	48.301857
2362.387207	34.495754
2361.662354	65.531349
2360.937256	48.278458
2360.212158	72.405983
2359.487061	31.026125
2358.761719	68.935806
2358.036377	34.462334
2357.310791	37.902443
2356.584961	24.115839
2355.859375	44.779320
2355.133301	20.664040
2354.407471	51.651749
2353.681152	41.314720
2352.955078	27.538696
2352.228516	75.719170
2351.502197	48.177139
2350.775635	58.491356
2350.048828	72.242348
2349.322021	55.032890
2348.594971	85.974983
2347.867920	58.453537
2347.140869	51.568310
2346.413330	34.373314
2345.686035	44.678082
2344.958496	68.724396
2344.230713	54.970627
2343.502930	65.267059
2342.775146	58.387398
2342.047119	58.377953
2341.319092	54.935066
2340.590820	41.194633
2339.862305	48.052631
2339.133789	78.930832
2338.405273	44.605862
2337.676514	65.182632
2336.947754	58.311863
2336.218750	65.161537
2335.489746	44.576992
2334.760498	106.281776
2334.031250	61.702011
2333.301758	41.128017
2332.572266	30.841019
2331.842529	27.409800
2331.112793	58.236397
2330.382813	68.502312
2329.652832	23.971928
2328.922607	44.512085
2328.192383	37.657970
2327.462158	68.457954
2326.731689	27.378746
2326.000977	54.748623
2325.270264	82.109634
2324.539307	34.206806
2323.808350	71.822655
2323.077393	61.552299
2322.346191	47.866257
2321.614746	58.113892
2320.883301	61.522385
2320.151855	61.512417
2319.420166	64.919250
2318.688232	40.994987
2317.956299	30.741257
2317.224365	54.642265
2316.492188	10.243764
2315.760010	61.452621
2315.027588	34.134811
2314.295166	47.780987
2313.562500	44.360867
2312.829590	71.648247
2312.096924	51.169018
2311.363770	44.339291
2310.630615	34.101616
2309.897461	30.686478
2309.164063	44.317722
2308.430664	37.493530
2307.697021	71.566948
2306.963379	40.888763
2306.229492	61.323196
2305.495605	71.532120
2304.761719	71.520515
2304.027344	78.319283
2303.293213	71.497307
2302.558838	30.636732
2301.824219	71.474106
2301.089600	51.044647
2300.354736	51.036366
2299.619873	47.626209
2298.885010	51.019798
2298.149658	78.217659
2297.414551	71.404526
2296.679199	71.392937
2295.943604	67.982231
2295.208008	57.775517
2294.472412	71.358170
2293.736572	67.949127
2293.000488	67.938087
2292.264404	57.737999
2291.528320	64.520226
2290.791992	67.904991
2290.055420	67.893967
2289.318848	54.306347
2288.582275	57.691120
2287.845459	54.288704
2287.108398	54.279884
2286.371582	44.095242
2285.634277	61.045029
2284.896973	74.598465
2284.159668	61.025188
2283.422119	61.015270
2282.684570	33.891865
2281.946777	74.549980
2281.208740	77.925949
2280.470703	54.200542
2279.732666	27.095867
2278.994385	44.023624
2278.256104	50.788231
2277.517578	44.009312
2276.779053	50.771717
2276.040283	74.453079
2275.301514	77.824646
2274.562500	47.363823
2273.823486	50.738697
2273.084229	60.876534
2272.344971	47.340714
2271.605469	47.333015
2270.865967	67.607590
2270.126221	50.697445
2269.386475	37.172077
2268.646484	43.923489
2267.906494	74.319962
2267.166260	40.531567
2266.426025	33.770809
2265.685547	54.024498
2264.945068	70.895615
2264.204346	87.761238
2263.463623	53.998123
2262.722656	74.235336
2261.981689	70.849464
2261.240723	67.464699
2260.499268	47.217598
2259.758057	40.465637
2259.016602	37.087460
2258.274902	57.307652
2257.533203	67.409790
2256.791260	57.288986
2256.049316	70.757225
2255.307129	20.213057
2254.564941	26.946352
2253.822754	30.309708
2253.080322	50.507950
2252.337646	60.599667
2251.594971	50.491493
2250.852051	70.676575
2250.109131	57.205048
2249.366211	67.289093
2248.623047	74.005936
2247.879639	50.450371
2247.136230	60.530575
2246.392578	40.347141
2245.648926	53.787418
2244.905273	50.417484
2244.161377	80.654823
2243.417236	60.481255
2242.673096	67.190437
2241.928955	50.384613
2241.184570	50.376396
2240.439941	63.799698
2239.695313	33.573311
2238.950439	67.135674
2238.205566	70.480957
2237.460693	63.758087
2236.715576	53.682262
2235.970215	40.255131
2235.224854	50.310703
2234.479492	70.423492
2233.733887	36.882477
2232.988037	53.638485
2232.242188	46.926018
2231.496338	33.513115
2230.750244	70.366058
2230.003906	40.202614
2229.257568	63.643745
2228.511230	50.236862
2227.764648	90.411591
2227.017822	73.656677
2226.270996	36.822327
2225.523926	53.551003
2224.776855	50.195869
2224.029785	66.916901
2223.282471	56.870075
2222.534912	56.860786
2221.787354	33.442059
2221.039795	56.842216
2220.291992	53.489819
2219.543945	76.879059
2218.795898	60.156391
2218.047852	73.512466
2217.299561	60.136738
2216.551025	80.169212
2215.802490	56.777248
2215.053955	36.732216
2214.305176	43.403709
2213.556152	70.102226
2212.807129	66.753113
2212.058105	53.393764
2211.308838	83.414116
2210.559326	46.704273
2209.809814	73.380432
2209.060303	26.679430
2208.310547	70.022057
2207.560547	76.678284
2206.810547	56.665989
2206.060303	33.327484
2205.310059	46.650848
2204.559814	46.643219
2203.809326	49.966705
2203.058594	46.627964
2202.307861	36.630264
2201.557129	53.271667
2200.806152	16.644674
2200.054932	26.627121
2199.303711	73.212601
2198.552246	79.855225
2197.800781	63.208378
2197.049316	86.481522
2196.297607	56.536358
2195.545654	56.527103
2194.793701	49.868694
2194.041504	93.072998
2193.289307	46.528881
2192.537109	56.490105
2191.784668	83.060089
2191.031982	69.759048
2190.279297	46.498421
2189.526367	56.453121
2188.773438	56.443878
2188.020508	79.672432
2187.267090	59.744537
2186.513916	66.371948
2185.760498	89.587456
2185.006836	53.080166
2184.253174	49.754505
2183.499268	66.328476
2182.745361	53.054089
2181.991211	56.360733
2181.237061	56.351498
2180.482666	36.456760
2179.728271	53.019325
2178.973877	96.081779
2178.218994	62.939816
2177.464355	39.744949
2176.709229	56.296116
2175.954346	62.908878
2175.198975	79.450821
2174.443848	46.338715
2173.688232	39.712387
2172.932861	62.867638
2172.177002	29.774525
2171.421387	62.847023
2170.665283	66.143913
2169.909424	46.293148
2169.153076	59.510002
2168.396729	56.194672
2167.640381	62.795509
2166.883789	69.394180
2166.127197	62.774910
2165.370361	56.157814
2164.613525	46.240025
2163.856445	99.069511
2163.099365	72.639053
2162.342041	62.723434
2161.584473	69.314529
2160.826904	72.603302
2160.069336	19.797651
2159.311523	39.588802
2158.553711	85.761665
2157.795654	59.363712
2157.037354	65.948853
2156.279053	52.750423
2155.520752	85.705368
2154.762207	62.620564
2154.003662	72.496117
2153.244873	46.126316
2152.485840	69.178116
2151.726807	65.873100
2150.967773	62.569164
2150.208252	49.388596
2149.448975	59.256584
2148.689453	49.372375
2147.929688	55.946167
2147.169922	82.260262
2146.410156	65.797394
2145.650146	75.654572
2144.889893	52.620621
2144.129639	69.053215
2143.369141	62.466454
2142.608643	46.020348
2141.847900	62.445923
2141.087158	69.007835
2140.326416	72.282043
2139.565186	36.135078
2138.804199	59.120411
2138.042725	72.246399
2137.281494	75.517914
2136.519775	65.656952
2135.758301	59.081543
2134.996338	72.198898
2134.234619	52.499657
2133.472412	52.491020
2132.710449	59.042686
2131.947998	52.473759
2131.185547	68.860481
2130.423096	52.456497
2129.660400	88.505775
2128.897705	68.826500
2128.134766	58.984440
2127.371826	75.356606
2126.608643	81.895874
2125.845215	81.882401
2125.081787	72.044655
2124.318359	39.290615
2123.554688	42.557831
2122.790771	68.735947
2122.026855	65.452034
2121.262939	78.529510
2120.498779	52.344387
2119.734375	58.877743
2118.969971	71.949837
2118.205322	75.207901
2117.440674	55.579292
2116.676025	84.989632
2115.911133	104.585396
2115.145996	55.551842
2114.380859	75.145996
2113.615479	49.000183
2112.850098	71.855103
2112.084473	71.843262
2111.318848	91.421814
2110.552979	62.026012
2109.787109	45.695847
2109.020996	42.424866
2108.254883	39.154964
2107.488525	71.772270
2106.722168	81.545959
2105.955566	78.271217
2105.188965	55.432972
2104.422119	42.382935
2103.655029	61.934078
2102.887939	74.960472
2102.120850	58.655045
2101.353516	52.129223
2100.585938	68.408325
2099.818359	74.911049
2099.050781	52.103439
2098.282959	71.630417
2097.514893	52.086254
2096.746826	65.097084
2095.978760	48.814758
2095.210449	84.598289
2094.441895	58.558388
2093.673340	78.064972
2092.904541	78.052094
2092.135742	84.542480
2091.366699	55.268654
2090.597656	71.512337
2089.828369	61.750465
2089.059082	64.989761
2088.289551	71.476944
2087.520020	68.216728
2086.750244	90.940628
2085.980469	51.957493
2085.210449	64.936142
2084.440186	61.679153
2083.670166	64.914703
2082.899658	58.413589
2082.129150	68.137932
2081.358643	71.370811
2080.587891	51.897472
2079.816895	58.375015
2079.045898	61.607895
2078.274902	74.565659
2077.503662	55.104645
2076.732178	61.577370
2075.960693	68.047958
2075.188965	64.796867
2074.417236	58.307549
2073.645264	42.104050
2072.873291	68.002998
2072.101074	74.467163
2071.328857	58.269020
2070.556396	64.732651
2069.783936	58.249760
2069.011230	71.182381
2068.238525	67.935585
2067.465576	77.627838
2066.692627	58.211254
2065.919434	67.901901
2065.145996	64.657784
2064.372559	51.717674
2063.599121	71.100044
2062.825439	58.163143
2062.051514	96.922539
2061.277588	51.683472
2060.503662	67.823341
2059.729248	87.187012
2058.955078	100.087044
2058.180664	100.070488
2057.406006	103.281479
2056.631348	67.767258
2055.856445	74.209000
2055.081543	109.682106
2054.306396	77.409851
2053.531250	58.047783
2052.755859	99.954636
2051.980225	90.266663
2051.204590	83.805168
2050.428955	74.123070
2049.653076	83.777428
2048.877197	83.763557
2048.101074	70.865120
2047.324707	64.412170
2046.548340	67.621582
2045.771851	125.562141
2044.995239	80.475227
2044.218506	80.461899
2043.441528	77.230629
2042.664551	70.783020
2041.887329	67.554413
2041.110107	93.273979
2040.332642	90.042717
2039.555176	67.520851
2038.777466	93.227623
2037.999634	96.426392
2037.221802	51.418888
2036.443726	83.541847
2035.665527	67.464928
2034.887207	86.726242
2034.108765	83.500320
2033.330200	67.431381
2032.551514	93.104095
2031.772705	51.359261
2030.993774	60.979012
2030.214600	60.968903
2029.435425	99.459084
2028.656128	73.779991
2027.876587	67.353165
2027.097046	54.514950
2026.317261	89.774437
2025.537476	86.553848
2024.757446	112.180824
2023.977295	134.594666
2023.197021	73.694374
2022.416626	83.292862
2021.636230	99.294243
2020.855591	83.265228
2020.074707	83.251411
2019.293823	76.834702
2018.512817	99.228355
2017.731689	76.809204
2016.950439	76.796455
2016.168945	83.182350
2015.387451	115.156448
2014.605713	95.947777
2013.823975	86.338669
2013.041992	73.535545
2012.260010	83.113335
2011.477783	95.884079
2010.695435	89.476944
2009.912964	118.217758
2009.130371	102.225403
2008.347656	86.238358
2007.564819	98.997971
2006.781860	92.595619
2005.998779	118.119614
2005.215576	92.564857
2004.432129	86.166763
2003.648682	76.579948
2002.864990	76.567230
2002.081299	82.934044
2001.297363	76.541786
2000.513428	133.925858
1999.729248	89.269066
1998.944946	95.629532
1998.160522	108.362129
1997.375977	101.970932
1996.591309	92.395798
1995.806519	143.348953
1995.021606	98.735085
1994.236572	73.242882
1993.451416	105.070137
1992.666016	85.952179
1991.880615	95.486542
1991.094971	114.564796
1990.309326	114.545746
1989.523438	89.076317
1988.737549	104.965340
1987.951416	79.505966
1987.165161	73.133324
1986.378784	101.733780
1985.592285	108.074158
1984.805664	92.165565
1984.018921	85.795036
1983.232056	69.895439
1982.444946	120.708389
1981.657837	98.456245
1980.870605	123.843689
1980.083130	130.172974
1979.295654	85.709404
1978.507935	104.738495
1977.720093	76.160767
1976.932129	88.839439
1976.144165	85.652336
1975.355957	114.184105
1974.567627	120.507591
1973.779053	88.780281
1972.990479	104.616478
1972.201782	117.277725
1971.412964	107.750771
1970.623901	91.889763
1969.834839	82.370201
1969.045532	91.859146
1968.256226	126.681168
1967.466675	101.328049
1966.677002	123.472984
1965.887207	101.294281
1965.097290	123.431831
1964.307251	113.918091
1963.517090	88.588188
1962.726807	101.226776
1961.936401	110.698326
1961.145874	91.706184
1960.355103	123.308441
1959.564331	104.320518
1958.773315	94.821022
1957.982178	139.047653
1957.191040	120.066582
1956.399658	123.205681
1955.608154	129.502319
1954.816528	107.374260
1954.024780	107.356346
1953.232910	126.280518
1952.440918	101.007561
1951.648682	116.770515
1950.856445	97.818436
1950.063965	123.041367
1949.271484	119.866455
1948.478760	100.923332
1947.685913	94.599838
1946.893066	97.736847
1946.099976	119.786469
1945.306763	119.766472
1944.513428	116.595261
1943.719971	129.178589
1942.926270	103.955650
1942.132568	148.033340
1941.338745	138.561264
1940.544678	88.160622
1939.750610	129.070786
1938.956299	129.049240
1938.161865	132.174698
1937.367310	163.617538
1936.572632	179.320038
1935.777832	78.636002
1934.982910	113.216934
1934.187866	144.641907
1933.392700	128.898422
1932.597290	157.166946
1931.801880	138.283798
1931.006226	125.691544
1930.210571	128.812302
1929.414673	106.802109
1928.618652	147.613541
1927.822510	141.308487
1927.026245	131.865875
1926.229858	113.009003
1925.433350	166.346558
1924.636719	153.766388
1923.839844	112.952339
1923.042969	169.400177
1922.245850	156.825790
1921.448730	137.983627
1920.651367	131.689606
1919.853882	115.992874
1919.056274	109.704643
1918.258545	144.159119
1917.460693	172.335342
1916.662720	169.173676
1915.864624	144.086792
1915.066284	147.194489
1914.267944	115.857124
1913.469360	122.099236
1912.670776	115.818359
1911.871948	153.355392
1911.072998	143.942200
1910.273926	134.532150
1909.474731	137.637756
1908.675415	128.231903
1907.875977	140.718765
1907.076294	150.074890
1906.276611	162.553925
1905.476807	146.899139
1904.676758	153.124527
1903.876587	171.845688
1903.076294	165.569016
1902.275879	137.430511
1901.475342	174.882263
1900.674683	128.017349
1899.873901	156.092575
1899.072998	181.037064
1898.271851	152.919479
1897.470703	180.976410
1896.669312	134.149689
1895.867920	168.438828
1895.066284	146.579590
1894.264526	162.145996
1893.462646	162.118820
1892.660645	152.740204
1891.858521	149.597992
1891.056152	143.340698
1890.253784	168.241318
1889.451172	183.788406
1888.648560	168.184921
1887.845703	155.700668
1887.042725	171.242020
1886.239624	161.874390
1885.436401	168.072144
1884.633057	149.372406
1883.829590	152.458755
1883.025879	143.100555
1882.222168	139.966187
1881.418213	155.491898
1880.614258	127.481972
1879.810059	180.310089
1879.005737	167.846756
1878.201294	146.064331
1877.396729	167.790436
1876.592041	180.189102
1875.787231	152.203186
1874.982178	149.071976
1874.177124	170.782974
1873.371826	142.812698
1872.566406	158.309235
1871.760986	176.904144
1870.955322	148.946899
1870.149536	170.639679
1869.343506	167.509003
1868.537476	186.089874
1867.731323	173.654709
1866.924927	136.420074
1866.118530	167.396530
1865.311890	151.871338
1864.505127	173.538086
1863.698242	164.213821
1862.891235	192.066910
1862.084106	176.547974
1861.276855	179.615128
1860.469482	151.718323
1859.661865	170.267471
1858.854126	173.334106
1858.046387	157.831314
1857.238403	185.652695
1856.430298	188.715195
1855.622070	210.335678
1854.813721	160.817886
1854.005249	173.159378
1853.196533	163.855438
1852.387817	154.554611
1851.578857	197.796646
1850.769775	210.123596
1849.960693	219.356873
1849.151367	176.073792
1848.341919	200.752136
1847.532227	209.982300
1846.722534	194.509705
1845.912720	200.650848
1845.102661	169.752930
1844.292603	178.982071
1843.482300	191.293472
1842.671875	154.242981
1841.861328	151.132675
1841.050659	160.358719
1840.239868	166.498337
1839.428833	178.801453
1838.617798	166.442291
1837.806519	228.049210
1836.995117	194.117325
1836.183716	175.600388
1835.372070	184.811401
1834.560303	200.178650
1833.748291	175.511719
1832.936279	147.774460
1832.124146	169.296387
1831.311768	218.509445
1830.499390	187.701843
1829.686768	181.517120
1828.874023	206.094879
1828.061157	206.060165
1827.248169	202.950455
1826.434937	190.618301
1825.621704	178.290314
1824.808228	187.480637
1823.994751	199.740784
1823.181030	215.069214
1822.367188	224.248672
1821.553223	193.497055
1820.739136	190.393585
1819.924927	187.291153
1819.110474	168.840607
1818.296021	156.534897
1817.481323	190.265244
1816.666626	177.960068
1815.851685	184.065582
1815.036621	230.043182
1814.221436	220.804214
1813.406006	202.369736
1812.590576	183.941452
1811.774902	199.236298
1810.959229	229.849274
1810.143311	242.067062
1809.327271	189.944626
1808.511108	220.543655
1807.694824	205.193497
1806.878418	214.345093
1806.061768	202.062714
1805.245117	211.211731
1804.428223	220.357651
1803.611206	186.660400
1802.794067	201.926346
1801.976807	198.833298
1801.159424	217.150467
1800.341919	217.113815
1799.524170	241.536560
1798.706421	223.154343
1797.888428	235.342224
1797.070313	207.799606
1796.252075	192.487717
1795.433716	262.716644
1794.615234	226.020325
1793.796509	207.659271
1792.977783	213.730789
1792.158813	216.747482
1791.339844	225.867661
1790.520630	219.725998
1789.701294	204.432709
1788.881714	231.854645
1788.062134	210.464035
1787.242432	216.527847
1786.422485	204.294571
1785.602417	210.357361
1784.782349	201.177383
1783.962036	228.572021
1783.141479	243.768951
1782.320923	210.215179
1781.500244	228.456131
1780.679321	249.736481
1779.858398	173.567963
1779.037231	231.384811
1778.215942	210.037537
1777.394531	191.740967
1776.572998	213.009491
1775.751221	249.483200
1774.929443	237.273148
1774.107422	231.150116
1773.285278	221.988220
1772.463013	209.788986
1771.640625	218.873199
1770.818115	215.796783
1769.995483	221.838028
1769.172607	240.030655
1768.349731	233.914352
1767.526611	218.688080
1766.703369	230.798355
1765.880005	245.940826
1765.056519	200.362305
1764.232910	261.033966
1763.409058	242.781189
1762.585083	218.466080
1761.761108	185.057968
1760.936890	245.691116
1760.112549	221.387833
1759.288086	224.382538
1758.463379	245.566315
1757.638672	248.555893
1756.813721	203.053955
1755.988647	251.501846
1755.163574	257.518494
1754.338257	239.300171
1753.512695	221.088013
1752.687134	178.657303
1751.861328	251.288864
1751.035522	263.354553
1750.209473	211.858551
1749.383301	214.848679
1748.557007	269.271729
1747.730591	208.725830
1746.903931	232.886459
1746.077271	238.894943
1745.250366	263.042236
1744.423340	232.768036
1743.596313	235.751007
1742.768921	214.557480
1741.941528	253.799606
1741.114014	265.840210
1740.286255	280.897125
1739.458374	271.789825
1738.630493	247.588730
1737.802368	208.301514
1736.973999	259.578156
1736.145630	235.391403
1735.317139	250.438095
1734.488403	250.395599
1733.659546	286.548737
1732.830566	229.200089
1732.001465	235.191757
1731.172241	271.329041
1730.342896	268.268738
1729.513306	271.236938
1728.683594	232.018890
1727.853882	259.093994
1727.023926	259.050018
1726.193726	231.900742
1725.363525	292.085083
1724.533203	237.843353
1723.702637	228.772461
1722.871948	231.743271
1722.041138	270.822754
1721.210205	234.673187
1720.379150	249.673920
1719.547974	276.699982
1718.716553	267.631683
1717.885010	249.546707
1717.053467	258.522522
1716.221558	255.473038
1715.389648	273.459961
1714.557617	255.386230
1713.725342	222.298462
1712.893066	252.295898
1712.060547	237.237961
1711.227905	258.215149
1710.395142	261.173248
1709.562256	246.121445
1708.729126	309.099976
1707.895874	249.038223
1707.062622	293.995148
1706.229126	278.947937
1705.395508	287.897308
1704.561646	290.846741
1703.727783	287.799377
1702.893677	242.789429
1702.059570	284.704590
1701.225220	257.688721
1700.390747	245.661407
1699.556030	284.559326
1698.721313	293.495453
1697.886353	245.536041
1697.051392	284.414093
1696.216187	248.445801
1695.380859	293.295715
1694.545410	245.368942
1693.709717	212.417435
1692.874023	269.215698
1692.038086	296.086853
1691.202026	248.192184
1690.365845	275.057739
1689.529541	269.032410
1688.692993	263.009125
1687.856445	265.952576
1687.019653	271.882721
1686.182739	295.734131
1685.345703	253.869904
1684.508545	307.578186
1683.671143	289.611664
1682.833740	280.606781
1681.996094	298.467010
1681.158325	244.701248
1680.320435	262.561462
1679.482422	307.263916
1678.644287	295.281006
1677.805908	304.177063
1676.967407	286.235504
1676.128784	324.941162
1675.290039	253.351303
1674.451172	262.248383
1673.612183	274.122040
1672.772949	277.054382
1671.933594	294.878571
1671.094116	256.113464
1670.254517	279.890259
1669.414795	261.980225
1668.574829	247.052856
1667.734863	267.842957
1666.894653	300.528046
1666.054321	294.526733
1665.213867	282.578461
1664.373169	261.712219
1663.532471	276.535065
1662.691528	240.812027
1661.850464	249.688370
1661.009277	303.141296
1660.167969	273.374908
1659.326538	273.328247
1658.484863	267.340698
1657.643066	285.114716
1656.801147	305.852112
1655.959106	282.048462
1655.116943	279.031891
1654.274658	276.016327
1653.432129	299.708496
1652.589478	296.690399
1651.746704	275.874969
1650.903809	311.418549
1650.060791	305.434601
1649.217529	302.417542
1648.374146	299.401520
1647.530640	251.928528
1646.687012	314.116028
1645.843262	302.210968
1644.999390	311.046356
1644.155273	308.031372
1643.311035	343.514740
1642.466675	296.082794
1641.622192	290.111542
1640.777588	281.182526
1639.932739	278.175140
1639.087769	281.086395
1638.242798	310.621338
1637.397461	278.032532
1636.552124	280.942291
1635.706665	298.634918
1634.860962	280.846222
1634.015137	313.311676
1633.169189	245.286987
1632.323120	313.204498
1631.476929	342.693481
1630.630493	310.143646
1629.783936	324.856812
1628.937256	286.415619
1628.090454	315.888977
1627.243530	289.269379
1626.396484	295.122314
1625.549194	303.923981
1624.701782	277.320038
1623.854248	294.970825
1623.006592	265.428314
1622.158691	280.126373
1621.310791	280.078430
1620.462646	312.455078
1619.614380	259.352264
1618.765991	288.774658
1617.917358	265.155823
1617.068726	265.110413
1616.219849	259.174683
1615.370850	294.466248
1614.521729	285.583344
1613.672363	294.365417
1612.822998	276.656097
1611.973389	308.977814
1611.123657	303.040588
1610.273804	300.047028
1609.423828	314.701294
1608.573608	311.706757
1607.723389	341.054596
1606.872925	291.022583
1606.022339	296.850952
1605.171509	323.247620
1604.320679	317.315979
1603.469604	314.323975
1602.618408	279.024872
1601.767090	264.294037
1600.915649	317.098450
1600.064087	270.074615
1599.212280	293.509003
1598.360352	316.935394
1597.508301	293.408356
1596.656128	313.893097
1595.803833	307.973114
1594.951294	331.380890
1594.098633	296.139191
1593.245850	290.225250
1592.392944	307.761871
1591.539795	304.778503
1590.686646	316.446442
1589.833252	328.110382
1588.979736	289.976379
1588.126099	307.497925
1587.272217	284.020752
1586.418335	292.754669
1585.564209	319.047791
1584.709961	310.213409
1583.855591	301.382050
1583.000977	330.585663
1582.146362	327.603882
1581.291504	289.528717
1580.436523	333.339447
1579.581421	292.352814
1578.726074	330.301941
1577.870605	312.710083
1577.015137	309.734344
1576.159424	283.387482
1575.303467	344.680176
1574.447510	309.574768
1573.591309	315.361603
1572.734985	277.353760
1571.878540	321.091278
1571.021973	318.117584
1570.165161	309.308899
1569.308350	335.513306
1568.451294	303.368591
1567.594116	320.815460
1566.736694	306.180298
1565.879272	306.127686
1565.021606	288.585052
1564.163818	314.765930
1563.305908	329.281799
1562.447876	326.311676
1561.589600	340.820557
1560.731201	320.374481
1559.872681	308.671387
1559.014038	372.671173
1558.155273	296.921265
1557.296265	325.975098
1556.437134	267.719208
1555.577881	331.681915
1554.718506	328.715881
1553.859009	282.123474
1552.999268	284.982941
1552.139404	331.453705
1551.279419	319.768707
1550.419312	340.059082
1549.558960	322.564636
1548.698608	316.698151
1547.838013	316.643616
1546.977173	316.589111
1546.116333	325.246582
1545.255249	307.769653
1544.394165	304.813660
1543.532837	313.468628
1542.671265	330.826569
1541.809692	319.163666
1540.947876	319.108673
1540.085938	307.451782
1539.223877	339.298676
1538.361694	330.541779
1537.499268	321.787842
1536.636841	359.412781
1535.774170	260.819183
1534.911377	318.724060
1534.048340	318.669128
1533.185303	324.407196
1532.322021	347.519257
1531.458618	335.877380
1530.594971	324.239502
1529.731323	341.550568
1528.867432	312.551727
1528.003418	318.284821
1527.139282	300.871948
1526.275024	321.067596
1525.410522	297.876221
1524.545898	297.824829
1523.681152	349.811554
1522.816284	326.627167
1521.951172	346.800903
1521.086060	306.287933
1520.220703	309.124115
1519.355225	343.732941
1518.489502	332.121582
1517.623779	349.389374
1516.757813	349.329071
1515.891724	331.949677
1515.025513	331.892395
1514.159058	337.606171
1513.292480	357.743073
1512.425781	349.027740
1511.558960	337.431366
1510.692017	371.975494
1509.824829	308.484528
1508.957520	360.316925
1508.090088	328.552277
1507.222534	331.377075
1506.354736	316.914642
1505.486938	319.740479
1504.618896	354.245819
1503.750610	305.232269
1502.882324	282.147125
1502.013794	310.883942
1501.145142	316.586334
1500.276367	356.817505
1499.407471	327.985199
1498.538330	339.434814
1497.669067	330.747925
1496.799683	327.815216
1495.930176	342.133911
1495.060547	379.444305
1494.190674	339.141571
1493.320679	339.082947
1492.450562	350.516693
1491.580200	379.182007
1490.709717	361.883881
1489.839233	370.436096
1488.968384	350.274323
1488.097534	347.343140
1487.226440	335.802643
1486.355347	364.440674
1485.483887	327.079132
1484.612427	344.234283
1483.740845	335.570374
1482.869019	361.320953
1481.997070	378.461212
1481.124878	409.928711
1480.252686	343.936584
1479.380249	412.652496
1478.507690	392.525055
1477.635010	444.020813
1476.762207	443.943970
1475.889160	383.730286
1475.015991	440.927124
1474.142700	420.812134
1473.269165	397.841888
1472.395630	503.655029
1471.521851	480.678375
1470.647949	566.415710
1469.773804	540.575928
1468.899658	626.273132
1468.025269	620.446228
1467.150757	734.686951
1466.276001	794.582031
1465.401245	814.448425
1464.526245	894.309448
1463.651123	996.996521
1462.775879	1116.785400
1461.900391	1176.562256
1461.024780	1290.567871
1460.149048	1373.131836
1459.273193	1538.440308
1458.397217	1618.078735
1457.520996	1492.254883
1456.644653	1446.351929
1455.768188	1448.953491
1454.891479	1286.151001
1454.014648	1268.820313
1453.137695	1191.629028
1452.260620	1157.218872
1451.383423	1105.721802
1450.505981	1037.146729
1449.628418	1014.176392
1448.750732	897.219543
1447.872803	911.302979
1446.994873	814.335754
1446.116699	760.104614
1445.238403	731.509338
1444.359863	739.919983
1443.481201	725.564819
1442.602417	756.732361
1441.723511	682.647522
1440.844482	719.499329
1439.965210	719.374451
1439.085815	727.778259
1438.206299	758.918213
1437.326538	716.158020
1436.446777	806.958557
1435.566772	883.523010
1434.686646	954.380005
1433.806274	897.415833
1432.925781	857.507935
1432.045166	817.613892
1431.164429	669.872803
1430.283569	581.779968
1429.402466	587.353821
1428.521240	485.121033
1427.639893	476.527313
1426.758301	402.709045
1425.876709	442.335907
1424.994873	394.064148
1424.112793	413.837158
1423.230713	351.417053
1422.348389	379.691132
1421.465942	419.287445
1420.583374	410.716980
1419.700562	362.500916
1418.817627	345.448639
1417.934570	396.347534
1417.051392	424.584229
1416.167969	365.078949
1415.284546	336.719696
1414.400757	353.635620
1413.516968	319.631012
1412.633057	370.481232
1411.748901	407.175690
1410.864624	347.735413
1409.980103	373.114532
1409.095459	381.528015
1408.210815	361.682159
1407.325806	339.018005
1406.440796	336.134369
1405.555542	355.845032
1404.670166	352.959412
1403.784668	341.605255
1402.899048	330.255005
1402.013184	369.708344
1401.127197	330.140045
1400.241089	349.831085
1399.354736	377.977448
1398.468262	392.012817
1397.581665	346.828644
1396.694946	355.225983
1395.807983	343.889069
1394.920898	341.010895
1394.033691	346.587067
1393.146362	340.892120
1392.258789	349.283112
1391.371094	349.222260
1390.483276	354.793060
1389.595337	318.131989
1388.707153	346.224915
1387.818848	368.679352
1386.930420	410.822937
1386.041748	385.431030
1385.152954	430.369843
1384.264038	359.985229
1383.375000	393.665192
1382.485718	404.842163
1381.596313	427.258911
1380.706787	393.459320
1379.817139	415.870178
1378.927246	469.177094
1378.037231	412.916199
1377.147095	463.396515
1376.256714	494.203400
1375.366333	474.464813
1374.475586	522.100952
1373.584839	468.686279
1372.693970	471.410522
1371.802856	541.466370
1370.911499	510.516510
1370.020142	521.645630
1369.128540	552.399170
1368.236816	524.267090
1367.344971	493.341736
1366.453003	535.294434
1365.560791	487.565338
1364.668457	537.909180
1363.775879	599.439941
1362.883301	565.727722
1361.990479	613.231323
1361.097534	643.920471
1360.204346	713.787109
1359.311035	741.649231
1358.417603	727.528748
1357.524048	665.852295
1356.630249	713.288574
1355.736450	643.245911
1354.842285	615.171204
1353.948120	603.880737
1353.053711	573.027405
1352.159180	539.390076
1351.264526	502.970184
1350.369751	458.181641
1349.474731	505.587677
1348.579590	471.985565
1347.684204	443.979797
1346.788818	480.196075
1345.893188	491.277496
1344.997314	499.564209
1344.101440	485.524963
1343.205322	513.338928
1342.309082	490.933990
1341.412720	502.003754
1340.516113	546.530701
1339.619385	504.616089
1338.722534	515.677612
1337.825439	610.343994
1336.928223	601.877808
1336.030884	610.130493
1335.133423	707.516052
1334.235718	696.252258
1333.337891	835.356506
1332.439941	943.787598
1331.541870	1066.098511
1330.643555	1193.932617
1329.745117	1246.592529
1328.846436	1338.183105
1327.947754	1335.167236
1327.048828	1226.470215
1326.149780	1142.836670
1325.250488	978.608459
1324.351074	953.420227
1323.451538	786.503418
1322.551880	714.120056
1321.651978	677.878479
1320.751953	622.205688
1319.851807	572.106750
1318.951416	541.462524
1318.050903	566.353821
1317.150269	521.842468
1316.249512	455.144531
1315.348511	505.010895
1314.447388	507.696686
1313.546021	471.548157
1312.644653	493.652100
1311.743042	421.471741
1310.841309	415.853149
1309.939331	460.130127
1309.037231	473.906372
1308.135010	454.427002
1307.232666	482.051422
1306.330078	481.966888
1305.427368	559.426636
1304.524536	509.487396
1303.621460	509.398010
1302.718262	509.308685
1301.814941	525.824280
1300.911499	426.119659
1300.007813	506.274139
1299.104004	478.524933
1298.199951	506.096497
1297.295898	439.646027
1296.391602	497.625153
1295.487061	478.189117
1294.582520	508.504944
1293.677734	519.468201
1292.772827	466.886780
1291.867676	469.566986
1290.962402	455.676178
1290.057007	405.894745
1289.151489	405.823486
1288.245728	367.109161
1287.339844	353.246002
1286.433838	339.387726
1285.527588	366.915771
1284.621216	355.818207
1283.714722	341.966705
1282.808105	333.634705
1281.901245	344.603394
1280.994263	363.837250
1280.087036	344.482330
1279.179810	319.623413
1278.272217	360.890594
1277.364624	289.212616
1276.456787	305.685333
1275.548828	297.371277
1274.640747	302.824921
1273.732544	322.038971
1272.824097	343.998230
1271.915405	308.168213
1271.006714	288.856903
1270.097778	308.059875
1269.188721	255.754730
1268.279541	296.953247
1267.370117	266.661102
1266.460571	280.357208
1265.550781	272.063538
1264.640991	313.230164
1263.730957	285.703583
1262.820679	296.639954
1261.910400	252.648849
1260.999878	285.552795
1260.089233	323.935577
1259.178345	277.218079
1258.267334	290.890533
1257.356201	271.632965
1256.444824	342.910553
1255.533447	370.278198
1254.621704	348.274475
1253.709961	337.245819
1252.797974	309.772888
1251.885864	359.054016
1250.973633	317.884979
1250.061157	328.788605
1249.148560	254.766296
1248.235840	293.066589
1247.322876	306.707245
1246.409790	265.583588
1245.496582	290.174225
1244.583130	279.175079
1243.669556	243.551010
1242.755859	248.980194
1241.841919	295.440887
1240.927856	298.123901
1240.013672	292.602173
1239.099365	295.284729
1238.184814	289.765381
1237.270142	300.646942
1236.355225	275.999878
1235.440186	234.968369
1234.525024	254.048889
1233.609741	275.853912
1232.694214	253.959305
1231.778564	311.250061
1230.862671	275.707977
1229.946777	294.764465
1229.030640	289.254822
1228.114258	311.030518
1227.197876	319.159210
1226.281128	340.921906
1225.364380	335.407959
1224.447388	378.971375
1223.530273	395.260101
1222.613037	474.228394
1221.695557	495.944458
1220.777954	487.683472
1219.860229	501.217407
1218.942261	520.193604
1218.024170	563.670532
1217.105957	544.513062
1216.187500	538.972717
1215.268921	462.672668
1214.350220	476.196564
1213.431274	438.023468
1212.512207	424.345306
1211.593018	364.437347
1210.673706	339.900177
1209.754150	309.934204
1208.834351	347.934814
1207.914551	320.695740
1206.994507	339.660034
1206.074219	345.033630
1205.153931	315.093140
1204.233398	285.163208
1203.312744	285.112793
1202.391846	293.207062
1201.470825	257.868011
1200.549683	282.247711
1199.628296	244.209656
1198.706787	257.731293
1197.785156	265.823151
1196.863281	254.928146
1195.941284	284.709808
1195.019165	292.792572
1194.096802	276.477417
1193.174438	289.978943
1192.251709	265.541199
1191.328979	270.912476
1190.406006	243.778091
1189.482788	235.610474
1188.559570	287.014832
1187.636108	240.941513
1186.712402	235.485413
1185.788696	276.037506
1184.864746	246.225159
1183.940552	257.002747
1183.016357	265.071686
1182.091919	275.842102
1181.167236	283.904846
1180.242554	251.414047
1179.317505	281.101410
1178.392456	302.670990
1177.467163	318.829041
1176.541748	307.966736
1175.616211	313.314148
1174.690430	383.471802
1173.764526	364.503693
1172.838501	386.035522
1171.912231	442.647614
1170.985840	464.157928
1170.059204	496.453064
1169.132446	588.084717
1168.205566	650.015137
1167.278564	622.933167
1166.351318	660.569580
1165.423828	655.061035
1164.496338	614.516235
1163.568604	609.017761
1162.640747	606.215515
1161.712646	576.476074
1160.784424	592.533875
1159.856079	638.207397
1158.927490	608.478027
1157.998779	592.218689
1157.069946	640.559326
1156.140869	688.882813
1155.211670	747.950928
1154.282349	820.448120
1153.352783	938.641296
1152.423096	994.944580
1151.493164	992.079468
1150.563232	1048.353271
1149.632935	999.790222
1148.702637	873.317627
1147.772095	800.622986
1146.841431	703.778503
1145.910522	585.482727
1144.979492	553.156128
1144.048340	493.993469
1143.116943	467.063049
1142.185425	442.825989
1141.253784	378.347717
1140.321899	343.403625
1139.389893	335.295532
1138.457764	340.599762
1137.525391	316.406555
1136.592896	351.202515
1135.660278	286.809113
1134.727417	286.758148
1133.794434	273.309662
1132.861206	262.544983
1131.927856	254.462677
1130.994385	294.588623
1130.060669	267.760254
1129.126831	251.649902
1128.192871	299.784882
1127.258667	272.969849
1126.324341	246.164322
1125.389893	283.573700
1124.455200	243.402054
1123.520386	216.616058
1122.585327	264.705872
1121.650146	259.312164
1120.714844	229.864731
1119.779297	229.823853
1118.843628	251.158127
1117.907837	261.799133
1116.971802	259.081604
1116.035645	259.035522
1115.099365	245.639465
1114.162842	242.926239
1113.226196	210.854477
1112.289307	218.822662
1111.352417	218.783722
1110.415161	261.426697
1109.477905	253.378723
1108.540405	272.000305
1107.602661	263.953308
1106.664917	279.900635
1105.726807	295.842255
1104.788696	295.789581
1103.850342	290.408325
1102.911865	322.322479
1101.973145	330.255096
1101.034302	332.859161
1100.095337	284.876678
1099.156128	266.192474
1098.216797	298.082458
1097.277344	276.741547
1096.337646	266.050201
1095.397827	258.022736
1094.457764	244.678970
1093.517700	260.589844
1092.577271	249.908981
1091.636841	236.573776
1090.696167	244.504578
1089.755249	255.089737
1088.814209	233.790573
1087.873047	231.092651
1086.931763	252.297562
1085.990234	228.354965
1085.048584	252.207581
1084.106689	252.162613
1083.164673	241.502151
1082.222412	209.618317
1081.280151	220.192627
1080.337524	217.500900
1079.394897	283.761505
1078.452026	273.104858
1077.509033	249.196869
1076.565796	246.501846
1075.622437	214.656845
1074.678955	219.917755
1073.735229	206.632813
1072.791382	243.677246
1071.847290	227.744598
1070.903076	232.999374
1069.958740	248.841263
1069.014160	240.856506
1068.069458	261.983917
1067.124512	253.999649
1066.179565	224.855362
1065.234253	256.553833
1064.288940	259.152405
1063.343384	240.598541
1062.397583	280.207581
1061.451660	277.514526
1060.505615	253.682236
1059.559448	272.131256
1058.613037	227.175797
1057.666382	303.727325
1056.719727	274.626038
1055.772827	258.735992
1054.825684	274.527893
1053.878418	269.200378
1052.931030	284.984741
1051.983398	282.295532
1051.035645	290.158478
1050.087769	287.469238
1049.139648	290.054718
1048.191406	316.366730
1047.242920	305.766479
1046.294312	339.972595
1045.345581	397.881256
1044.396606	387.272064
1043.447510	447.785553
1042.498291	416.102692
1041.548828	431.826782
1040.599121	465.973572
1039.649414	486.947388
1038.699341	486.860229
1037.749268	510.453949
1036.798950	523.516296
1035.848511	512.901489
1034.897827	478.622406
1033.947021	512.717896
1032.996094	467.935638
1032.044922	410.027466
1031.093506	391.558685
1030.142090	378.351379
1029.190430	359.894836
1028.238525	341.444885
1027.286499	286.237122
1026.334351	299.313629
1025.381958	259.883698
1024.429443	270.335632
1023.476807	280.783783
1022.523926	259.744049
1021.570923	280.683167
1020.617737	254.405502
1019.664368	241.248581
1018.710815	275.288696
1017.757080	283.103333
1016.803223	267.327454
1015.849121	256.797974
1014.894897	288.190948
1013.940491	288.139282
1012.985962	267.135803
1012.031189	290.654480
1011.076294	298.456482
1010.121216	277.462402
1009.165955	272.178436
1008.210510	274.746246
1007.254944	303.474731
1006.299133	332.192932
1005.343201	324.287659
1004.387085	318.999969
1003.430786	358.157013
1002.474365	363.320374
1001.517700	425.975494
1000.560913	472.930817
999.603943	598.241577
998.646790	595.522217
997.689514	707.708557
996.731995	663.194519
995.774353	618.696411
994.816528	501.132385
993.858521	441.021698
992.900330	430.506012
991.942017	393.907471
990.983459	326.023773
990.024780	305.103455
989.065918	273.761597
988.106873	268.498871
987.147705	286.694855
986.188293	265.796539
985.228760	255.327271
984.269043	265.701050
983.309143	247.422195
982.349060	283.833405
981.388794	278.575348
980.428406	270.716187
979.467834	320.116394
978.507019	338.273560
977.546082	387.643860
976.585022	447.401031
975.623718	483.730408
974.662292	621.455811
973.700623	688.937988
972.738831	694.012695
971.776855	712.079651
970.814758	600.221985
969.852417	574.135010
968.889954	436.368042
967.927246	436.289520
966.964417	340.140747
966.001404	353.059662
965.038208	352.996155
964.074890	303.625854
963.111328	280.219574
962.147644	287.951630
961.183777	274.931335
960.219727	248.949600
959.255493	246.312027
958.291077	261.821411
957.326538	243.631516
956.361755	282.458008
955.396851	259.089142
954.431763	248.680771
953.466492	248.635986
952.501038	266.717651
951.535461	274.436676
950.569641	232.970306
949.603699	245.868790
948.637573	289.814148
947.671265	282.000458
946.704773	289.709717
945.738098	315.519775
944.771240	323.220215
943.804260	305.064880
942.837097	356.706482
941.869751	369.563995
940.902222	353.993988
939.934509	387.514801
938.966614	395.193817
937.998535	379.627563
937.030334	338.246552
936.061951	345.930267
935.093323	289.083618
934.124573	239.999344
933.155640	314.781067
932.186584	250.231598
931.217285	214.077072
930.247864	260.456421
929.278198	229.469696
928.308411	265.518127
927.338440	229.386887
926.368286	216.460922
925.397949	226.727646
924.427429	213.806793
923.456787	226.645813
922.485901	260.080627
921.514893	239.436935
920.543701	247.116089
919.572327	257.366119
918.600769	229.014481
917.629028	226.400391
916.657104	228.931778
915.685059	262.323853
914.712769	210.849716
913.740356	221.095123
912.767761	246.759277
911.794983	236.434921
910.822021	241.531158
909.848877	220.935394
908.875549	254.286636
907.902039	259.376862
906.928406	287.573853
905.954590	259.283112
904.980530	274.636414
904.006348	300.249084
903.031982	323.286713
902.057434	333.489502
901.082703	356.512756
900.107849	423.122070
899.132751	397.406433
898.157532	353.755920
897.182068	358.817932
896.206482	343.377899
895.230713	335.629608
894.254761	274.090637
893.278625	274.041046
892.302307	268.870117
891.325806	291.863312
890.349182	289.250763
889.372314	263.605621
888.395325	266.116730
887.418091	214.901550
886.440735	219.978424
885.463196	237.840576
884.485474	263.367157
883.507568	245.423965
882.529480	250.491608
881.551270	258.112976
880.572815	235.070236
879.594238	237.582306
878.615417	265.635315
877.636475	240.049988
876.657349	278.305420
875.677979	255.279816
874.698486	247.576553
873.718811	290.913544
872.739014	288.309418
871.758972	290.808136
870.778748	303.507874
869.798401	285.602692
868.817810	283.001373
867.837097	277.851868
866.856140	280.350159
865.875061	262.462097
864.893799	287.891632
863.912354	298.028442
862.930725	356.550598
861.948914	320.837341
860.966919	297.866364
859.984741	302.903137
859.002441	353.747070
858.019897	333.327057
857.037231	307.826385
856.054321	371.359497
855.071289	345.861145
854.088074	330.542572
853.104614	429.627380
852.121033	399.048889
851.137268	454.883972
850.153320	464.964600
849.169189	469.960846
848.184937	500.353943
847.200439	545.972473
846.215759	609.346985
845.230896	759.006958
844.245911	941.606812
843.260681	1159.666260
842.275330	1354.812500
841.289795	1590.474121
840.304016	1600.329956
839.318115	1255.181396
838.332031	1044.526855
837.345764	907.457947
836.359314	770.438843
835.372681	691.748596
834.385864	646.021423
833.398865	635.772217
832.411743	607.799194
831.424377	574.772217
830.436829	546.820435
829.449158	594.812256
828.461243	513.723145
827.473206	483.267395
826.484924	508.476868
825.496521	450.211090
824.507935	427.369873
823.519104	404.536957
822.530151	460.077087
821.541016	434.719055
820.551697	429.586029
819.562195	442.140442
818.572510	462.268494
817.582642	454.607574
816.592590	510.077911
815.602356	555.429321
814.611938	631.054810
813.621399	663.748840
812.630615	802.409546
811.639648	1001.567993
810.648560	1182.997192
809.657227	1450.105591
808.665771	1528.006958
807.674072	1517.644775
806.682251	1290.519287
805.690186	1141.599243
804.697998	942.340759
803.705566	768.346497
802.713013	629.677490
801.720276	589.270752
800.727356	443.131470
799.734253	432.981415
798.740906	473.172516
797.747437	402.626648
796.753784	395.005402
795.759949	369.778442
794.765930	347.075684
793.771729	374.672821
792.777344	331.864410
791.782776	351.913239
790.788025	296.558533
789.793091	253.787720
788.798035	314.036438
787.802734	349.144836
786.807251	313.921936
785.811584	286.244598
784.815796	256.066864
783.819763	258.530151
782.823547	268.521179
781.827148	283.526703
780.830627	255.880081
779.833862	265.866089
778.836975	263.309845
777.839844	243.203766
776.842529	260.706970
775.845093	270.684753
774.847412	260.611816
773.849609	258.058807
772.851563	275.546478
771.853394	247.946564
770.854980	247.901306
769.856445	272.891998
768.857666	282.854736
767.858765	262.781616
766.859680	257.729187
765.860352	245.173279
764.860901	265.138977
763.861206	277.594818
762.861389	255.040527
761.861389	259.993835
760.861145	279.942200
759.860779	259.898834
758.860168	252.355621
757.859436	212.339676
756.858521	224.789154
755.857361	234.736877
754.856079	224.707001
753.854614	224.665924
752.852905	247.087326
751.851074	254.528290
750.848999	246.996994
749.846802	239.468445
748.844421	276.834747
747.841797	239.380859
746.839050	236.843979
745.836121	216.859558
744.832947	234.265167
743.829651	224.255402
742.826111	244.144547
741.822449	306.370239
740.818604	229.113052
739.814514	219.111511
738.810303	236.497559
737.805847	258.855194
736.801270	266.273438
735.796448	251.296204
734.791504	258.713074
733.786316	271.101563
732.781006	295.919098
731.775452	241.167191
730.769775	261.009460
729.763855	241.078873
728.757751	228.610260
727.751526	255.897217
726.745056	238.462448
725.738403	245.869354
724.731628	248.307388
723.724609	270.605469
722.717407	258.145081
721.710083	255.616058
720.702515	255.569214
719.694763	250.560776
718.686829	290.200378
717.678711	252.948837
716.670410	265.299652
715.661987	255.335083
714.653320	277.595032
713.644470	257.719543
712.635437	237.851349
711.626221	232.853409
710.616821	245.194244
709.607178	269.911835
708.597412	252.531723
707.587463	250.010056
706.577332	287.087585
705.567017	244.969452
704.556458	239.976547
703.545776	222.617798
702.534912	229.996185
701.523804	242.317093
700.512573	242.272614
699.501099	266.945313
698.489502	276.781372
697.477661	247.080856
696.465698	242.094788
695.453491	251.929947
694.441101	246.944794
693.428589	222.209503
692.415833	261.665344
691.402893	261.617310
690.389771	244.295822
689.376465	263.988403
688.362976	273.806824
687.349304	249.093765
686.335449	268.774567
685.321411	251.467621
684.307190	246.491577
683.292725	278.484314
682.278137	263.649078
681.263367	248.819275
680.248352	283.256989
679.233215	307.831451
678.217834	285.615082
677.202332	280.639069
676.186584	228.900314
675.170654	260.849152
674.154541	246.038864
673.138306	248.453552
672.121826	263.164764
671.105164	243.444107
670.088318	280.278015
669.071289	275.310211
668.054016	270.344208
667.036621	255.551147
666.019043	250.590576
665.001282	255.457108
663.983276	238.219040
662.965149	267.640167
661.946777	284.775635
660.928223	252.814590
659.909546	255.222122
658.890625	255.175140
657.871521	289.472321
656.852234	245.270370
655.832764	277.104492
654.813110	259.890869
653.793274	291.710541
652.773254	269.598724
651.752991	286.702209
650.732605	249.899460
649.711975	264.550690
648.691223	284.094696
647.670227	281.593719
646.649048	257.059937
645.627747	293.728638
644.606201	308.358246
643.584473	293.620392
642.562561	325.369293
641.540466	325.309326
640.518127	315.467407
639.495667	300.739075
638.473022	286.016113
637.450134	273.742737
636.427063	288.354340
635.403870	315.176697
634.380432	302.904663
633.356812	339.483734
632.333008	290.583557
631.309021	285.647095
630.284851	283.153412
629.260498	307.506470
628.235901	305.009644
627.211182	307.393005
626.186218	278.066162
625.161133	307.279541
624.135803	324.290771
623.110291	292.539185
622.084595	311.984192
621.058716	307.052734
620.032654	324.051392
619.006409	306.939392
617.979919	321.496155
616.953308	301.955780
615.926453	304.334686
614.899414	318.883850
613.872253	355.331635
612.844849	369.865967
611.817261	345.468872
610.789490	325.945618
609.761475	338.045288
608.733337	308.804443
607.705017	286.867645
606.676453	298.967804
605.647705	323.214386
604.618774	330.443848
603.589722	344.958496
602.560425	303.604492
601.530884	327.832245
600.501221	342.339264
599.471375	296.153687
598.441284	305.807068
597.411011	383.401459
596.380615	308.120117
595.349976	322.617310
594.319153	310.431396
593.288147	320.073181
592.256897	324.862640
591.225525	329.650360
590.193970	317.472107
589.162170	365.873413
588.130188	373.073364
587.098022	336.672729
586.065674	280.912292
585.033142	314.757233
584.000427	314.698975
582.967468	319.481354
581.934387	343.620850
580.901062	343.557251
579.867554	304.790131
578.833862	336.174469
577.799988	333.694122
576.765930	348.138092
575.731628	343.239227
574.697205	333.508759
573.662537	323.781830
572.627747	374.454376
571.592712	318.831085
570.557434	345.336365
569.522034	350.101349
568.486450	337.966248
567.450623	321.008423
566.414673	313.709503
565.378479	313.651337
564.342102	337.715759
563.305542	381.065704
562.268799	366.526886
561.231812	349.582520
560.194702	414.600311
559.157349	347.042877
558.119812	375.893372
557.082092	426.415314
556.044189	356.484528
555.006042	373.276031
553.967773	329.866638
552.929260	332.212769
551.890625	392.323425
550.851746	377.811951
549.812683	365.711853
548.773376	348.805115
547.733948	377.601654
546.694275	394.364197
545.654419	418.333130
544.614441	372.583893
543.574158	377.321350
542.533752	391.668549
541.493164	413.217682
540.452332	425.150848
539.411316	429.874969
538.370178	396.179871
537.328735	448.920471
536.287170	444.036682
535.245422	496.748749
534.203430	491.857849
533.161255	446.188110
532.118896	496.471893
531.076355	520.359375
530.033630	493.889893
528.990723	544.136719
527.947571	498.499573
526.904236	527.161133
525.860718	524.667419
524.817017	524.569885
523.773132	495.734131
522.729004	510.008392
521.684692	495.549805
520.640198	488.277100
519.595520	490.579346
518.550659	440.242981
517.505615	432.984558
516.460327	463.996582
515.414856	437.606049
514.369202	456.651398
513.323364	444.614441
512.277283	411.072327
511.231079	456.396545
510.184631	420.475616
509.138000	415.620087
508.091187	372.555573
507.044159	393.975800
505.996948	379.578735
504.949554	396.215973
503.901947	417.619781
502.854126	362.665070
501.806152	345.898956
500.757965	403.076111
499.709564	379.154816
