#Wave		#Intensity
3200.600830	46.308376
3200.007080	29.468966
3199.413086	16.836864
3198.819092	0.000000
3198.224854	21.039719
3197.630615	37.865768
3197.036377	-4.206672
3196.442139	33.648285
3195.847656	4.205400
3195.252930	16.819057
3194.658447	33.633026
3194.063721	29.424450
3193.468750	21.014286
3192.873779	4.202222
3192.278809	25.209517
3191.683838	46.210461
3191.088623	16.801262
3190.493164	16.798721
3189.897949	37.791405
3189.302490	29.388870
3188.706787	33.582199
3188.111328	37.774258
3187.515381	37.768547
3186.919678	16.783482
3186.323730	25.171412
3185.727783	12.583802
3185.131592	16.775864
3184.535400	0.000000
3183.939209	25.156181
3183.342773	25.152374
3182.746338	16.765713
3182.149902	20.953968
3181.553223	12.570478
3180.956543	25.137152
3180.359619	12.566673
3179.762695	25.129543
3179.165771	8.375246
3178.568604	20.934946
3177.971436	33.490841
3177.374268	-8.371443
3176.776855	20.925440
3176.179443	16.737816
3175.581787	25.102922
3174.984131	37.648682
3174.386475	-4.182554
3173.788574	16.727680
3173.190674	-4.181287
3172.592773	25.083921
3171.994629	4.180020
3171.396484	20.896936
3170.798340	37.608788
3170.199951	33.424969
3169.601563	12.532465
3169.002930	29.237988
3168.404297	16.704891
3167.805664	25.053539
3167.206787	25.049744
3166.607910	8.348649
3166.008789	33.389538
3165.409912	20.865297
3164.810547	4.172427
3164.211426	33.374359
3163.612061	8.342325
3163.012695	8.341061
3162.413086	29.189287
3161.813477	41.692661
3161.213623	25.011805
3160.614014	25.008013
3160.013916	29.171593
3159.414063	29.167170
3158.813965	37.494961
3158.213867	24.992851
3157.613525	16.659374
3157.013184	29.149483
3156.412598	20.817902
3155.812256	4.162949
3155.211426	16.649271
3154.610840	37.455177
3154.010010	29.127386
3153.409180	20.802120
3152.808105	24.958757
3152.207031	20.795809
3151.605957	20.792654
3151.004639	16.631599
3150.403320	12.471807
3149.801758	16.626554
3149.200195	16.624031
3148.598633	33.243019
3147.996826	20.773733
3147.395020	12.462348
3146.793213	16.613943
3146.191162	29.069988
3145.589111	45.674477
3144.986816	16.606379
3144.384766	4.150965
3143.782227	12.451004
3143.179932	12.449114
3142.577393	20.745373
3141.974609	33.187557
3141.371826	12.443444
3140.769043	33.177479
3140.166260	20.732777
3139.563232	8.291851
3138.960205	20.726480
3138.356934	29.012667
3137.753662	37.296333
3137.150391	29.003855
3136.546875	24.856670
3135.943359	12.426448
3135.339600	8.283040
3134.735840	20.704454
3134.132080	20.701309
3133.528076	45.535961
3132.924072	28.973028
3132.320068	16.553501
3131.715820	37.239716
3131.111572	0.000000
3130.507080	4.136489
3129.902588	8.271721
3129.298096	20.676159
3128.693604	0.000000
3128.088867	4.133975
3127.483887	12.400040
3126.878906	37.194466
3126.273926	20.660452
3125.668945	28.920235
3125.063721	20.654171
3124.458252	24.781237
3123.853027	33.036625
3123.247559	24.773701
3122.641846	41.283226
3122.036133	4.127695
3121.430420	12.381201
3120.824707	37.137955
3120.218750	41.258118
3119.612549	12.375553
3119.006592	41.245571
3118.400391	4.123930
3117.793945	16.493210
3117.187500	-4.122675
3116.581055	8.244096
3115.974609	20.607105
3115.367920	24.724764
3114.760986	24.721003
3114.154297	37.075859
3113.547363	41.189133
3112.940186	24.709719
3112.333008	20.588299
3111.725830	32.936264
3111.118408	20.582033
3110.510986	41.157803
3109.903564	24.690922
3109.295898	16.458109
3108.688232	32.911209
3108.080566	20.566374
3107.472656	20.563244
3106.864746	37.008202
3106.256592	49.336758
3105.648438	36.996937
3105.040039	8.220289
3104.431885	8.219038
3103.823486	24.653358
3103.214844	16.433069
3102.606201	28.753492
3101.997559	16.428064
3101.388672	12.319172
3100.779785	-8.211531
3100.170898	45.156536
3099.561768	20.522572
3098.952637	20.519445
3098.343262	0.000000
3097.733887	28.718472
3097.124512	-4.102014
3096.514893	28.709723
3095.905273	28.705347
3095.295410	24.600834
3094.685791	4.099514
3094.075684	28.692226
3093.465820	28.687853
3092.855713	45.074043
3092.245361	36.873142
3091.635254	16.385565
3091.024658	8.191534
3090.414307	28.665997
3089.803711	16.378073
3089.193115	28.657257
3088.582275	32.746159
3087.971436	20.463228
3087.360596	12.276065
3086.749512	20.456989
3086.138428	20.453869
3085.527100	16.360600
3084.915771	12.268579
3084.304443	20.444513
3083.692871	-8.176558
3083.081299	28.613588
3082.469482	20.435160
3081.857910	24.518452
3081.245850	36.772064
3080.634033	12.255486
3080.021973	8.169077
3079.409668	8.167830
3078.797607	16.333170
3078.185059	20.413345
3077.572754	44.902508
3076.960205	32.651386
3076.347656	40.808006
3075.734863	24.481066
3075.122070	32.636440
3074.509033	36.710392
3073.895996	4.078310
3073.282959	24.466124
3072.669922	-4.077065
3072.056641	20.382212
3071.443115	12.227460
3070.829834	24.451187
3070.216064	24.447454
3069.602539	16.295815
3068.988770	24.439989
3068.375000	32.581676
3067.760986	32.576698
3067.146973	36.643188
3066.532715	24.425062
3065.918701	12.210666
3065.304199	8.139201
3064.689941	24.413872
3064.075439	36.615215
3063.460693	12.203207
3062.846191	24.402685
3062.231445	28.465450
3061.616455	36.592846
3061.001465	12.195751
3060.386475	44.710922
3059.771240	24.384048
3059.156006	24.380323
3058.540771	4.062766
3057.925293	16.248581
3057.309814	48.738293
3056.694092	24.365421
3056.078369	32.482262
3055.462646	0.000000
3054.846680	20.295208
3054.230713	28.408949
3053.614502	24.346804
3052.998291	24.343082
3052.382080	36.509041
3051.765625	52.727219
3051.149170	20.276598
3050.532715	24.328197
3049.916016	28.378555
3049.299316	8.106918
3048.682373	44.581234
3048.065430	32.417755
3047.448486	0.000000
3046.831299	20.254900
3046.214111	16.201441
3045.596680	32.397926
3044.979248	52.638577
3044.361816	24.291010
3043.744141	48.574589
3043.126465	28.330841
3042.508545	40.466438
3041.890869	16.184097
3041.272705	20.227026
3040.654785	32.358288
3040.036621	32.353336
3039.418213	56.609676
3038.799805	28.300505
3038.181396	48.507725
3037.562988	36.375225
3036.944336	32.328583
3036.325439	24.242725
3035.706543	20.199179
3035.087646	20.196087
3034.468750	36.347389
3033.849609	24.227882
3033.230469	32.298897
3032.611084	32.293949
3031.991699	40.361256
3031.372070	24.213045
3030.752441	36.314007
3030.132813	24.205629
3029.513184	40.336536
3028.893066	32.264286
3028.273193	32.259342
3027.653076	16.127201
3027.032959	24.187094
3026.412598	36.275082
3025.792480	24.179684
3025.171875	16.117319
3024.551270	32.229698
3023.930664	32.224758
3023.310059	52.357208
3022.689209	28.188023
3022.068115	24.157459
3021.447266	36.230637
3020.826172	24.150055
3020.204834	32.195137
3019.583496	48.285305
3018.962158	24.138950
3018.340576	36.202873
3017.718994	44.241173
3017.097412	40.213081
3016.475586	20.103458
3015.853760	44.220829
3015.231689	28.136211
3014.609619	28.131897
3013.987549	28.127583
3013.365234	52.228928
3012.742920	36.152943
3012.120361	32.131020
3011.497803	36.141853
3010.875244	12.045436
3010.252441	20.072647
3009.629639	4.013914
3009.006836	24.079786
3008.383789	16.050728
3007.760498	32.096531
3007.137451	40.114506
3006.514160	16.043341
3005.890625	24.061317
3005.267090	28.067228
3004.643555	56.125843
3004.019775	32.066986
3003.395996	64.124130
3002.772217	68.121429
3002.148193	24.039167
3001.524170	12.017738
3000.899902	12.015894
3000.275635	40.046829
2999.651367	52.052887
2999.026855	20.017267
2998.402344	40.028385
2997.777588	48.026688
2997.152832	44.017704
2996.528076	28.006964
2995.903076	20.001902
2995.278076	27.998362
2994.653076	19.995758
2994.027832	23.991224
2993.402344	63.966770
2992.777100	43.970398
2992.151367	35.970253
2991.525879	59.941212
2990.900146	35.959202
2990.274414	39.948528
2989.648438	43.936630
2989.022461	43.929878
2988.396240	31.944094
2987.770264	43.916378
2987.143799	47.901413
2986.517578	59.867565
2985.891113	59.858364
2985.264404	35.909496
2984.637695	55.850632
2984.010986	51.853329
2983.384033	67.797775
2982.757080	87.724808
2982.130127	47.842537
2981.502930	47.835182
2980.875732	35.870869
2980.248291	67.745667
2979.620850	75.704102
2978.993408	67.724838
2978.365723	87.630424
2977.738037	103.547302
2977.110107	59.729641
2976.482178	79.627266
2975.854248	63.692017
2975.226074	87.563049
2974.597900	67.651947
2973.969482	83.557198
2973.341309	111.392456
2972.712646	135.241455
2972.083984	143.174805
2971.455322	163.035095
2970.826660	127.227325
2970.197754	155.034439
2969.568604	158.985214
2968.939697	226.519058
2968.310547	166.883087
2967.681152	178.775787
2967.051758	214.497925
2966.422363	214.464905
2965.792725	262.083405
2965.163086	202.487823
2964.533203	269.942200
2963.903564	261.962372
2963.273438	265.890564
2962.643311	222.202667
2962.013184	305.481628
2961.383057	257.834381
2960.752686	265.726807
2960.122314	317.236877
2959.491699	340.977112
2958.861084	309.210693
2958.230225	301.235809
2957.599609	297.226379
2956.968506	332.842255
2956.337646	293.173004
2955.706299	273.321899
2955.075195	301.003815
2954.443848	281.157623
2953.812500	269.236206
2953.180908	320.658417
2952.549316	292.902069
2951.917725	336.389709
2951.285889	348.208618
2950.653809	272.985107
2950.021973	328.322784
2949.389893	344.092529
2948.757568	347.993958
2948.125244	340.032593
2947.492920	288.587799
2946.860352	328.069794
2946.227783	268.738647
2945.595215	241.037186
2944.962402	229.147568
2944.329590	189.610123
2943.696533	173.782471
2943.063477	189.551636
2942.430420	213.212708
2941.797119	177.649841
2941.163574	177.622452
2940.530273	165.755371
2939.896729	209.135239
2939.262939	240.665680
2938.629150	173.568130
2937.995361	181.429596
2937.361328	173.514587
2936.727295	173.487808
2936.093262	181.345627
2935.458984	185.259338
2934.824707	181.289658
2934.190186	204.904510
2933.555664	181.233704
2932.921143	216.659027
2932.286377	283.582581
2931.651367	283.538818
2931.016602	232.308441
2930.381592	263.767151
2929.746338	314.897247
2929.111084	267.621338
2928.475830	287.255005
2927.840332	314.751404
2927.204834	334.371735
2926.569336	353.985962
2925.933594	338.201019
2925.297607	412.856079
2924.661865	385.272827
2924.025879	404.867065
2923.389648	389.083954
2922.753418	424.389679
2922.117188	436.110901
2921.480713	365.333740
2920.844238	455.614716
2920.207764	420.200348
2919.571045	412.282440
2918.934082	392.589264
2918.297363	376.827454
2917.660156	364.995178
2917.023193	404.179504
2916.385986	470.815979
2915.748779	329.520233
2915.111328	368.691833
2914.473877	356.869904
2913.836182	372.498901
2913.198486	321.475677
2912.560791	399.822540
2911.922852	403.679962
2911.284912	391.861694
2910.646729	411.391174
2910.008545	403.492737
2909.370361	434.764740
2908.731934	434.697510
2908.093506	446.377045
2907.455078	477.627869
2906.816406	446.238983
2906.177490	524.445374
2905.538574	520.451111
2904.899658	528.195679
2904.260498	567.233521
2903.621338	535.854980
2902.982178	563.147278
2902.342773	594.341309
2901.703369	605.977966
2901.063721	562.885925
2900.424072	562.798828
2899.784424	531.449951
2899.144531	539.181946
2898.504639	539.098511
2897.864502	531.203247
2897.224365	507.689209
2896.583984	554.466980
2895.943848	507.532043
2895.303223	452.804657
2894.662842	507.374908
2894.021973	526.807739
2893.381348	476.004425
2892.740479	526.644653
2892.099609	507.060760
2891.458496	510.882111
2890.817383	569.291870
2890.176025	608.190247
2889.534668	569.115540
2888.893311	615.796753
2888.251709	592.320313
2887.610107	666.257141
2886.968262	650.571350
2886.326416	611.520264
2885.684570	681.525269
2885.042480	681.419678
2884.400391	720.246338
2883.758057	759.060913
2883.115723	817.323547
2882.473389	751.042847
2881.830811	774.271301
2881.188232	778.041504
2880.545410	797.368958
2879.902588	797.245361
2879.259766	754.349426
2878.616699	808.661621
2877.973633	796.874695
2877.330322	730.679077
2876.687012	703.363892
2876.043457	637.203308
2875.399902	675.952332
2874.756348	671.963318
2874.112549	656.324829
2873.468750	640.691101
2872.824707	601.768005
2872.180664	609.438232
2871.536621	578.294312
2870.892334	651.935425
2870.248047	601.394714
2869.603760	609.060181
2868.958984	554.663025
2868.314453	620.505676
2867.669678	632.042114
2867.024902	666.836670
2866.379883	624.093262
2865.734863	701.511536
2865.089844	658.776001
2864.444580	736.164795
2863.799316	639.201782
2863.153809	673.962708
2862.508301	619.639648
2861.862549	573.077698
2861.216797	542.016357
2860.571045	510.964661
2859.925049	460.570862
2859.279053	421.801941
2858.632813	367.568481
2857.986572	367.511414
2857.340332	293.963470
2856.693848	270.713776
2856.047363	282.271973
2855.400635	231.968323
2854.753906	239.663361
2854.107178	235.761200
2853.460205	239.588928
2852.813232	224.096756
2852.166016	220.198807
2851.518799	181.539230
2850.871338	235.578140
2850.223877	231.680206
2849.576416	235.504944
2848.928711	216.167679
2848.281006	204.555466
2847.633301	223.818375
2846.985352	289.375336
2846.337158	293.188110
2845.688965	300.856812
2845.040771	285.383881
2844.392578	320.042999
2843.743896	350.835968
2843.095459	381.619354
2842.446777	316.039612
2841.798096	435.450287
2841.149170	466.206146
2840.500244	504.657104
2839.851074	466.061157
2839.202148	469.839844
2838.552734	454.364594
2837.903320	485.093506
2837.253906	477.319366
2836.604492	458.001373
2835.954834	446.385681
2835.304932	430.926025
2834.655029	407.777283
2834.005127	419.252899
2833.354980	365.347046
2832.704834	353.754730
2832.054688	315.254089
2831.404297	303.673126
2830.753906	226.758575
2830.103271	215.194977
2829.452637	199.792816
2828.801758	180.553864
2828.150879	203.571609
2827.500000	153.615036
2826.848877	142.071793
2826.197754	142.049667
2825.546387	145.866150
2824.895020	134.329483
2824.243408	145.820724
2823.591797	111.266914
2822.940186	80.560051
2822.288330	107.396675
2821.636475	118.884941
2820.984619	103.528824
2820.332520	88.177490
2819.680176	68.997719
2819.028076	61.321754
2818.375488	80.472267
2817.723145	111.111061
2817.070557	99.601295
2816.417725	72.774223
2815.764893	80.422134
2815.112061	88.067665
2814.458984	76.568649
2813.805908	88.040222
2813.152832	76.544785
2812.499512	88.012787
2811.845947	76.520935
2811.192383	45.905403
2810.538818	65.022522
2809.885010	65.012383
2809.231201	42.060280
2808.577393	57.345985
2807.923340	53.514576
2807.269287	80.259354
2806.614990	61.140450
2805.960693	64.951599
2805.306152	49.661125
2804.651611	45.833893
2803.997070	68.740112
2803.342285	57.274498
2802.687500	57.265564
2802.032471	53.439526
2801.377441	61.064217
2800.722412	45.791019
2800.067139	41.968555
2799.411621	57.220917
2798.756348	45.769592
2798.100586	57.203068
2797.445068	57.194141
2796.789307	72.434608
2796.133301	60.988049
2795.477539	45.733898
2794.821289	53.347889
2794.165283	68.579437
2793.509033	64.759361
2792.852539	30.470238
2792.196045	53.314594
2791.539551	49.498680
2790.882813	26.648975
2790.226074	49.483227
2789.569092	57.087116
2788.912109	57.078205
2788.255127	38.046196
2787.597900	60.864410
2786.940430	19.017159
2786.283203	53.239727
2785.625488	49.429169
2784.968018	30.413200
2784.310303	57.015842
2783.652588	64.607864
2782.994629	64.597771
2782.336426	41.792030
2781.678467	64.577591
2781.020264	75.961769
2780.361816	56.962425
2779.703369	45.562820
2779.044922	37.963085
2778.386230	45.548584
2777.727539	37.951221
2777.068604	34.150761
2776.409668	64.496918
2775.750732	22.760059
2775.091553	26.549252
2774.432373	34.129417
2773.772949	53.081905
2773.113525	60.655552
2772.453857	68.226830
2771.794189	41.687656
2771.134521	49.259525
2770.474609	53.040428
2769.814697	56.820141
2769.154541	41.661591
2768.494385	22.720949
2767.833984	37.862328
2767.173584	49.213326
2766.513184	41.635532
2765.852539	45.413479
2765.191895	64.325699
2764.531006	49.182545
2763.870117	56.740211
2763.209229	37.820889
2762.548096	26.470482
2761.886719	68.056305
2761.225586	49.144081
2760.563965	60.475559
2759.902588	56.686966
2759.240967	71.792252
2758.579102	64.225121
2757.917236	56.660355
2757.255371	67.981789
2756.593262	64.194969
2755.931152	52.858170
2755.269043	60.399879
2754.606689	71.713631
2753.944092	60.380970
2753.281494	71.691177
2752.618896	67.907326
2751.956055	49.036499
2751.293213	52.800266
2750.630371	60.333714
2749.967285	79.175598
2749.303955	64.084496
2748.640625	75.381714
2747.977295	86.675392
2747.313721	94.197624
2746.650146	75.346291
2745.986572	75.334488
2745.322754	90.387230
2744.658691	52.717621
2743.994873	56.474316
2743.330566	79.051651
2742.666504	112.913239
2742.002197	71.500511
2741.337646	82.777092
2740.673096	71.478104
2740.008545	71.466896
2739.343750	105.303131
2738.678955	82.725204
2738.013916	75.192947
2737.348877	78.940216
2736.683594	101.478653
2736.018311	75.157585
2735.353027	82.660385
2734.687500	93.917526
2734.021973	112.683357
2733.356201	86.377029
2732.690430	116.402954
2732.024658	93.858627
2731.358643	82.582634
2730.692383	108.841858
2730.026367	108.824783
2729.359863	108.807716
2728.693604	112.542046
2728.027100	90.019508
2727.360352	120.007187
2726.693604	97.490540
2726.026855	108.722389
2725.359863	112.453789
2724.692871	123.679756
2724.025635	142.396759
2723.358398	138.627716
2722.691162	127.367638
2722.023682	142.329727
2721.355957	142.307388
2720.688477	138.540695
2720.020508	160.981491
2719.352783	175.928879
2718.684814	172.158691
2718.016602	142.195709
2717.348389	138.431992
2716.680176	153.373520
2716.011719	115.947136
2715.343262	108.449638
2714.674561	97.215439
2714.005859	115.892517
2713.337158	123.350075
2712.668213	100.906937
2711.999023	104.627792
2711.329834	104.611359
2710.660645	104.594925
2709.991455	112.048378
2709.321777	108.296417
2708.652344	85.876770
2707.982666	115.728760
2707.312988	93.314980
2706.643066	111.960381
2705.972900	82.091377
2705.302979	93.270988
2704.632813	85.795822
2703.962402	74.593338
2703.291992	70.852531
2702.621582	100.669350
2701.950928	82.013985
2701.280273	70.819122
2700.609375	81.988197
2699.938477	78.249153
2699.267334	74.511284
2698.596191	67.049614
2697.925049	89.385429
2697.253662	63.304718
2696.582031	59.571541
2695.910645	55.839539
2695.239014	78.163055
2694.567139	78.150757
2693.895264	70.696709
2693.223145	66.965294
2692.551270	59.515339
2691.878906	63.225101
2691.206543	66.933693
2690.534180	85.512924
2689.861816	48.325787
2689.189209	59.468533
2688.516357	59.459171
2687.843506	70.596657
2687.170654	63.155487
2686.497559	44.573326
2685.824463	59.421745
2685.151123	66.838943
2684.477783	63.115730
2683.804199	66.817902
2683.130615	66.807381
2682.457031	85.351547
2681.783203	63.075989
2681.109375	51.936752
2680.435303	66.765312
2679.761230	55.628998
2679.086914	63.036266
2678.412598	70.441200
2677.738281	96.378044
2677.063721	85.244072
2676.389160	74.113602
2675.714355	51.871349
2675.039551	59.272202
2674.364502	70.374649
2673.689453	74.066910
2673.014404	55.541428
2672.339111	70.341385
2671.663574	55.523922
2670.988037	66.618210
2670.312500	66.607712
2669.636719	73.996902
2668.960938	55.488930
2668.285156	62.877541
2667.609131	81.358109
2666.932861	51.765179
2666.256592	36.969299
2665.580322	77.623283
2664.903809	48.044933
2664.227295	48.037357
2663.550781	59.113579
2662.874023	70.186310
2662.197021	59.094936
2661.520020	66.471321
2660.843018	73.845375
2660.165771	81.217094
2659.488525	55.366558
2658.811035	88.572517
2658.133545	99.628365
2657.455811	66.408432
2656.778076	81.153053
2656.100342	92.204834
2655.422363	59.001781
2654.744385	84.801674
2654.066162	55.296715
2653.387939	55.287987
2652.709473	84.761536
2652.031006	88.432861
2651.352539	51.577690
2650.673828	77.354324
2649.994873	69.976196
2649.316162	66.282776
2648.636963	62.590515
2647.958008	62.580635
2647.278809	92.015816
2646.599365	58.880821
2645.919922	69.909935
2645.240479	47.825562
2644.560791	77.244476
2643.880859	69.876816
2643.201172	51.480049
2642.520996	58.825050
2641.841064	47.787804
2641.160889	62.481873
2640.480469	69.821648
2639.800049	80.833344
2639.119629	66.125923
2638.438965	73.461639
2637.758301	73.450035
2637.077393	73.438431
2636.396484	55.070118
2635.715332	69.744461
2635.034180	55.052711
2634.353027	66.052811
2633.671631	22.014124
2632.989990	69.700371
2632.308350	55.017914
2631.626709	44.007370
2630.944824	77.000725
2630.262939	73.322426
2629.581055	58.648670
2628.898926	54.974434
2628.216553	54.965740
2627.534180	69.612259
2626.851807	65.938026
2626.169189	47.614376
2625.486572	58.593040
2624.803711	73.229721
2624.120850	54.913601
2623.437988	65.885895
2622.754883	54.896229
2622.071533	54.887543
2621.388184	62.196041
2620.704834	62.186199
2620.021240	32.916897
2619.337646	40.225395
2618.653809	62.156681
2617.969971	62.146847
2617.286133	73.102364
2616.602051	84.054413
2615.917725	62.117340
2615.233398	40.187210
2614.549072	43.833652
2613.864502	51.131168
2613.179932	69.381310
2612.495117	98.578888
2611.810303	40.155411
2611.125488	87.597931
2610.440430	54.740036
2609.755127	43.785095
2609.069824	54.722698
2608.384521	47.418827
2607.698975	72.940491
2607.013428	61.989594
2606.327637	61.979774
2605.641846	51.034081
2604.956055	54.670712
2604.270020	58.306187
2603.583740	61.940506
2602.897461	91.074547
2602.211182	47.351261
2601.524658	87.403862
2600.838135	58.260006
2600.151367	50.969425
2599.464600	58.241539
2598.777832	87.348465
2598.090820	47.306252
2597.403564	54.575485
2596.716309	80.031357
2596.029053	90.930305
2595.341553	40.002991
2594.654053	58.176941
2593.966309	61.803200
2593.278564	58.158493
2592.590820	72.686584
2591.902832	50.872543
2591.214600	61.764004
2590.526367	65.386810
2589.838135	72.640488
2589.149658	72.628967
2588.461182	54.463081
2587.772461	72.605927
2587.083740	68.964684
2586.394775	61.695454
2585.705811	68.942802
2585.016846	61.675877
2584.327637	68.920921
2583.638184	65.283142
2582.948975	50.767723
2582.259277	54.385353
2581.569824	54.376724
2580.879883	76.115326
2580.190186	61.607391
2579.500244	54.350834
2578.810059	61.587833
2578.119873	43.466862
2577.429688	61.568275
2576.739258	72.421768
2576.048584	57.928215
2575.358154	72.398766
2574.667236	54.290455
2573.976563	43.425465
2573.285645	75.982491
2572.594482	72.352783
2571.903320	61.490101
2571.212158	68.713310
2570.520752	57.854649
2569.829102	75.922165
2569.137451	50.606735
2568.445801	36.141926
2567.753906	75.885986
2567.062012	57.808704
2566.370117	68.636925
2565.677979	57.790333
2564.985596	46.947182
2564.293213	61.382713
2563.600830	75.813652
2562.908203	39.705601
2562.215332	50.526367
2561.522705	46.909882
2560.829590	61.333942
2560.136719	75.753410
2559.443604	36.067318
2558.750244	64.910851
2558.056885	61.294941
2557.363525	61.285194
2556.669922	61.275448
2555.976074	50.454109
2555.282227	28.826334
2554.588379	50.438061
2553.894287	61.236473
2553.200195	54.023586
2552.505859	50.413994
2551.811523	61.207253
2551.117188	39.598392
2550.422607	61.187778
2549.727783	50.381916
2549.032959	57.570171
2548.338135	53.963444
2547.643066	64.745827
2546.947998	46.753433
2546.252686	39.554302
2545.557373	68.310188
2544.861816	61.109917
2544.166260	64.694313
2543.470703	93.432472
2542.774902	68.266701
2542.078857	46.701359
2541.382813	57.469444
2540.686768	61.051563
2539.990479	96.948807
2539.294189	61.032120
2538.597656	39.485081
2537.901123	43.067776
2537.204346	71.768188
2536.507568	46.641895
2535.810791	50.221729
2535.113770	50.213730
2534.416504	43.033482
2533.719238	60.954388
2533.021973	71.699615
2532.324463	32.259686
2531.626953	60.925255
2530.929199	57.332279
2530.231445	57.323143
2529.533447	60.896133
2528.835449	68.049538
2528.137451	39.390820
2527.439209	71.608253
2526.740723	53.697632
2526.042236	82.323242
2525.343750	60.837914
2524.645020	71.562599
2523.946289	67.973633
2523.247314	53.654839
2522.548340	75.104790
2521.849121	53.637726
2521.149902	57.204449
2520.450684	75.068863
2519.751221	60.760342
2519.051514	60.750648
2518.351807	57.167961
2517.652100	57.158840
2516.952148	57.149723
2516.252197	64.283180
2515.552002	71.414360
2514.851807	60.692520
2514.151367	60.682835
2513.450928	46.397118
2512.750244	85.642548
2512.049561	32.110828
2511.348877	85.615211
2510.647949	78.468086
2509.946777	42.793941
2509.245605	49.918293
2508.544434	67.735443
2507.843018	46.337902
2507.141602	71.277702
2506.439941	60.576370
2505.738281	60.566700
2505.036377	60.557026
2504.334473	74.793793
2503.632568	71.220810
2502.930420	49.846603
2502.228027	71.198059
2501.525635	60.508682
2500.823242	67.616547
2500.120605	56.931156
2499.417969	71.152573
2498.715088	24.899424
2498.012207	53.347382
2497.309082	78.230324
2496.605957	56.885689
2495.902588	53.321812
2495.199219	46.204853
2494.495605	67.519379
2493.791992	78.167831
2493.088379	63.945278
2492.384521	56.831161
2491.680664	46.167938
2490.976563	71.016243
2490.272461	88.756111
2489.568115	63.894180
2488.863770	74.531296
2488.159180	53.228127
2487.454590	46.123665
2486.749756	46.116291
2486.044922	46.108913
2485.339844	49.647812
2484.634766	60.276985
2483.929688	46.086792
2483.224365	63.802277
2482.519043	53.160057
2481.813477	56.694988
2481.107666	77.943138
2480.402100	60.219154
2479.696045	46.042572
2478.990234	63.741051
2478.284180	77.893265
2477.577881	46.020473
2476.871582	60.170986
2476.165039	49.544647
2475.458496	45.998379
2474.751953	38.915474
2474.045166	31.834837
2473.338379	63.659481
2472.631348	84.865723
2471.924072	53.032581
2471.217041	88.373482
2470.509521	45.946854
2469.802246	60.074726
2469.094482	52.998623
2468.386963	77.718864
2467.679199	38.853207
2466.971191	52.973164
2466.263184	70.619568
2465.554932	45.895367
2464.846680	67.067101
2464.138428	67.056351
2463.429932	95.275345
2462.721436	70.563019
2462.012695	56.441372
2461.303955	56.432327
2460.594971	52.896828
2459.885986	63.466019
2459.176758	70.506500
2458.467529	70.495201
2457.758057	74.008095
2457.048584	84.567123
2456.338867	70.461304
2455.629150	95.107513
2454.919434	73.960648
2454.209473	91.555649
2453.499512	77.457741
2452.789307	70.404839
2452.078857	77.432899
2451.368408	77.420486
2450.657959	70.370972
2449.947266	63.323715
2449.236572	70.348396
2448.525879	80.887680
2447.814697	73.842125
2447.103760	73.830276
2446.392578	45.697124
2445.681152	80.835785
2444.969727	59.738605
2444.258301	56.215546
2443.546631	38.641987
2442.834717	59.709850
2442.122803	52.676708
2441.410889	59.690685
2440.698730	59.681107
2439.986572	70.201797
2439.274170	45.623844
2438.561768	66.670296
2437.849121	59.642796
2437.136475	94.711586
2436.423584	73.652740
2435.710693	63.120781
2434.997803	52.592205
2434.284424	63.100510
2433.571289	70.100418
2432.857910	63.080246
2432.144287	73.581795
2431.430908	70.066650
2430.717041	73.558159
2430.003174	84.052963
2429.289307	63.029598
2428.575195	63.019470
2427.861084	63.009346
2427.146729	48.999393
2426.432373	66.488495
2425.717773	48.983650
2425.003174	90.955017
2424.288330	83.944984
2423.573486	69.942909
2422.858643	87.414581
2422.143555	62.928383
2421.428223	97.872864
2420.712891	38.443871
2419.997559	90.852722
2419.281982	83.850571
2418.566162	52.398178
2417.850586	76.838310
2417.134521	62.857597
2416.418457	66.339012
2415.702393	80.292206
2414.986084	52.356060
2414.269775	34.898426
2413.553223	80.253471
2412.836670	76.751846
2412.120117	62.786861
2411.403076	62.776760
2410.686279	59.279621
2409.969238	55.783607
2409.251953	76.690125
2408.534668	59.251011
2407.817383	66.211060
2407.099854	62.716175
2406.382080	45.287727
2405.664307	66.179100
2404.946533	59.203350
2404.228516	62.675808
2403.510498	66.147148
2402.792236	87.021706
2402.073975	73.086464
2401.355469	48.716465
2400.636963	76.542122
2399.918213	86.965675
2399.199463	86.951675
2398.480469	45.207588
2397.761475	73.015884
2397.042480	76.480507
2396.323242	38.234097
2395.603760	59.079536
2394.884277	72.968849
2394.164795	76.431244
2393.445068	79.892517
2392.725098	59.041477
2392.005127	79.866776
2391.285156	72.910088
2390.564941	97.197784
2389.844727	65.945007
2389.124268	72.874840
2388.403809	52.045071
2387.683105	69.382240
2386.962402	62.433952
2386.241455	79.763855
2385.520508	52.011520
2384.799316	62.403763
2384.078125	65.860016
2383.356689	79.712433
2382.635254	65.838783
2381.913818	69.292809
2381.192139	72.745712
2380.470215	69.270462
2379.748291	69.259285
2379.026367	69.248116
2378.304199	96.931725
2377.581787	72.687065
2376.859375	48.450226
2376.136963	62.283100
2375.414307	58.813438
2374.691650	44.967724
2373.968750	55.335960
2373.245850	62.242912
2372.522705	65.690247
2371.799316	62.222824
2371.076172	51.843987
2370.352783	72.569862
2369.629150	69.102997
2368.905518	76.001030
2368.181641	93.258934
2367.457764	72.523018
2366.733643	65.605469
2366.009521	96.666138
2365.285400	79.391502
2364.561035	72.476189
2363.836426	89.717934
2363.111816	65.552521
2362.387207	65.541931
2361.662354	68.980362
2360.937256	89.659988
2360.212158	93.093414
2359.487061	62.052250
2358.761719	82.722961
2358.036377	75.817131
2357.310791	55.130825
2356.584961	68.902397
2355.859375	65.446701
2355.133301	65.436127
2354.407471	79.199348
2353.681152	86.072334
2352.955078	65.404404
2352.228516	65.393829
2351.502197	75.706932
2350.775635	65.372688
2350.048828	92.883018
2349.322021	79.109779
2348.594971	72.218987
2347.867920	96.276413
2347.140869	51.568310
2346.413330	72.183960
2345.686035	79.045837
2344.958496	103.086594
2344.230713	54.970627
2343.502930	61.831951
2342.775146	65.256500
2342.047119	65.245949
2341.319092	61.801949
2340.590820	85.822151
2339.862305	82.375938
2339.133789	78.930832
2338.405273	85.780502
2337.676514	61.751968
2336.947754	68.602196
2336.218750	75.450203
2335.489746	106.298981
2334.760498	75.425781
2334.031250	71.985680
2333.301758	71.974030
2332.572266	68.535599
2331.842529	82.229401
2331.112793	92.493095
2330.382813	85.627892
2329.652832	71.915779
2328.922607	71.904137
2328.192383	99.280106
2327.462158	106.109825
2326.731689	75.291550
2326.000977	95.810089
2325.270264	68.424690
2324.539307	92.358376
2323.808350	61.562275
2323.077393	82.069733
2322.346191	78.637421
2321.614746	68.369286
2320.883301	64.940300
2320.151855	85.433914
2319.420166	61.502449
2318.688232	78.573723
2317.956299	71.729599
2317.224365	102.454247
2316.492188	92.193878
2315.760010	61.452621
2315.027588	71.683105
2314.295166	85.323196
2313.562500	68.247490
2312.829590	105.766457
2312.096924	85.281700
2311.363770	68.214294
2310.630615	71.613396
2309.897461	81.830605
2309.164063	109.089783
2308.430664	64.761551
2307.697021	74.974899
2306.963379	74.962738
2306.229492	85.171104
2305.495605	68.125832
2304.761719	57.897560
2304.027344	85.129662
2303.293213	95.329750
2302.558838	91.910194
2301.824219	98.702339
2301.089600	112.298225
2300.354736	71.450912
2299.619873	78.243057
2298.885010	68.026398
2298.149658	78.217659
2297.414551	98.606255
2296.679199	78.192261
2295.943604	81.578682
2295.208008	67.971199
2294.472412	71.358170
2293.736572	84.936401
2293.000488	88.319519
2292.264404	84.908821
2291.528320	57.728622
2290.791992	61.114494
2290.055420	64.499268
2289.318848	61.094643
2288.582275	78.052696
2287.845459	91.612190
2287.108398	71.242348
2286.371582	78.014656
2285.634277	84.784760
2284.896973	77.989304
2284.159668	98.318359
2283.422119	84.743431
2282.684570	77.951286
2281.946777	67.772713
2281.208740	101.642540
2280.470703	71.138214
2279.732666	101.609497
2278.994385	84.660820
2278.256104	84.647057
2277.517578	91.403954
2276.779053	91.389091
2276.040283	84.605766
2275.301514	74.440971
2274.562500	67.662605
2273.823486	108.242554
2273.084229	54.112476
2272.344971	94.681427
2271.605469	77.761383
2270.865967	67.607590
2270.126221	104.774719
2269.386475	70.964874
2268.646484	94.604439
2267.906494	77.698143
2267.166260	74.307869
2266.426025	67.541618
2265.685547	77.660217
2264.945068	81.023560
2264.204346	108.013824
2263.463623	67.497658
2262.722656	128.224670
2261.981689	91.092171
2261.240723	80.957634
2260.499268	80.944450
2259.758057	80.931274
2259.016602	87.661270
2258.274902	87.646996
2257.533203	121.337616
2256.791260	74.138687
2256.049316	77.496010
2255.307129	70.745697
2254.564941	90.943939
2253.822754	67.354904
2253.080322	114.484688
2252.337646	80.799553
2251.594971	94.250793
2250.852051	97.600983
2250.109131	84.125069
2249.366211	70.653542
2248.623047	67.278122
2247.879639	80.720589
2247.136230	70.619003
2246.392578	84.056541
2245.648926	70.595985
2244.905273	90.751472
2244.161377	73.933586
2243.417236	84.001747
2242.673096	97.426140
2241.928955	67.179482
2241.184570	63.810104
2240.439941	87.304848
2239.695313	70.503960
2238.950439	80.562805
2238.205566	117.468269
2237.460693	97.314972
2236.715576	67.102829
2235.970215	90.574043
2235.224854	90.559265
2234.479492	70.423492
2233.733887	110.647430
2232.988037	90.514946
2232.242188	90.500175
2231.496338	97.188034
2230.750244	67.015289
2230.003906	87.105659
2229.257568	80.392097
2228.511230	73.680733
2227.764648	97.108749
2227.017822	107.136986
2226.270996	100.424530
2225.523926	70.285690
2224.776855	93.698952
2224.029785	83.646118
2223.282471	76.941864
2222.534912	80.274055
2221.787354	70.228325
2221.039795	80.247833
2220.291992	83.577843
2219.543945	73.536491
2218.795898	90.234581
2218.047852	86.878372
2217.299561	76.841385
2216.551025	63.467297
2215.802490	83.495956
2215.053955	90.160896
2214.305176	73.452431
2213.556152	113.498840
2212.807129	80.103737
2212.058105	93.439087
2211.308838	76.740990
2210.559326	83.400482
2209.809814	63.374008
2209.060303	56.693790
2208.310547	103.365891
2207.560547	63.342930
2206.810547	89.998924
2206.060303	79.985962
2205.310059	66.644066
2204.559814	66.633171
2203.809326	73.284500
2203.058594	89.925354
2202.307861	86.580627
2201.557129	63.260109
2200.806152	86.552299
2200.054932	109.836876
2199.303711	63.229065
2198.552246	93.164429
2197.800781	79.842163
2197.049316	83.155312
2196.297607	59.862026
2195.545654	76.477844
2194.793701	63.167011
2194.041504	76.452820
2193.289307	99.704742
2192.537109	89.719582
2191.784668	86.382492
2191.031982	76.402771
2190.279297	76.390259
2189.526367	89.660843
2188.773438	69.724792
2188.020508	89.631485
2187.267090	82.978523
2186.513916	89.602127
2185.760498	86.269402
2185.006836	102.842827
2184.253174	72.973274
2183.499268	89.543442
2182.745361	99.476410
2181.991211	109.406128
2181.237061	82.869850
2180.482666	82.856270
2179.728271	89.470116
2178.973877	89.455452
2178.218994	89.440796
2177.464355	122.546928
2176.709229	102.657623
2175.954346	132.439743
2175.198975	69.519470
2174.443848	99.297241
2173.688232	52.949848
2172.932861	79.411751
2172.177002	82.707016
2171.421387	92.616669
2170.665283	89.294281
2169.909424	92.586296
2169.153076	79.346664
2168.396729	85.944794
2167.640381	76.015617
2166.883789	92.525574
2166.127197	102.422226
2165.370361	92.495224
2164.613525	108.994339
2163.856445	85.860237
2163.099365	95.751480
2162.342041	102.338234
2161.584473	95.720062
2160.826904	85.803902
2160.069336	75.890999
2159.311523	85.775742
2158.553711	69.269035
2157.795654	85.747589
2157.037354	105.518166
2156.279053	105.500847
2155.520752	75.816284
2154.762207	108.762032
2154.003662	102.153618
2153.244873	112.021049
2152.485840	95.531677
2151.726807	82.341370
2150.967773	88.914078
2150.208252	88.899475
2149.448975	115.221130
2148.689453	88.870277
2147.929688	105.310432
2147.169922	85.550667
2146.410156	98.696091
2145.650146	95.390549
2144.889893	85.508507
2144.129639	105.223953
2143.369141	88.768120
2142.608643	108.476540
2141.847900	95.312202
2141.087158	69.007835
2140.326416	114.994156
2139.565186	88.695198
2138.804199	88.680618
2138.042725	85.382111
2137.281494	75.517914
2136.519775	118.182510
2135.758301	105.033852
2134.996338	88.607742
2134.234619	98.436852
2133.472412	91.859291
2132.710449	68.883133
2131.947998	72.151413
2131.185547	85.255829
2130.423096	91.798866
2129.660400	104.895737
2128.897705	108.155930
2128.134766	91.753571
2127.371826	111.396721
2126.608643	131.033401
2125.845215	88.432991
2125.081787	72.044655
2124.318359	111.323410
2123.554688	85.115662
2122.790771	94.921066
2122.026855	91.632843
2121.262939	88.345695
2120.498779	104.688774
2119.734375	117.755486
2118.969971	101.383858
2118.205322	111.176895
2117.440674	114.427956
2116.676025	84.989632
2115.911133	94.780510
2115.145996	91.497147
2114.380859	98.016510
2113.615479	107.800407
2112.850098	91.451942
2112.084473	107.764893
2111.318848	107.747139
2110.552979	104.464859
2109.787109	91.391693
2109.020996	114.220795
2108.254883	107.676147
2107.488525	94.608902
2106.722168	110.902496
2105.955566	97.839020
2105.188965	88.040604
2104.422119	94.546547
2103.655029	101.050339
2102.887939	117.329430
2102.120850	101.017021
2101.353516	107.516518
2100.585938	127.044029
2099.818359	127.023079
2099.050781	110.719810
2098.282959	110.701553
2097.514893	94.406342
2096.746826	110.665039
2095.978760	81.357933
2095.210449	126.897438
2094.441895	91.090820
2093.673340	100.833916
2092.904541	123.582474
2092.135742	113.807182
2091.366699	110.537308
2090.597656	91.015701
2089.828369	113.750854
2089.059082	116.981575
2088.289551	120.211220
2087.520020	120.191376
2086.750244	100.684265
2085.980469	90.925613
2085.210449	110.391449
2084.440186	94.141869
2083.670166	107.109268
2082.899658	120.072380
2082.129150	103.829231
2081.358643	110.300346
2080.587891	113.525719
2079.816895	119.993088
2079.045898	100.518143
2078.274902	116.711464
2077.503662	106.967842
2076.732178	97.227425
2075.960693	129.615158
2075.188965	100.435150
2074.417236	103.657867
2073.645264	100.401962
2072.873291	139.244232
2072.101074	110.081894
2071.328857	142.435379
2070.556396	132.701935
2069.783936	119.735619
2069.011230	113.244698
2068.238525	116.461006
2067.465576	103.503784
2066.692627	103.486671
2065.919434	126.103531
2065.145996	122.849792
2064.372559	109.900063
2063.599121	113.113708
2062.825439	93.707283
2062.051514	129.230057
2061.277588	122.748245
2060.503662	116.268578
2059.729248	125.936790
2058.955078	113.001503
2058.180664	116.210892
2057.406006	132.329391
2056.631348	112.945427
2055.856445	125.832657
2055.081543	129.037781
2054.306396	109.663963
2053.531250	125.770195
2052.755859	99.954636
2051.980225	132.176193
2051.204590	106.368103
2050.428955	112.795982
2049.653076	122.443932
2048.877197	122.423660
2048.101074	103.076546
2047.324707	125.603737
2046.548340	103.042412
2045.771851	119.123062
2044.995239	138.417389
2044.218506	119.083611
2043.441528	119.063889
2042.664551	131.913803
2041.887329	125.458199
2041.110107	131.870102
2040.332642	109.337578
2039.555176	118.965302
2038.777466	112.516098
2037.999634	125.354309
2037.221802	118.906181
2036.443726	118.886475
2035.665527	118.866776
2034.887207	109.210823
2034.108765	118.827377
2033.330200	96.330551
2032.551514	115.577499
2031.772705	138.028015
2030.993774	118.748604
2030.214600	154.026703
2029.435425	128.334305
2028.656128	134.728668
2027.876587	157.157394
2027.097046	147.511047
2026.317261	131.455429
2025.537476	137.845016
2024.757446	125.001488
2023.977295	115.366852
2023.197021	137.776443
2022.416626	108.921432
2021.636230	134.527679
2020.855591	128.100342
2020.074707	150.492935
2019.293823	147.266510
2018.512817	102.429276
2017.731689	131.215729
2016.950439	131.193954
2016.168945	105.577606
2015.387451	159.939514
2014.605713	150.318192
2013.823975	147.095505
2013.041992	134.282288
2012.260010	150.243332
2011.477783	137.433838
2010.695435	124.628601
2009.912964	130.998062
2009.130371	140.559937
2008.347656	159.700668
2007.564819	150.093689
2006.781860	146.875809
2005.998779	127.696884
2005.215576	124.483780
2004.432129	134.037186
2003.648682	143.587402
2002.864990	130.802353
2002.081299	130.780609
2001.297363	140.326599
2000.513428	149.869415
1999.729248	146.656326
1998.944946	137.069000
1998.160522	149.794708
1997.375977	162.516174
1996.591309	165.675217
1995.806519	162.462143
1995.021606	149.695129
1994.236572	136.932343
1993.451416	162.381119
1992.666016	155.987289
1991.880615	152.778473
1991.094971	162.300125
1990.309326	165.454956
1989.523438	155.883545
1988.737549	155.857620
1987.951416	159.011932
1987.165161	155.805771
1986.378784	149.421494
1985.592285	162.111237
1984.805664	143.015533
1984.018921	136.636536
1983.232056	162.030334
1982.444946	146.120682
1981.657837	142.920349
1980.870605	158.773956
1980.083130	130.172974
1979.295654	149.197845
1978.507935	171.390259
1977.720093	139.628082
1976.932129	174.506042
1976.144165	161.787750
1975.355957	145.901901
1974.567627	168.076385
1973.779053	168.048386
1972.990479	126.807854
1972.201782	161.653076
1971.412964	167.964432
1970.623901	164.767853
1969.834839	171.076569
1969.045532	148.875168
1968.256226	205.856888
1967.466675	136.159561
1966.677002	167.796616
1965.887207	145.610535
1965.097290	167.740692
1964.307251	177.205917
1963.517090	189.831833
1962.726807	227.760239
1961.936401	186.605759
1961.145874	180.250076
1960.355103	189.705307
1959.564331	202.318588
1958.773315	151.713638
1957.982178	205.411301
1957.191040	183.259521
1956.399658	180.069839
1955.608154	173.722626
1954.816528	164.219452
1954.024780	167.349594
1953.232910	192.577789
1952.440918	198.858643
1951.648682	211.449310
1950.856445	224.035767
1950.063965	205.068939
1949.271484	220.806625
1948.478760	205.000519
1947.685913	163.973053
1946.893066	217.543304
1946.099976	182.831970
1945.306763	195.408463
1944.513428	211.131958
1943.719971	151.233475
1942.926270	192.160446
1942.132568	204.726944
1941.338745	207.841888
1940.544678	185.767029
1939.750610	210.920563
1938.956299	207.737793
1938.161865	188.820999
1937.367310	195.082458
1936.572632	198.195831
1935.777832	213.889938
1934.982910	235.868607
1934.187866	207.529709
1933.392700	207.495041
1932.597290	194.887009
1931.801880	188.568817
1931.006226	216.817917
1930.210571	229.348740
1929.414673	210.462982
1928.618652	191.583527
1927.822510	207.252457
1927.026245	232.335114
1926.229858	219.739731
1925.433350	194.594086
1924.636719	200.837738
1923.839844	213.354416
1923.042969	219.592819
1922.245850	207.010040
1921.448730	200.703445
1920.651367	191.263489
1919.853882	206.906204
1919.056274	241.350204
1918.258545	194.301437
1917.460693	184.868820
1916.662720	203.634964
1915.864624	206.733231
1915.066284	231.753021
1914.267944	228.582977
1913.469360	216.021729
1912.670776	203.464676
1911.871948	228.468246
1911.072998	228.430008
1910.273926	222.134476
1909.474731	231.481689
1908.675415	215.804901
1907.875977	228.277115
1907.076294	196.973297
1906.276611	209.444473
1905.476807	193.781845
1904.676758	206.249359
1903.876587	256.206299
1903.076294	243.667618
1902.275879	221.762863
1901.475342	221.725723
1900.674683	215.443848
1899.873901	243.504425
1899.072998	206.007690
1898.271851	212.214783
1897.470703	199.698105
1896.669312	240.221527
1895.867920	237.062042
1895.066284	261.972046
1894.264526	224.509842
1893.462646	227.589874
1892.660645	218.200302
1891.858521	233.746857
1891.056152	252.404282
1890.253784	246.130814
1889.451172	252.319672
1888.648560	277.193665
1887.845703	249.121063
1887.042725	202.376923
1886.239624	252.150497
1885.436401	252.108215
1884.633057	227.170547
1883.829590	230.243851
1883.025879	267.535797
1882.222168	233.276978
1881.418213	251.896881
1880.614258	251.854614
1879.810059	245.594788
1879.005737	220.687393
1878.201294	198.896103
1877.396729	242.363953
1876.592041	236.109863
1875.787231	276.450684
1874.982178	245.347626
1874.177124	279.463043
1873.371826	226.637527
1872.566406	232.807693
1871.760986	266.908020
1870.955322	226.523422
1870.149536	276.126038
1869.343506	254.365540
1868.537476	214.003357
1867.731323	232.573273
1866.924927	238.735138
1866.118530	238.695038
1865.311890	238.654953
1864.505127	247.911545
1863.698242	244.771530
1862.891235	269.513245
1862.084106	226.105316
1861.276855	260.132263
1860.469482	235.318222
1859.661865	269.332184
1858.854126	269.286926
1858.046387	232.104889
1857.238403	232.065872
1856.430298	241.307953
1855.622070	272.199097
1854.813721	262.875397
1854.005249	269.015472
1853.196533	247.328964
1852.387817	244.196289
1851.578857	241.064667
1850.769775	241.024124
1849.960693	222.446396
1849.151367	253.299133
1848.341919	281.052979
1847.532227	262.477875
1846.722534	277.871002
1845.912720	234.607147
1845.102661	293.209625
1844.292603	212.926941
1843.482300	243.744904
1842.671875	237.534180
1841.861328	243.662888
1841.050659	277.543915
1840.239868	268.247314
1839.428833	234.291550
1838.617798	286.650635
1837.806519	258.866669
1836.995117	237.254501
1836.183716	246.456696
1835.372070	261.816162
1834.560303	261.772064
1833.748291	274.044617
1832.936279	289.391632
1832.124146	273.952332
1831.311768	252.363022
1830.499390	270.782990
1829.686768	286.120209
1828.874023	258.387604
1828.061157	246.041992
1827.248169	246.000549
1826.434937	245.959106
1825.621704	252.065613
1824.808228	233.582428
1823.994751	251.980682
1823.181030	245.793381
1822.367188	313.333771
1821.553223	267.210236
1820.739136	230.314819
1819.924927	291.682922
1819.110474	260.935486
1818.296021	254.752869
1817.481323	273.122681
1816.666626	242.393875
1815.851685	282.233887
1815.036621	285.253540
1814.221436	276.005280
1813.406006	242.230438
1812.590576	248.320969
1811.774902	281.996002
1810.959229	303.401031
1810.143311	288.029144
1809.327271	291.044189
1808.511108	245.048508
1807.694824	281.758240
1806.878418	223.531311
1806.061768	266.355377
1805.245117	251.005249
1804.428223	269.326019
1803.611206	272.340576
1802.794067	302.889526
1801.976807	241.658920
1801.159424	266.085785
1800.341919	278.272644
1799.524170	253.766266
1798.706421	272.064880
1797.888428	262.849762
1797.070313	293.364136
1796.252075	287.203888
1795.433716	274.936005
1794.615234	271.835266
1793.796509	259.574097
1792.977783	277.850037
1792.158813	222.853043
1791.339844	293.017517
1790.520630	280.761017
1789.701294	225.791351
1788.881714	305.071899
1788.062134	320.271362
1787.242432	247.024734
1786.422485	256.130524
1785.602417	274.379181
1784.782349	277.380951
1783.962036	280.381683
1783.141479	310.805420
1782.320923	286.380096
1781.500244	298.516022
1780.679321	283.237701
1779.858398	264.919525
1779.037231	252.696564
1778.215942	289.182098
1777.394531	225.219543
1776.572998	313.428253
1775.751221	276.865509
1774.929443	258.566895
1774.107422	298.061981
1773.285278	246.315689
1772.463013	264.516541
1771.640625	288.791046
1770.818115	243.151306
1769.995483	288.693329
1769.172607	294.721191
1768.349731	249.103592
1767.526611	282.472107
1766.703369	270.277008
1765.880005	300.594330
1765.056519	270.185547
1764.232910	297.457306
1763.409058	297.406952
1762.585083	276.116852
1761.761108	282.137573
1760.936890	315.455261
1760.112549	291.140167
1759.288086	263.801086
1758.463379	300.136597
1757.638672	281.898773
1756.813721	309.126923
1755.988647	324.225281
1755.163574	293.874054
1754.338257	263.533112
1753.512695	266.517059
1752.687134	272.528076
1751.861328	290.647369
1751.035522	266.381592
1750.209473	278.442657
1749.383301	269.317352
1748.557007	272.297241
1747.730591	314.601257
1746.903931	317.572449
1746.077271	308.446655
1745.250366	290.253510
1744.423340	284.158386
1743.596313	287.132629
1742.768921	320.325256
1741.941528	314.228088
1741.114014	320.216614
1740.286255	311.101135
1739.458374	301.988708
1738.630493	289.859985
1737.802368	310.942841
1736.973999	298.816711
1736.145630	301.783844
1735.317139	313.801941
1734.488403	280.563751
1733.659546	304.646545
1732.830566	328.721191
1732.001465	310.573730
1731.172241	352.727753
1730.342896	310.468323
1729.513306	289.319427
1728.683594	346.521729
1727.853882	316.335693
1727.023926	310.257568
1726.193726	289.123016
1725.363525	295.096283
1724.533203	340.206299
1723.702637	334.128204
1722.871948	300.965271
1722.041138	321.978149
1721.210205	309.888947
1720.379150	309.836304
1719.547974	309.783691
1718.716553	300.709778
1717.885010	321.704773
1717.053467	255.516464
1716.221558	339.628876
1715.389648	315.530731
1714.557617	318.481659
1713.725342	315.423492
1712.893066	330.387482
1712.060547	351.352417
1711.227905	300.250183
1710.395142	360.238953
1709.562256	318.156982
1708.729126	330.106781
1707.895874	336.051575
1707.062622	326.994598
1706.229126	287.946259
1705.395508	290.896210
1704.561646	347.816742
1703.727783	308.784760
1702.893677	347.698425
1702.059570	335.651733
1701.225220	326.605499
1700.390747	326.549927
1699.556030	311.517578
1698.721313	344.407928
1697.886353	326.383270
1697.051392	332.315399
1696.216187	371.172058
1695.380859	311.252594
1694.545410	347.107269
1693.709717	308.154877
1692.874023	320.067566
1692.038086	328.985413
1691.202026	319.958588
1690.365845	295.986053
1689.529541	280.989410
1688.692993	340.716370
1687.856445	376.517120
1687.019653	373.465271
1686.182739	316.644623
1685.345703	349.444458
1684.508545	358.343506
1683.671143	373.210907
1682.833740	385.088043
1681.996094	295.482330
1681.158325	307.368652
1680.320435	349.087402
1679.482422	378.859375
1678.644287	360.898987
1677.805908	333.998352
1676.967407	342.886292
1676.128784	354.752289
1675.290039	345.750000
1674.451172	327.810486
1673.612183	318.815857
1672.772949	354.510437
1671.933594	345.514282
1671.094116	336.521179
1670.254517	333.486267
1669.414795	333.429382
1668.574829	372.067535
1667.734863	348.195831
1666.894653	386.818268
1666.054321	339.152008
1665.213867	365.864746
1664.373169	359.854309
1663.532471	350.872437
1662.691528	371.623474
1661.850464	386.422485
1661.009277	344.748901
1660.167969	395.205017
1659.326538	332.747406
1658.484863	335.661072
1657.643066	341.543671
1656.801147	347.424255
1655.959106	356.271729
1655.116943	391.832001
1654.274658	359.118011
1653.432129	329.382599
1652.589478	385.697540
1651.746704	370.799683
1650.903809	326.247986
1650.060791	338.053802
1649.217529	364.679993
1648.374146	349.795837
1647.530640	349.736084
1646.687012	394.126709
1645.843262	370.356567
1644.999390	299.196960
1644.155273	349.497131
1643.311035	352.398743
1642.466675	361.221008
1641.622192	337.476715
1640.777588	352.218109
1639.932739	369.913757
1639.087769	340.262482
1638.242798	381.620514
1637.397461	351.977356
1636.552124	357.831757
1635.706665	408.035858
1634.860962	331.102905
1634.015137	381.294373
1633.169189	366.452850
1632.323120	360.480652
1631.476929	363.373260
1630.630493	330.819885
1629.783936	401.641144
1628.937256	383.855988
1628.090454	374.933624
1627.243530	336.497009
1626.396484	339.390656
1625.549194	374.741211
1624.701782	336.324310
1623.854248	362.814117
1623.006592	362.752045
1622.158691	359.741241
1621.310791	398.006195
1620.462646	377.304260
1619.614380	327.137512
1618.765991	391.908478
1617.917358	383.002838
1617.068726	412.393982
1616.219849	391.707184
1615.370850	415.197418
1614.521729	362.131470
1613.672363	409.167908
1612.822998	341.405396
1611.973389	376.658661
1611.123657	423.668396
1610.273804	364.763062
1609.423828	417.640991
1608.573608	411.688171
1607.723389	367.515747
1606.872925	343.935791
1606.022339	385.024506
1605.171509	396.712982
1604.320679	373.140076
1603.469604	393.639374
1602.618408	384.760590
1601.767090	416.997253
1600.915649	393.436981
1600.064087	381.627167
1599.212280	363.951172
1598.360352	396.169220
1597.508301	381.430878
1596.656128	396.033356
1595.803833	390.099304
1594.951294	395.897522
1594.098633	369.440979
1593.245850	363.514465
1592.392944	389.831696
1591.539795	395.625946
1590.686646	413.138428
1589.833252	427.715332
1588.979736	404.209503
1588.126099	377.783173
1587.272217	368.934174
1586.418335	377.653503
1585.564209	374.661652
1584.709961	392.156586
1583.855591	313.086212
1583.000977	383.245331
1582.146362	403.654785
1581.291504	386.038300
1580.436523	421.060364
1579.581421	400.523376
1578.726074	412.146698
1577.870605	388.695709
1577.015137	371.096802
1576.159424	394.405243
1575.303467	368.048309
1574.447510	405.951813
1573.591309	379.601929
1572.734985	397.053802
1571.878540	408.661621
1571.021973	391.080353
1570.165161	373.505096
1569.308350	402.615967
1568.451294	420.048798
1567.594116	408.310577
1566.736694	402.408386
1565.879272	402.339233
1565.021606	346.885040
1564.163818	387.628387
1563.305908	413.787750
1562.447876	404.976105
1561.589600	410.732452
1560.731201	416.486816
1559.872681	381.471252
1559.014038	398.874603
1558.155273	425.004913
1557.296265	416.200348
1556.437134	430.678711
1555.577881	381.143280
1554.718506	410.167603
1553.859009	407.188538
1552.999268	375.130585
1552.139404	427.400818
1551.279419	398.257385
1550.419312	357.498016
1549.558960	412.650269
1548.698608	395.146301
1547.838013	406.698242
1546.977173	441.482056
1546.116333	406.558197
1545.255249	397.777740
1544.394165	409.321198
1543.532837	412.153198
1542.671265	383.062347
1541.809692	423.617218
1540.947876	411.940308
1540.085938	432.172760
1539.223877	437.898315
1538.361694	411.727478
1537.499268	411.656525
1536.636841	420.281067
1535.774170	405.718719
1534.911377	405.648804
1534.048340	422.960846
1533.185303	396.819519
1532.322021	440.191040
1531.458618	443.010681
1530.594971	463.199280
1529.731323	448.646942
1528.867432	436.993622
1528.003418	448.492279
1527.139282	422.377930
1526.275024	439.660126
1525.410522	396.204285
1524.545898	399.027466
1523.681152	430.759674
1522.816284	407.561340
1521.951172	407.491058
1521.086060	410.310272
1520.220703	421.795532
1519.355225	424.611267
1518.489502	381.217804
1517.623779	384.039551
1516.757813	430.165558
1515.891724	424.318298
1515.025513	432.903137
1514.159058	429.942871
1513.292480	444.293793
1512.425781	447.101654
1511.558960	464.328644
1510.692017	420.995514
1509.824829	446.870117
1508.957520	472.735779
1508.090088	394.839142
1507.222534	426.467896
1506.354736	429.275299
1505.486938	417.678986
1504.618896	417.606842
1503.750610	498.162109
1502.882324	417.462585
1502.013794	431.783264
1501.145142	440.342834
1500.276367	471.919922
1499.407471	420.051239
1498.538330	440.114624
1497.669067	448.666779
1496.799683	422.709076
1495.930176	422.636017
1495.060547	457.057922
1494.190674	428.238098
1493.320679	456.899902
1492.450562	474.059448
1491.580200	450.996765
1490.709717	471.023438
1489.839233	462.327209
1488.968384	470.860565
1488.097534	490.873383
1487.226440	467.827606
1486.355347	444.789795
1485.483887	476.273132
1484.612427	467.584900
1483.740845	519.130249
1482.869019	539.113770
1481.997070	498.880707
1481.124878	495.927734
1480.252686	527.369446
1479.380249	504.353058
1478.507690	521.456665
1477.635010	550.012878
1476.762207	509.819519
1475.889160	506.867615
1475.015991	529.685181
1474.142700	558.220154
1473.269165	566.710022
1472.395630	643.877197
1471.521851	620.876221
1470.647949	663.679016
1469.773804	649.263123
1468.899658	689.186401
1468.025269	763.406189
1467.150757	809.013245
1466.276001	911.768616
1465.401245	917.326111
1464.526245	968.597107
1463.651123	1048.417603
1462.775879	1145.347656
1461.900391	1233.677002
1461.024780	1327.686035
1460.149048	1470.193115
1459.273193	1398.582153
1458.397217	1512.489868
1457.520996	1443.749390
1456.644653	1406.413208
1455.768188	1389.055786
1454.891479	1346.038330
1454.014648	1325.845947
1453.137695	1274.301880
1452.260620	1171.470337
1451.383423	1119.970825
1450.505981	1136.872437
1449.628418	1036.966919
1448.750732	971.275757
1447.872803	879.976929
1446.994873	859.893005
1446.116699	765.798279
1445.238403	845.362976
1444.359863	819.603638
1443.481201	796.698608
1442.602417	825.008911
1441.723511	804.955200
1440.844482	801.971619
1439.965210	781.928772
1439.085815	801.693237
1438.206299	790.184509
1437.326538	832.675781
1436.446777	960.394348
1435.566772	991.477600
1434.686646	925.975830
1433.806274	968.413879
1432.925781	885.902222
1432.045166	820.452820
1431.164429	735.156982
1430.283569	715.163635
1429.402466	683.827393
1428.521240	592.925720
1427.639893	694.935669
1426.758301	578.539795
1425.876709	586.945679
1424.994873	586.843689
1424.112793	527.217224
1423.230713	549.797668
1422.348389	541.201538
1421.465942	546.773499
1420.583374	532.515808
1419.700562	546.583435
1418.817627	560.646118
1417.934570	594.521301
1417.051392	543.467834
1416.167969	585.824341
1415.284546	563.085876
1414.400757	526.209839
1413.516968	548.747070
1412.633057	548.651611
1411.748901	540.073303
1410.864624	534.325134
1409.980103	537.058838
1409.095459	573.705078
1408.210815	576.430908
1407.325806	565.030029
1406.440796	584.704285
1405.555542	525.295044
1404.670166	612.737549
1403.784668	561.813599
1402.899048	575.829285
1402.013184	533.395996
1401.127197	578.450500
1400.241089	544.495178
1399.354736	566.966187
1398.468262	566.867432
1397.581665	586.506958
1396.694946	546.935242
1395.807983	622.946594
1394.920898	566.472656
1394.033691	532.560608
1393.146362	580.361755
1392.258789	563.359863
1391.371094	566.078003
1390.483276	591.321777
1389.595337	608.110718
1388.707153	551.708008
1387.818848	568.497925
1386.930420	607.792847
1386.041748	551.419556
1385.152954	585.077942
1384.264038	584.975952
1383.375000	618.616760
1382.485718	610.074646
1381.596313	593.102844
1380.706787	609.861938
1379.817139	609.755615
1378.927246	609.649292
1378.037231	643.250366
1377.147095	637.521240
1376.256714	699.185486
1375.366333	724.330872
1374.475586	676.485596
1373.584839	698.819641
1372.693970	659.413513
1371.802856	706.992371
1370.911499	681.623718
1370.020142	706.745667
1369.128540	678.581726
1368.236816	678.463318
1367.344971	669.935669
1366.453003	762.304138
1365.560791	680.910217
1364.668457	703.204224
1363.775879	700.280334
1362.883301	772.974487
1361.990479	775.639648
1361.097534	867.892761
1360.204346	881.737061
1359.311035	867.589661
1358.417603	831.061707
1357.524048	856.095825
1356.630249	850.351868
1355.736450	794.268860
1354.842285	796.926331
1353.948120	732.484985
1353.053711	682.042358
1352.159180	640.001709
1351.264526	656.655518
1350.369751	650.953186
1349.474731	628.492981
1348.579590	586.490906
1347.684204	653.404236
1346.788818	614.204285
1345.893188	616.888245
1344.997314	616.780396
1344.101440	599.930298
1343.205322	585.875977
1342.309082	638.772034
1341.412720	638.660339
1340.516113	630.183350
1339.619385	655.164551
1338.722534	666.199707
1337.825439	710.674561
1336.928223	654.820801
1336.030884	665.850159
1335.133423	727.014526
1334.235718	749.167419
1333.337891	804.726746
1332.439941	982.764099
1331.541870	999.293396
1330.643555	1063.128784
1329.745117	1177.028198
1328.846436	1210.207153
1327.947754	1271.190552
1327.048828	1220.907959
1326.149780	1073.321045
1325.250488	970.268005
1324.351074	870.030701
1323.451538	869.878296
1322.551880	783.586975
1321.651978	700.104004
1320.751953	663.871216
1319.851807	655.423279
1318.951416	608.104004
1318.050903	624.654968
1317.150269	624.545532
1316.249512	555.054260
1315.348511	488.362183
1314.447388	507.696686
1313.546021	510.381531
1312.644653	526.932007
1311.743042	493.565582
1310.841309	468.527863
1309.939331	504.480011
1309.037231	487.763275
1308.135010	457.197906
1307.232666	534.689209
1306.330078	531.825562
1305.427368	537.271118
1304.524536	559.328552
1303.621460	503.861084
1302.718262	539.756470
1301.814941	484.311859
1300.911499	484.226898
1300.007813	484.141937
1299.104004	497.887207
1298.199951	522.689819
1297.295898	470.061798
1296.391602	464.450134
1295.487061	503.066010
1294.582520	469.814331
1293.677734	494.600037
1292.772827	455.836212
1291.867676	502.712860
1290.962402	444.629456
1290.057007	433.506653
1289.151489	392.019958
1288.245728	416.793091
1287.339844	372.564148
1286.433838	366.980225
1285.527588	375.192078
1284.621216	353.059906
1283.714722	391.607056
1282.808105	383.266327
1281.901245	394.226288
1280.994263	363.837250
1280.087036	352.749878
1279.179810	366.464783
1278.272217	330.586792
1277.364624	382.862427
1276.456787	338.732391
1275.548828	360.700348
1274.640747	344.119202
1273.732544	327.543915
1272.824097	366.014130
1271.915405	343.937744
1271.006714	308.114044
1270.097778	302.558807
1269.188721	368.506805
1268.279541	307.951508
1267.370117	335.388184
1266.460571	349.072205
1265.550781	360.003265
1264.640991	357.192291
1263.730957	285.703583
1262.820679	343.333282
1261.910400	354.257629
1260.999878	321.246887
1260.089233	356.878174
1259.178345	365.049561
1258.267334	373.218048
1257.356201	397.846283
1256.444824	386.803101
1255.533447	405.934631
1254.621704	422.317078
1253.709961	422.242706
1252.797974	372.824005
1251.885864	380.980988
1250.973633	375.433105
1250.061157	353.447754
1249.148560	350.646088
1248.235840	402.624176
1247.322876	339.568726
1246.409790	328.557007
1245.496582	336.711609
1244.583130	339.389313
1243.669556	290.071991
1242.755859	325.589478
1241.841919	331.003235
1240.927856	333.679993
1240.013672	333.621155
1239.099365	330.828247
1238.184814	311.634491
1237.270142	311.579559
1236.355225	311.524628
1235.440186	300.540924
1234.525024	297.756226
1233.609741	305.897400
1232.694214	311.304962
1231.778564	324.901367
1230.862671	343.952545
1229.946777	341.162567
1229.030640	316.543030
1228.114258	343.770569
1227.197876	330.070648
1226.281128	338.194519
1225.364380	379.038269
1224.447388	381.697784
1223.530273	427.971283
1222.613037	474.228394
1221.695557	463.244843
1220.777954	490.407959
1219.860229	479.425354
1218.942261	552.875977
1218.024170	539.163147
1217.105957	558.125854
1216.187500	492.697296
1215.268921	476.280670
1214.350220	470.754333
1213.431274	410.817047
1212.512207	410.744507
1211.593018	421.550690
1210.673706	391.565002
1209.754150	399.652008
1208.834351	356.089539
1207.914551	364.179901
1206.994507	323.356354
1206.074219	312.432007
1205.153931	323.242096
1204.233398	296.026550
1203.312744	331.273926
1202.391846	279.632660
1201.470825	290.440826
1200.549683	317.528687
1199.628296	282.197815
1198.706787	309.277527
1197.785156	309.222839
1196.863281	295.608154
1195.941284	295.555878
1195.019165	303.636749
1194.096802	268.345734
1193.174438	292.689026
1192.251709	273.670013
1191.328979	298.003723
1190.406006	316.911530
1189.482788	273.524811
1188.559570	300.553284
1187.636108	268.013580
1186.712402	305.860382
1185.788696	270.625000
1184.864746	262.459778
1183.940552	259.708038
1183.016357	316.463135
1182.091919	321.815796
1181.167236	316.351105
1180.242554	305.481598
1179.317505	305.427490
1178.392456	302.670990
1177.467163	286.405762
1176.541748	326.876984
1175.616211	324.118103
1174.690430	367.268768
1173.764526	353.703583
1172.838501	410.331451
1171.912231	469.638306
1170.985840	553.211487
1170.059204	709.604126
1169.132446	728.361816
1168.205566	801.056030
1167.278564	779.340637
1166.351318	795.379700
1165.423828	819.500244
1164.496338	663.030701
1163.568604	660.218384
1162.640747	652.018433
1161.712646	641.127625
1160.784424	616.773926
1159.856079	592.428833
1158.927490	565.399963
1157.998779	578.759216
1157.069946	610.953674
1156.140869	618.918152
1155.211670	680.689148
1154.282349	656.358459
1153.352783	769.201721
1152.423096	828.224121
1151.493164	865.717041
1150.563232	825.242126
1149.632935	784.781555
1148.702637	720.151184
1147.772095	623.303772
1146.841431	545.294006
1145.910522	499.540314
1144.979492	435.006256
1144.048340	456.407013
1143.116943	394.587738
1142.185425	389.150116
1141.253784	319.314758
1140.321899	372.914856
1139.389893	313.836609
1138.457764	292.325775
1137.525391	273.503967
1136.592896	249.326981
1135.660278	289.489563
1134.727417	241.198441
1133.794434	262.591644
1132.861206	206.285339
1131.927856	219.641464
1130.994385	241.027054
1130.060669	227.596207
1129.126831	267.712646
1128.192871	264.988434
1127.258667	208.741638
1126.324341	214.055939
1125.389893	246.120560
1124.455200	238.052551
1123.520386	221.964600
1122.585327	237.967911
1121.650146	213.865692
1120.714844	243.228958
1119.779297	251.202820
1118.843628	181.688858
1117.907837	224.399261
1116.971802	211.004608
1116.035645	189.603317
1115.099365	234.959488
1114.162842	221.570084
1113.226196	229.537796
1112.289307	248.176926
1111.352417	226.788010
1110.415161	218.744781
1109.477905	234.708710
1108.540405	226.666916
1107.602661	202.630814
1106.664917	261.240570
1105.726807	269.189819
1104.788696	255.818024
1103.850342	261.101044
1102.911865	258.390747
1101.973145	298.294922
1101.034302	274.275940
1100.095337	287.539093
1099.156128	255.544769
1098.216797	279.452301
1097.277344	231.504929
1096.337646	239.445190
1095.397827	231.422440
1094.457764	218.083435
1093.517700	186.135605
1092.577271	223.322922
1091.636841	204.676193
1090.696167	228.558640
1089.755249	196.631668
1088.814209	220.507019
1087.873047	188.592850
1086.931763	185.903458
1085.990234	223.044373
1085.048584	177.872726
1084.106689	188.458374
1083.164673	185.770889
1082.222412	230.845490
1081.280151	209.580933
1080.337524	193.628845
1079.394897	222.766037
1078.452026	222.726303
1077.509033	257.149963
1076.565796	243.851288
1075.622437	172.255493
1074.678955	182.823196
1073.735229	214.580231
1072.791382	193.352600
1071.847290	219.800018
1070.903076	201.226730
1069.958740	222.368790
1069.014160	224.975861
1068.069458	203.765274
1067.124512	201.083054
1066.179565	193.111069
1065.234253	206.301010
1064.288940	200.975342
1063.343384	206.227325
1062.397583	253.772903
1061.451660	248.441574
1060.505615	219.329437
1059.559448	237.784607
1058.613037	195.476852
1057.666382	224.494095
1056.719727	221.813339
1055.772827	237.614685
1054.825684	219.094376
1053.878418	229.612091
1052.931030	255.958527
1051.983398	263.827576
1051.035645	263.780426
1050.087769	253.183929
1049.139648	274.233551
1048.191406	313.730347
1047.242920	340.033417
1046.294312	318.889038
1045.345581	363.626587
1044.396606	368.830536
1043.447510	366.130524
1042.498291	358.164337
1041.548828	387.064270
1040.599121	379.097137
1039.649414	371.132874
1038.699341	423.699982
1037.749268	389.418488
1036.798950	418.286865
1035.848511	418.212006
1034.897827	436.545715
1033.947021	386.510437
1032.996094	370.668121
1032.044922	339.061188
1031.093506	304.837616
1030.142090	304.783051
1029.190430	309.982391
1028.238525	278.408905
1027.286499	265.228882
1026.334351	254.679153
1025.381958	244.133179
1024.429443	228.341736
1023.476807	233.549118
1022.523926	233.507278
1021.570923	246.581482
1020.617737	254.405502
1019.664368	238.626312
1018.710815	233.339951
1017.757080	238.540787
1016.803223	228.014587
1015.849121	220.112564
1014.894897	217.453186
1013.940491	235.750336
1012.985962	233.089081
1012.031189	212.099213
1011.076294	198.970993
1010.121216	253.904266
1009.165955	214.602234
1008.210510	238.113419
1007.254944	232.838379
1006.299133	248.490768
1005.343201	256.291870
1004.387085	248.401611
1003.430786	298.028442
1002.474365	263.995361
1001.517700	339.735046
1000.560913	381.480103
999.603943	391.861298
998.646790	436.193909
997.689514	472.676208
996.731995	477.813354
995.774353	433.348511
994.816528	383.679504
993.858521	347.076263
992.900330	336.577423
991.942017	284.343811
990.983459	284.292725
990.024780	276.418518
989.065918	237.260056
988.106873	234.610657
987.147705	234.568512
986.188293	208.467880
985.228760	231.878845
984.269043	224.022446
983.309143	244.817749
982.349060	252.585678
981.388794	262.954315
980.428406	273.319214
979.467834	294.090668
978.507019	379.907227
977.546082	390.245483
976.585022	509.829102
975.623718	595.560547
974.662292	691.662109
973.700623	743.533081
972.738831	805.782532
971.776855	771.852783
970.814758	698.959778
969.852417	594.918213
968.889954	477.926880
967.927246	379.156372
966.964417	371.298676
966.001404	306.331177
965.038208	290.702698
964.074890	256.914185
963.111328	290.598083
962.147644	246.445084
961.183777	267.150269
960.219727	269.695404
959.255493	254.090302
958.291077	212.567886
957.326538	248.815170
956.361755	228.039505
955.396851	227.998428
954.431763	165.787186
953.466492	209.786606
952.501038	209.748825
951.535461	230.423248
950.569641	230.381744
949.603699	209.635498
948.637573	227.711105
947.671265	222.495758
946.704773	271.602844
945.738098	235.346725
944.771240	261.161926
943.804260	310.235474
942.837097	315.349213
941.869751	310.123657
940.902222	286.812653
939.934509	268.676941
938.966614	340.951538
937.998535	325.395050
937.030334	271.113647
936.061951	265.901611
935.093323	273.596985
934.124573	242.579971
933.155640	211.574158
932.186584	232.173645
931.217285	229.552521
930.247864	190.829453
929.278198	165.011917
928.308411	206.227676
927.338440	195.880936
926.368286	175.230270
925.397949	198.386688
924.427429	167.439056
923.456787	185.437485
922.485901	193.129181
921.514893	180.221359
920.543701	177.614685
919.572327	167.287979
918.600769	211.002106
917.629028	187.809418
916.657104	205.781372
915.685059	162.023560
914.712769	159.422958
913.740356	179.961151
912.767761	174.787827
911.794983	192.745865
910.822021	159.307785
909.848877	164.417038
908.875549	192.641403
907.902039	164.357620
906.928406	200.274643
905.954590	192.536972
904.980530	195.068863
904.006348	207.864761
903.031982	223.221786
902.057434	243.703857
901.082703	261.613678
900.107849	271.823883
899.132751	299.977753
898.157532	274.289032
897.182068	258.861511
896.206482	284.439911
895.230713	235.709351
894.254761	207.489166
893.278625	220.257278
892.302307	212.535431
891.325806	179.214310
890.349182	217.578003
889.372314	222.657181
888.395325	168.881775
887.418091	202.109787
886.440735	225.094193
885.463196	194.364349
884.485474	191.772202
883.507568	186.624481
882.529480	186.590683
881.551270	214.668213
880.572815	201.853790
879.594238	191.598633
878.615417	194.118118
877.636475	181.314346
876.657349	194.047806
875.677979	186.354263
874.698486	209.291519
873.718811	219.461105
872.739014	242.384033
871.758972	270.400543
870.778748	242.296188
869.798401	232.052185
868.817810	221.811890
867.837097	239.615372
866.856140	208.988297
865.875061	239.528519
864.893799	242.032806
863.912354	264.914185
862.930725	254.678986
861.948914	239.354843
860.966919	264.770081
859.984741	239.268036
859.002441	269.763947
858.019897	231.547791
857.037231	244.225891
856.054321	264.530060
855.071289	279.740631
854.088074	315.286774
853.104614	297.434357
852.121033	305.005524
851.137268	330.362671
850.153320	348.088257
849.169189	388.670319
848.184937	416.538330
847.200439	439.317352
846.215759	469.704956
845.230896	581.312988
844.245911	713.184692
843.260681	883.071899
842.275330	1030.063477
841.289795	1159.245117
840.304016	1128.600342
839.318115	996.537903
838.332031	813.818237
837.345764	648.908447
836.359314	661.462280
835.372681	529.580444
834.385864	544.684692
833.398865	521.789124
832.411743	481.174347
831.424377	470.958740
830.436829	427.836365
829.449158	488.505371
828.461243	435.272797
827.473206	414.952087
826.484924	427.525330
825.496521	381.920624
824.507935	419.783417
823.519104	346.384766
822.530151	366.544922
821.541016	394.280060
820.551697	379.046478
819.562195	414.348755
818.572510	414.273376
817.582642	431.877197
816.592590	457.050018
815.602356	542.805908
814.611938	603.288391
813.621399	729.366577
812.630615	769.606689
811.639648	1087.344604
810.648560	1238.489624
809.657227	1490.456421
808.665771	1510.356812
807.674072	1557.980835
806.682251	1340.930298
805.690186	1033.235474
804.697998	839.036011
803.705566	642.388062
802.713013	584.340698
801.720276	460.839966
800.727356	412.917969
799.734253	395.221405
798.740906	407.733765
797.747437	405.143066
796.753784	352.234131
795.759949	314.437439
794.765930	286.714691
793.771729	284.147858
792.777344	266.497192
791.782776	289.071594
790.788025	246.294373
789.793091	233.685715
788.798035	216.057068
787.802734	210.994003
786.807251	221.001038
785.811584	193.340637
784.815796	203.347214
783.819763	210.840134
782.823547	183.196701
781.827148	198.217789
780.830627	178.112610
779.833862	178.080109
778.836975	178.047623
777.839844	160.464340
776.842529	175.475845
775.845093	200.507217
774.847412	195.458862
773.849609	180.390625
772.851563	170.337830
771.853394	172.811249
770.854980	190.308075
769.856445	167.740952
768.857666	175.219742
767.858765	192.706528
766.859680	172.653534
765.860352	200.141449
764.860901	195.102264
763.861206	200.068344
762.861389	180.028610
761.861389	162.496140
760.861145	194.959747
759.860779	184.928009
758.860168	154.911377
757.859436	154.883057
756.858521	179.831329
755.857361	167.312454
754.856079	167.281876
753.854614	132.303268
752.852905	162.229050
751.851074	177.171646
750.848999	197.098602
749.846802	192.073639
748.844421	199.520538
747.841797	167.067886
746.839050	201.940659
745.836121	181.962616
744.832947	157.007507
743.829651	199.338135
742.826111	156.950058
741.822449	184.320313
740.818604	151.911911
739.814514	174.293259
738.810303	196.666382
737.805847	166.762482
736.801270	171.709030
735.796448	206.510742
734.791504	191.547180
733.786316	191.512115
732.781006	186.503632
731.775452	203.873291
730.769775	191.406937
729.763855	208.769333
728.757751	213.700897
727.751526	168.941849
726.745056	146.555054
725.738403	201.165833
724.731628	183.747467
723.724609	166.335480
722.717407	143.965515
721.710083	173.719650
720.702515	168.725311
719.694763	191.021591
718.686829	200.907959
717.678711	190.951569
716.670410	193.396011
715.661987	188.402588
714.653320	158.625732
713.644470	148.684357
712.635437	178.388504
711.626221	163.492813
710.616821	165.939545
709.607178	180.766647
708.597412	173.306076
707.587463	188.126373
706.577332	138.594009
705.567017	168.261856
704.556458	202.866776
703.545776	168.200119
702.534912	185.480789
701.523804	158.247894
700.512573	155.746689
699.501099	185.378693
698.489502	190.287186
697.477661	175.427399
696.465698	163.043427
695.453491	182.772705
694.441101	150.636322
693.428589	155.546646
692.415833	209.825989
691.402893	182.638489
690.389771	199.878387
689.376465	140.629333
688.362976	145.536957
687.349304	155.375320
686.335449	180.004990
685.321411	192.298767
684.307190	160.219528
683.292725	174.976868
682.278137	199.584808
681.263367	177.376114
680.248352	167.491089
679.233215	184.698868
678.217834	224.060104
677.202332	189.554459
676.186584	142.755035
675.170654	164.876358
674.154541	157.464874
673.138306	174.655472
672.121826	172.163864
671.105164	177.050262
670.088318	130.304688
669.071289	184.359512
668.054016	181.867920
667.036621	169.548355
666.019043	171.973923
665.001282	159.660690
663.983276	184.189972
662.965149	166.968185
661.946777	179.212265
660.928223	188.997314
659.909546	184.054413
658.890625	169.298889
657.871521	161.908249
656.852234	176.594666
655.832764	159.396393
654.813110	164.270630
653.793274	164.240387
652.773254	183.817322
651.752991	173.981674
650.732605	178.849625
649.711975	164.119415
648.691223	168.987366
647.670227	168.956223
646.649048	168.925095
645.627747	176.237183
644.606201	163.968277
643.584473	166.384888
642.562561	168.800613
641.540466	188.336975
640.518127	158.956451
639.495667	161.372177
638.473022	188.232834
637.450134	175.977463
636.427063	197.938141
635.403870	202.788101
634.380432	192.979584
633.356812	175.847702
632.333008	183.140900
631.309021	158.692825
630.284851	175.750397
629.260498	197.682724
628.235901	195.206177
627.211182	173.213516
626.186218	168.303192
625.161133	182.904495
624.135803	187.747299
623.110291	177.961334
622.084595	158.429474
621.058716	192.517197
620.032654	192.481659
619.006409	170.521881
617.979919	194.846161
616.953308	155.848145
615.926453	175.296783
614.899414	187.435547
613.872253	192.268494
612.844849	182.499664
611.817261	192.197464
610.789490	175.134949
609.761475	184.830521
608.733337	162.912582
607.705017	175.037888
606.676453	192.019974
605.647705	170.112839
604.618774	167.651657
603.589722	182.196381
602.560425	184.591537
601.530884	165.130325
600.501221	182.095352
599.471375	196.626617
598.441284	213.579544
597.411011	174.714584
596.380615	186.812988
595.349976	157.670105
594.319153	206.145859
593.288147	181.859756
592.256897	181.826111
591.225525	186.640274
590.193970	191.452637
589.162170	188.994217
588.130188	232.565216
587.098022	164.703217
586.065674	208.262573
585.033142	186.433136
584.000427	186.398621
582.967468	186.364120
581.934387	176.650162
580.901062	210.489288
579.867554	191.098572
578.833862	224.922470
577.799988	198.282013
576.765930	190.992416
575.731628	227.214706
574.697205	198.171860
573.662537	190.886307
572.627747	224.672623
571.592712	202.892517
570.557434	181.120468
569.522034	197.988358
568.486450	183.467392
567.450623	197.914978
566.414673	205.117737
565.378479	209.905121
564.342102	221.927490
563.305542	214.650925
562.268799	236.313385
561.231812	236.269562
560.194702	243.457153
559.157349	221.721832
558.119812	233.728577
557.082092	269.822113
556.044189	274.589417
555.006042	226.373840
553.967773	219.108490
552.929260	247.955902
551.890625	226.247864
550.851746	267.115479
549.812683	267.065887
548.773376	211.688629
547.733948	274.182098
546.694275	271.726532
545.654419	266.867676
544.614441	233.165405
543.574158	240.332077
542.533752	240.287445
541.493164	252.254974
540.452332	293.041840
539.411316	252.161301
538.370178	283.328644
537.328735	307.282440
536.287170	312.025757
535.245422	295.169525
534.203430	347.899445
533.161255	362.227966
532.118896	316.590790
531.076355	362.093384
530.033630	345.243408
528.990723	357.164642
527.947571	321.148773
526.904236	349.843323
525.860718	361.756989
524.817017	332.946167
523.773132	330.489441
522.729004	304.089508
521.684692	284.881287
520.640198	323.124542
519.595520	284.775330
518.550659	332.574860
517.505615	351.650452
516.460327	308.533813
515.414856	298.911255
514.369202	286.901398
513.323364	243.820816
512.277283	241.385498
511.231079	279.572754
510.184631	289.076965
509.138000	274.691437
508.091187	231.653137
507.044159	212.508163
505.996948	229.179611
504.949554	250.618530
503.901947	248.185471
502.854126	257.683075
501.806152	233.779984
500.757965	236.121506
499.709564	245.616013
