#Wave		#Intensity
3200.600830	21.049261
3200.007080	0.000000
3199.413086	29.464512
3198.819092	16.834320
3198.224854	25.247662
3197.630615	8.414616
3197.036377	25.240030
3196.442139	8.412071
3195.847656	33.643200
3195.252930	21.023821
3194.658447	50.449543
3194.063721	37.831436
3193.468750	16.811428
3192.873779	8.404444
3192.278809	42.015862
3191.683838	21.004755
3191.088623	16.801262
3190.493164	41.996803
3189.897949	20.995226
3189.302490	25.190460
3188.706787	41.977749
3188.111328	4.197140
3187.515381	41.965050
3186.919678	33.566963
3186.323730	8.390471
3185.727783	20.973003
3185.131592	0.000000
3184.535400	41.933315
3183.939209	29.348879
3183.342773	8.384125
3182.746338	16.765713
3182.149902	37.717144
3181.553223	33.521275
3180.956543	0.000000
3180.359619	33.511131
3179.762695	41.882572
3179.165771	33.500984
3178.568604	16.747957
3177.971436	41.863552
3177.374268	33.485771
3176.776855	8.370175
3176.179443	33.475632
3175.581787	20.919104
3174.984131	37.648682
3174.386475	41.825535
3173.788574	20.909601
3173.190674	4.181287
3172.592773	0.000000
3171.994629	66.880325
3171.396484	16.717548
3170.798340	8.357509
3170.199951	33.424969
3169.601563	50.129860
3169.002930	16.707422
3168.404297	50.114670
3167.805664	37.580307
3167.206787	16.699829
3166.607910	29.220272
3166.008789	33.389538
3165.409912	54.249775
3164.810547	12.517282
3164.211426	16.687180
3163.612061	45.882790
3163.012695	33.364243
3162.413086	0.000000
3161.813477	12.507798
3161.213623	12.505902
3160.614014	29.176016
3160.013916	16.669481
3159.414063	20.833693
3158.813965	37.494961
3158.213867	24.992851
3157.613525	4.164844
3157.013184	45.806332
3156.412598	41.635803
3155.812256	37.466541
3155.211426	37.460857
3154.610840	29.131805
3154.010010	49.932663
3153.409180	29.122969
3152.808105	20.798965
3152.207031	0.000000
3151.605957	29.109716
3151.004639	33.263199
3150.403320	-4.157269
3149.801758	12.469915
3149.200195	8.312016
3148.598633	33.243019
3147.996826	41.547466
3147.395020	16.616465
3146.793213	37.381371
3146.191162	37.375698
3145.589111	-8.304450
3144.986816	33.212757
3144.384766	33.207718
3143.782227	37.353012
3143.179932	0.000000
3142.577393	12.447224
3141.974609	16.593779
3141.371826	16.591259
3140.769043	8.294370
3140.166260	24.879332
3139.563232	12.437778
3138.960205	8.290592
3138.356934	33.157333
3137.753662	49.728447
3137.150391	20.717039
3136.546875	37.285007
3135.943359	33.137196
3135.339600	66.264320
3134.735840	8.281782
3134.132080	16.561049
3133.528076	37.256695
3132.924072	8.278008
3132.320068	33.107002
3131.715820	20.688732
3131.111572	62.056767
3130.507080	20.682446
3129.902588	4.135860
3129.298096	16.540928
3128.693604	41.346035
3128.088867	33.071800
3127.483887	8.266693
3126.878906	0.000000
3126.273926	20.660452
3125.668945	49.577545
3125.063721	20.654171
3124.458252	16.520824
3123.853027	20.647890
3123.247559	41.289501
3122.641846	12.384968
3122.036133	20.638474
3121.430420	37.143604
3120.824707	82.528786
3120.218750	33.006496
3119.612549	37.126659
3119.006592	16.498228
3118.400391	-12.371789
3117.793945	16.493210
3117.187500	20.613377
3116.581055	4.122048
3115.974609	57.699894
3115.367920	24.724764
3114.760986	41.201672
3114.154297	8.239080
3113.547363	16.475653
3112.940186	-8.236573
3112.333008	24.705959
3111.725830	37.053299
3111.118408	49.396881
3110.510986	20.578901
3109.903564	24.690922
3109.295898	0.000000
3108.688232	57.594616
3108.080566	28.792923
3107.472656	12.337946
3106.864746	12.336067
3106.256592	28.779776
3105.648438	8.221541
3105.040039	49.321735
3104.431885	41.095188
3103.823486	0.000000
3103.214844	20.541336
3102.606201	28.753492
3101.997559	28.749113
3101.388672	32.851124
3100.779785	41.057652
3100.170898	28.735979
3099.561768	41.045143
3098.952637	41.038891
3098.343262	20.516319
3097.733887	36.923748
3097.124512	53.326180
3096.514893	32.811111
3095.905273	41.007637
3095.295410	28.700974
3094.685791	12.298543
3094.075684	16.395557
3093.465820	32.786118
3092.855713	-4.097640
3092.245361	36.873142
3091.635254	28.674738
3091.024658	28.670368
3090.414307	32.761139
3089.803711	32.756145
3089.193115	49.126728
3088.582275	-4.093270
3087.971436	57.297039
3087.360596	24.552130
3086.749512	36.822578
3086.138428	24.544643
3085.527100	28.631050
3084.915771	49.074314
3084.304443	40.889027
3083.692871	40.882790
3083.081299	61.314831
3082.469482	32.696255
3081.857910	44.950493
3081.245850	32.686279
3080.634033	44.936779
3080.021973	32.676308
3079.409668	8.167830
3078.797607	24.499754
3078.185059	48.992031
3077.572754	24.492277
3076.960205	44.895657
3076.347656	53.050407
3075.734863	36.721600
3075.122070	24.477329
3074.509033	32.631458
3073.895996	20.391548
3073.282959	16.310749
3072.669922	36.693584
3072.056641	69.299522
3071.443115	44.834023
3070.829834	20.375990
3070.216064	12.223727
3069.602539	61.109303
3068.988770	44.806644
3068.375000	24.436256
3067.760986	24.432526
3067.146973	52.929054
3066.532715	20.354219
3065.918701	20.351110
3065.304199	24.417603
3064.689941	48.827744
3064.075439	24.410143
3063.460693	48.812828
3062.846191	16.268457
3062.231445	16.265972
3061.616455	44.724586
3061.001465	48.783005
3060.386475	36.581665
3059.771240	20.320042
3059.156006	36.570484
3058.540771	36.564896
3057.925293	44.683598
3057.309814	44.676769
3056.694092	20.304518
3056.078369	40.602829
3055.462646	40.596622
3054.846680	52.767544
3054.230713	36.525791
3053.614502	52.751411
3052.998291	48.686165
3052.382080	32.452480
3051.765625	56.783157
3051.149170	68.940430
3050.532715	44.601692
3049.916016	16.216318
3049.299316	20.267298
3048.682373	28.369877
3048.065430	60.783295
3047.448486	12.154799
3046.831299	28.356861
3046.214111	20.251802
3045.596680	16.198963
3044.979248	52.638577
3044.361816	44.533520
3043.744141	40.478825
3043.126465	56.661682
3042.508545	28.326506
3041.890869	48.552292
3041.272705	40.454052
3040.654785	56.627007
3040.036621	48.530006
3039.418213	48.522579
3038.799805	40.429295
3038.181396	28.296173
3037.562988	68.708755
3036.944336	56.575020
3036.325439	24.242725
3035.706543	40.398357
3035.087646	60.588257
3034.468750	20.192993
3033.849609	44.417786
3033.230469	52.485706
3032.611084	40.367439
3031.991699	28.252880
3031.372070	56.497105
3030.752441	20.174448
3030.132813	32.274170
3029.513184	52.437496
3028.893066	20.165178
3028.273193	56.453850
3027.653076	40.318001
3027.032959	52.405373
3026.412598	40.305649
3025.792480	60.449207
3025.171875	72.527939
3024.551270	36.258411
3023.930664	36.252853
3023.310059	48.329731
3022.689209	32.214882
3022.068115	36.236191
3021.447266	56.358768
3020.826172	52.325119
3020.204834	60.365883
3019.583496	44.261528
3018.962158	68.393692
3018.340576	36.202873
3017.718994	40.219250
3017.097412	64.340935
3016.475586	52.268993
3015.853760	44.220829
3015.231689	24.116753
3014.609619	52.244949
3013.987549	32.145809
3013.365234	64.281754
3012.742920	60.254902
3012.120361	72.294792
3011.497803	52.204899
3010.875244	44.166599
3010.252441	52.188881
3009.629639	52.180874
3009.006836	56.186169
3008.383789	60.190228
3007.760498	56.168926
3007.137451	92.263367
3006.514160	56.151691
3005.890625	68.173737
3005.267090	100.240105
3004.643555	48.107864
3004.019775	68.142349
3003.395996	64.124130
3002.772217	20.035715
3002.148193	64.104446
3001.524170	64.094604
3000.899902	44.058277
3000.275635	52.060879
2999.651367	40.040680
2999.026855	64.055252
2998.402344	44.031223
2997.777588	68.037811
2997.152832	52.020924
2996.528076	28.006964
2995.903076	52.004944
2995.278076	47.997192
2994.653076	19.995758
2994.027832	75.972206
2993.402344	23.987539
2992.777100	35.975780
2992.151367	55.953728
2991.525879	79.921616
2990.900146	55.936535
2990.274414	91.881622
2989.648438	35.948154
2989.022461	63.898006
2988.396240	31.944094
2987.770264	75.855560
2987.143799	39.917847
2986.517578	95.788101
2985.891113	43.896133
2985.264404	83.788826
2984.637695	67.818626
2984.010986	35.898457
2983.384033	87.738297
2982.757080	63.799858
2982.130127	83.724442
2981.502930	107.629158
2980.875732	83.698700
2980.248291	83.685829
2979.620850	87.657387
2978.993408	111.546783
2978.365723	99.580025
2977.738037	99.564713
2977.110107	83.621498
2976.482178	127.403633
2975.854248	95.538025
2975.226074	123.384300
2974.597900	135.303894
2973.969482	115.388512
2973.341309	127.305664
2972.712646	71.598419
2972.083984	111.358177
2971.455322	170.988037
2970.826660	166.985870
2970.197754	162.984924
2969.568604	166.934479
2968.939697	151.012711
2968.310547	158.936279
2967.681152	182.748581
2967.051758	162.859528
2966.422363	198.578613
2965.792725	194.577087
2965.163086	198.517471
2964.533203	230.244812
2963.903564	230.209366
2963.273438	226.205399
2962.643311	238.074280
2962.013184	242.004913
2961.383057	218.167557
2960.752686	277.625031
2960.122314	261.720428
2959.491699	293.398926
2958.861084	281.460999
2958.230225	321.053955
2957.599609	313.078461
2956.968506	328.879852
2956.337646	265.440430
2955.706299	221.826477
2955.075195	356.451904
2954.443848	273.237671
2953.812500	269.236206
2953.180908	304.823456
2952.549316	352.274109
2951.917725	324.517120
2951.285889	360.079346
2950.653809	348.154938
2950.021973	316.455719
2949.389893	355.957794
2948.757568	300.540253
2948.125244	347.940308
2947.492920	347.886688
2946.860352	288.543304
2946.227783	308.259033
2945.595215	272.648621
2944.962402	284.459045
2944.329590	296.265808
2943.696533	248.824905
2943.063477	229.041565
2942.430420	197.419174
2941.797119	213.179825
2941.163574	213.146942
2940.530273	205.220947
2939.896729	205.189285
2939.262939	256.447052
2938.629150	248.518021
2937.995361	212.982574
2937.361328	220.836746
2936.727295	212.916855
2936.093262	240.480072
2935.458984	252.268021
2934.824707	260.111267
2934.190186	197.023575
2933.555664	279.730286
2932.921143	275.747864
2932.286377	307.214478
2931.651367	279.600769
2931.016602	291.369904
2930.381592	279.514465
2929.746338	318.833466
2929.111084	366.011536
2928.475830	365.955017
2927.840332	342.292145
2927.204834	401.246063
2926.569336	432.649536
2925.933594	456.178131
2925.297607	479.699463
2924.661865	456.037231
2924.025879	428.451569
2923.389648	444.105927
2922.753418	432.248749
2922.117188	483.257996
2921.480713	487.111664
2920.844238	380.988159
2920.207764	494.815369
2919.571045	376.943939
2918.934082	467.181244
2918.297363	392.528595
2917.660156	396.392609
2917.023193	419.875793
2916.385986	435.504761
2915.748779	400.131714
2915.111328	407.914398
2914.473877	345.104980
2913.836182	431.314545
2913.198486	458.690887
2912.560791	458.619995
2911.922852	454.629852
2911.284912	419.292023
2910.646729	395.719116
2910.008545	470.088623
2909.370361	438.681549
2908.731934	473.859436
2908.093506	556.013489
2907.455078	524.607666
2906.816406	571.499023
2906.177490	540.100464
2905.538574	586.974915
2904.899658	598.621826
2904.260498	602.441162
2903.621338	629.727417
2902.982178	629.629944
2902.342773	617.802124
2901.703369	605.977966
2901.063721	629.337769
2900.424072	637.057007
2899.784424	629.143005
2899.144531	613.417175
2898.504639	535.192017
2897.864502	581.980042
2897.224365	597.511169
2896.583984	624.751526
2895.943848	585.613892
2895.303223	566.005798
2894.662842	546.403748
2894.021973	577.537415
2893.381348	518.922852
2892.740479	585.160706
2892.099609	612.373352
2891.458496	620.078247
2890.817383	588.788147
2890.176025	643.278137
2889.534668	697.751221
2888.893311	600.206970
2888.251709	654.669800
2887.610107	709.115784
2886.968262	689.527771
2886.326416	736.161316
2885.684570	720.469543
2885.042480	782.659180
2884.400391	720.246338
2883.758057	813.557617
2883.115723	774.511353
2882.473389	797.739807
2881.830811	805.397827
2881.188232	836.394653
2880.545410	801.258545
2879.902588	801.134399
2879.259766	867.112976
2878.616699	828.100586
2877.973633	785.213074
2877.330322	804.524292
2876.687012	835.487488
2876.043457	808.160278
2875.399902	695.376221
2874.756348	745.762756
2874.112549	741.763550
2873.468750	737.765503
2872.824707	710.474487
2872.180664	624.965332
2871.536621	613.224854
2870.892334	659.696594
2870.248047	671.234131
2869.603760	628.457031
2868.958984	682.662170
2868.314453	636.018372
2867.669678	655.307434
2867.024902	701.729248
2866.379883	662.856812
2865.734863	717.014526
2865.089844	744.029358
2864.444580	724.541138
2863.799316	674.067322
2863.153809	619.735840
2862.508301	608.021362
2861.862549	658.264893
2861.216797	584.603333
2860.571045	607.738281
2859.925049	526.366699
2859.279053	464.369110
2858.632813	413.998169
2857.986572	444.882233
2857.340332	351.982574
2856.693848	371.264618
2856.047363	301.605652
2855.400635	309.291077
2854.753906	316.974121
2854.107178	324.654785
2853.460205	355.519043
2852.813232	312.962708
2852.166016	293.598419
2851.518799	320.590576
2850.871338	301.231079
2850.223877	308.906952
2849.576416	316.580414
2848.928711	312.671112
2848.281006	331.920197
2847.633301	328.009674
2846.985352	381.975433
2846.337158	335.623199
2845.688965	385.713867
2845.040771	362.514679
2844.392578	404.873657
2843.743896	408.666046
2843.095459	454.859436
2842.446777	443.226288
2841.798096	439.303833
2841.149170	489.323792
2840.500244	496.952393
2839.851074	539.244324
2839.202148	523.755859
2838.552734	527.524963
2837.903320	504.343262
2837.253906	531.210266
2836.604492	558.068909
2835.954834	565.678406
2835.304932	504.029572
2834.655029	469.328552
2834.005127	469.255554
2833.354980	434.570709
2832.704834	396.051514
2832.054688	384.456207
2831.404297	330.580872
2830.753906	349.746277
2830.103271	276.679260
2829.452637	299.689209
2828.801758	253.543716
2828.150879	226.617447
2827.500000	215.061050
2826.848877	222.707123
2826.197754	165.084763
2825.546387	203.444885
2824.895020	172.709335
2824.243408	165.007660
2823.591797	161.145187
2822.940186	176.464874
2822.288330	172.601791
2821.636475	134.224930
2820.984619	126.535233
2820.332520	153.352158
2819.680176	130.329025
2819.028076	141.806564
2818.375488	141.784470
2817.723145	130.268143
2817.070557	134.078659
2816.417725	126.397331
2815.764893	130.207275
2815.112061	126.357956
2814.458984	130.166702
2813.805908	133.974258
2813.152832	145.435089
2812.499512	133.932495
2811.845947	107.129303
2811.192383	153.018005
2810.538818	126.220184
2809.885010	99.430702
2809.231201	107.062531
2808.577393	68.815186
2807.923340	80.271866
2807.269287	110.834343
2806.614990	106.995789
2805.960693	133.723877
2805.306152	118.422684
2804.651611	141.321167
2803.997070	99.291275
2803.342285	110.730698
2802.687500	91.624901
2802.032471	91.610611
2801.377441	103.045868
2800.722412	95.397957
2800.067139	91.567757
2799.411621	129.700745
2798.756348	102.981583
2798.100586	110.592598
2797.445068	87.697685
2796.789307	95.308693
2796.133301	114.352592
2795.477539	102.901276
2794.821289	76.211273
2794.165283	91.439255
2793.509033	91.424980
2792.852539	68.558037
2792.196045	91.396446
2791.539551	95.189766
2790.882813	102.788902
2790.226074	133.224075
2789.569092	95.145195
2788.912109	106.545982
2788.255127	91.310867
2787.597900	106.512718
2786.940430	95.085793
2786.283203	83.662430
2785.625488	106.462822
2784.968018	129.256104
2784.310303	125.434853
2783.652588	98.812027
2782.994629	106.396332
2782.336426	94.981880
2781.678467	75.973640
2781.020264	110.144562
2780.361816	91.139885
2779.703369	102.516350
2779.044922	87.315094
2778.386230	125.258606
2777.727539	83.492691
2777.068604	91.068703
2776.409668	144.169571
2775.750732	75.866867
2775.091553	98.611511
2774.432373	109.972565
2773.772949	125.121635
2773.113525	90.983330
2772.453857	140.244034
2771.794189	102.324242
2771.134521	106.097443
2770.474609	121.235260
2769.814697	90.912231
2769.154541	102.260262
2768.494385	102.244270
2767.833984	143.876846
2767.173584	87.069733
2766.513184	109.766403
2765.852539	124.887062
2765.191895	121.083664
2764.531006	102.148361
2763.870117	113.480423
2763.209229	136.155197
2762.548096	98.318932
2761.886719	120.988983
2761.225586	124.750366
2760.563965	139.849731
2759.902588	98.257408
2759.240967	117.134727
2758.579102	128.450241
2757.917236	124.652786
2757.255371	128.410034
2756.593262	105.732895
2755.931152	124.594261
2755.269043	132.124741
2754.606689	90.585640
2753.944092	150.952423
2753.281494	128.289474
2752.618896	116.951500
2751.956055	143.337463
2751.293213	109.371979
2750.630371	135.750854
2749.967285	131.959335
2749.303955	124.399307
2748.640625	113.072571
2747.977295	124.360344
2747.313721	128.108765
2746.650146	82.880920
2745.986572	128.068634
2745.322754	158.177643
2744.658691	169.449493
2743.994873	192.012680
2743.330566	143.045853
2742.666504	150.550980
2742.002197	109.132362
2741.337646	154.266403
2740.673096	142.956207
2740.008545	94.035393
2739.343750	116.585609
2738.678955	172.970886
2738.013916	150.385895
2737.348877	161.639481
2736.683594	142.821808
2736.018311	124.010017
2735.353027	154.048889
2734.687500	146.511337
2734.021973	165.268921
2733.356201	172.754059
2732.690430	153.952286
2732.024658	153.928146
2731.358643	150.150253
2730.692383	172.645706
2730.026367	165.113464
2729.359863	191.351501
2728.693604	202.575684
2728.027100	131.278458
2727.360352	165.009872
2726.693604	172.483261
2726.026855	131.216675
2725.359863	168.680679
2724.692871	149.914856
2724.025635	191.111435
2723.358398	194.828140
2722.691162	172.320923
2722.023682	209.749069
2721.355957	190.991486
2720.688477	194.705856
2720.020508	183.444016
2719.352783	187.158386
2718.684814	217.069641
2718.016602	183.357635
2717.348389	194.553055
2716.680176	220.708237
2716.011719	231.894272
2715.343262	190.721771
2714.674561	231.821442
2714.005859	145.800262
2713.337158	183.156174
2712.668213	227.974930
2711.999023	179.361923
2711.329834	164.389267
2710.660645	201.718781
2709.991455	201.687088
2709.321777	186.717957
2708.652344	145.617126
2707.982666	197.858841
2707.312988	182.897354
2706.643066	156.744522
2705.972900	194.034149
2705.302979	179.080307
2704.632813	193.973175
2703.962402	137.997681
2703.291992	167.808624
2702.621582	175.239243
2701.950928	164.027969
2701.280273	160.274857
2700.609375	134.162506
2699.938477	137.867554
2699.267334	156.473709
2698.596191	115.474335
2697.925049	126.629356
2697.253662	148.952286
2696.582031	148.928848
2695.910645	186.131790
2695.239014	178.658417
2694.567139	178.630310
2693.895264	145.114288
2693.223145	133.930588
2692.551270	133.909515
2691.878906	159.922318
2691.206543	167.334229
2690.534180	171.025848
2689.861816	137.542618
2689.189209	137.520981
2688.516357	137.499344
2687.843506	156.055771
2687.170654	159.746231
2686.497559	163.435532
2685.824463	159.695938
2685.151123	155.957535
2684.477783	141.082214
2683.804199	141.060013
2683.130615	141.037796
2682.457031	155.859344
2681.783203	122.441628
2681.109375	144.680954
2680.435303	129.821442
2679.761230	129.800995
2679.086914	159.444672
2678.412598	163.126999
2677.738281	159.394455
2677.063721	166.781876
2676.389160	181.578323
2675.714355	137.088562
2675.039551	122.248917
2674.364502	144.453232
2673.689453	162.947189
2673.014404	107.380089
2672.339111	111.065346
2671.663574	155.466980
2670.988037	181.349564
2670.312500	133.215424
2669.636719	166.493027
2668.960938	144.271210
2668.285156	110.960365
2667.609131	144.225739
2666.932861	125.715431
2666.256592	147.877197
2665.580322	166.335617
2664.903809	147.830566
2664.227295	155.197617
2663.550781	173.646149
2662.874023	136.678604
2662.197021	151.430771
2661.520020	132.942642
2660.843018	140.306213
2660.165771	158.742508
2659.488525	151.335266
2658.811035	166.073471
2658.133545	132.837814
2657.455811	173.399796
2656.778076	195.505096
2656.100342	154.904114
2655.422363	154.879669
2654.744385	151.168213
2654.066162	191.695282
2653.387939	99.518379
2652.709473	169.523071
2652.031006	180.550415
2651.352539	169.469559
2650.673828	143.658035
2649.994873	184.147888
2649.316162	165.706940
2648.636963	139.908218
2647.958008	180.379471
2647.278809	202.434799
2646.599365	150.882111
2645.919922	169.255630
2645.240479	128.761124
2644.560791	143.454025
2643.880859	132.398178
2643.201172	161.794449
2642.520996	147.062622
2641.841064	139.687424
2641.160889	180.094803
2640.480469	150.667770
2639.800049	154.318207
2639.119629	143.272842
2638.438965	135.904037
2637.758301	124.865059
2637.077393	121.173409
2636.396484	135.839615
2635.715332	165.184235
2635.034180	150.477417
2634.353027	132.105621
2633.671631	150.429855
2632.989990	135.732300
2632.308350	154.050156
2631.626709	168.694931
2630.944824	161.334854
2630.262939	128.314255
2629.581055	150.287216
2628.898926	139.268570
2628.216553	175.890366
2627.534180	164.871140
2626.851807	150.192169
2626.169189	175.806931
2625.486572	161.130859
2624.803711	157.443893
2624.120850	172.062622
2623.437988	139.092453
2622.754883	124.431450
2622.071533	135.389267
2621.388184	113.416306
2620.704834	139.004440
2620.021240	128.010147
2619.337646	135.303604
2618.653809	146.251022
2617.969971	157.194962
2617.286133	157.170090
2616.602051	149.836121
2615.917725	153.466370
2615.233398	179.015762
2614.549072	149.764984
2613.864502	182.611313
2613.179932	164.324158
2612.495117	131.438507
2611.810303	146.019669
2611.125488	142.346634
2610.440430	156.921432
2609.755127	124.057770
2609.069824	153.223557
2608.384521	127.666077
2607.698975	178.704193
2607.013428	156.797211
2606.327637	127.605423
2605.641846	189.555161
2604.956055	149.433273
2604.270020	153.053741
2603.583740	142.098816
2602.897461	149.362259
2602.211182	156.623398
2601.524658	145.673096
2600.838135	171.138763
2600.151367	149.267609
2599.464600	156.524139
2598.777832	203.813080
2598.090820	152.835587
2597.403564	163.726456
2596.716309	145.511551
2596.029053	160.037338
2595.341553	156.375320
2594.654053	196.347183
2593.966309	138.148331
2593.278564	167.205673
2592.590820	181.716476
2591.902832	178.053894
2591.214600	145.327072
2590.526367	152.569229
2589.838135	167.073120
2589.149658	185.203857
2588.461182	206.959717
2587.772461	177.884506
2587.083740	170.596848
2586.394775	137.907486
2585.705811	163.285583
2585.016846	174.143646
2584.327637	145.096680
2583.638184	119.685768
2582.948975	134.171829
2582.259277	159.530380
2581.569824	152.254822
2580.879883	137.732498
2580.190186	159.454422
2579.500244	199.286392
2578.810059	173.895050
2578.119873	163.000732
2577.429688	159.353195
2576.739258	152.085709
2576.048584	152.061554
2575.358154	133.937729
2574.667236	144.774536
2573.976563	141.132767
2573.285645	170.056061
2572.594482	155.558487
2571.903320	188.087372
2571.212158	173.591522
2570.520752	169.948029
2569.829102	180.767059
2569.137451	112.057770
2568.445801	137.339310
2567.753906	155.385590
2567.062012	155.360886
2566.370117	202.298309
2565.677979	151.699631
2564.985596	111.950974
2564.293213	140.819168
2563.600830	158.847656
2562.908203	155.212799
2562.215332	176.842285
2561.522705	144.338104
2560.829590	147.923035
2560.136719	140.684906
2559.443604	129.842346
2558.750244	155.064804
2558.056885	201.912750
2557.363525	165.830521
2556.669922	198.244095
2555.976074	133.343002
2555.282227	172.957993
2554.588379	172.930496
2553.894287	162.096542
2553.200195	176.477051
2552.505859	180.049973
2551.811523	140.416641
2551.117188	154.793716
2550.422607	187.162613
2549.727783	179.935410
2549.032959	147.523560
2548.338135	169.085464
2547.643066	154.670593
2546.947998	147.453140
2546.252686	165.408890
2545.557373	172.573120
2544.861816	133.003937
2544.166260	158.141663
2543.470703	136.555145
2542.774902	150.905350
2542.078857	172.435791
2541.382813	143.673615
2540.686768	175.972153
2539.990479	154.399948
2539.294189	190.276611
2538.597656	161.529877
2537.901123	165.093140
2537.204346	211.716171
2536.507568	182.979736
2535.810791	139.903397
2535.113770	182.921448
2534.416504	175.720062
2533.719238	168.520950
2533.021973	193.588974
2532.324463	186.389297
2531.626953	186.359604
2530.929199	204.246246
2530.231445	182.717514
2529.533447	168.359894
2528.835449	161.169952
2528.137451	150.401306
2527.439209	182.601044
2526.740723	153.933212
2526.042236	175.384293
2525.343750	146.726730
2524.645020	200.375290
2523.946289	182.455536
2523.247314	196.734406
2522.548340	160.938843
2521.849121	160.913177
2521.149902	168.038071
2520.450684	157.287140
2519.751221	178.706894
2519.051514	185.825516
2518.351807	160.784897
2517.652100	167.904099
2516.952148	150.018021
2516.252197	153.565369
2515.552002	174.965179
2514.851807	185.647705
2514.151367	164.200607
2513.450928	207.002518
2512.750244	174.853531
2512.049561	164.122009
2511.348877	185.499619
2510.647949	196.170212
2509.946777	185.440414
2509.245605	146.189285
2508.544434	167.556091
2507.843018	185.351608
2507.141602	181.758133
2506.439941	149.659271
2505.738281	174.574600
2505.036377	206.606323
2504.334473	170.957245
2503.632568	210.101379
2502.930420	167.342163
2502.228027	185.114960
2501.525635	170.848053
2500.823242	181.497055
2500.120605	192.142654
2499.417969	177.881439
2498.715088	209.866562
2498.012207	213.389526
2497.309082	206.243576
2496.605957	245.319534
2495.902588	181.294159
2495.199219	195.482071
2494.495605	209.665436
2493.791992	174.101089
2493.088379	209.598419
2492.384521	191.805176
2491.680664	184.671753
2490.976563	173.989792
2490.272461	191.713196
2489.568115	216.530289
2488.863770	177.455460
2488.159180	163.232925
2487.454590	209.330490
2486.749756	202.202194
2486.044922	177.341980
2485.339844	205.683792
2484.634766	219.833710
2483.929688	209.163147
2483.224365	180.773117
2482.519043	223.272247
2481.813477	212.606216
2481.107666	166.514893
2480.402100	162.945938
2479.696045	219.587646
2478.990234	216.011337
2478.284180	191.192551
2477.577881	180.541855
2476.871582	198.210312
2476.165039	184.022964
2475.458496	201.685196
2474.751953	208.728455
2474.045166	191.009018
2473.338379	183.905167
2472.631348	155.587158
2471.924072	176.775269
2471.217041	159.072266
2470.509521	212.062408
2469.802246	173.156570
2469.094482	169.595596
2468.386963	180.166458
2467.679199	218.990814
2466.971191	144.793304
2466.263184	183.610886
2465.554932	225.946426
2464.846680	204.731140
2464.138428	197.639786
2463.429932	190.550690
2462.721436	211.689056
2462.012695	222.237900
2461.303955	225.729309
2460.594971	190.428574
2459.885986	218.605179
2459.176758	204.468842
2458.467529	200.911316
2457.758057	225.548477
2457.048584	218.465057
2456.338867	211.383911
2455.629150	228.962524
2454.919434	214.838074
2454.209473	193.675400
2453.499512	190.123550
2452.789307	242.896683
2452.078857	214.700317
2451.368408	221.704117
2450.657959	179.445969
2449.947266	189.971146
2449.236572	196.975510
2448.525879	172.325928
2447.814697	218.010071
2447.103760	168.754913
2446.392578	179.273331
2445.681152	238.992767
2444.969727	196.785995
2444.258301	182.700531
2443.546631	210.774475
2442.834717	249.376434
2442.122803	186.124359
2441.410889	203.650574
2440.698730	221.171158
2439.986572	224.645752
2439.274170	217.590637
2438.561768	192.992966
2437.849121	171.911591
2437.136475	199.946671
2436.423584	182.378204
2435.710693	220.922729
2434.997803	185.825790
2434.284424	178.784775
2433.571289	203.291214
2432.857910	185.736267
2432.144287	213.737610
2431.430908	196.186615
2430.717041	224.177261
2430.003174	248.656693
2429.289307	210.098663
2428.575195	182.056244
2427.861084	175.025955
2427.146729	199.497543
2426.432373	202.964874
2425.717773	178.440430
2425.003174	220.390991
2424.288330	185.378510
2423.573486	216.823013
2422.858643	195.808670
2422.143555	213.257294
2421.428223	220.213943
2420.712891	206.198944
2419.997559	185.199783
2419.281982	244.564163
2418.566162	209.592712
2417.850586	220.036972
2417.134521	192.064880
2416.418457	209.491623
2415.702393	212.948898
2414.986084	171.029800
2414.269775	202.410873
2413.553223	198.889038
2412.836670	233.744247
2412.120117	216.265854
2411.403076	226.693848
2410.686279	219.683304
2409.969238	212.675003
2409.251953	230.070358
2408.534668	254.430817
2407.817383	209.087570
2407.099854	222.990845
2406.382080	191.601913
2405.664307	177.638641
2404.946533	219.400650
2404.228516	243.739258
2403.510498	254.144302
2402.792236	219.294708
2402.073975	194.897247
2401.355469	187.906372
2400.636963	212.230423
2399.918213	233.068008
2399.199463	229.552414
2398.480469	194.740387
2397.761475	201.662918
2397.042480	236.394302
2396.323242	225.928741
2395.603760	198.090210
2394.884277	208.482422
2394.164795	194.552246
2393.445068	225.783203
2392.725098	211.854706
2392.005127	222.237976
2391.285156	267.336975
2390.564941	246.465805
2389.844727	215.188980
2389.124268	194.332916
2388.403809	225.528641
2387.683105	228.961395
2386.962402	221.987381
2386.241455	253.163544
2385.520508	239.252991
2384.799316	228.813797
2384.078125	197.580063
2383.356689	207.945480
2382.635254	235.633530
2381.913818	239.060181
2381.192139	242.485703
2380.470215	301.326508
2379.748291	242.407501
2379.026367	242.368408
2378.304199	235.405609
2377.581787	238.828934
2376.859375	186.879440
2376.136963	235.291702
2375.414307	207.576843
2374.691650	214.461456
2373.968750	224.802338
2373.245850	248.971649
2372.522705	221.272415
2371.799316	224.693527
2371.076172	241.938599
2370.352783	234.988129
2369.629150	231.495056
2368.905518	231.457687
2368.181641	248.690491
2367.457764	252.103821
2366.733643	214.081009
2366.009521	252.022430
2365.285400	214.011887
2364.561035	224.331070
2363.836426	217.393463
2363.111816	241.509277
2362.387207	238.020706
2361.662354	175.899933
2360.937256	244.840744
2360.212158	258.592804
2359.487061	241.314301
2358.761719	227.488159
2358.036377	230.897629
2357.310791	268.762756
2356.584961	251.493744
2355.859375	227.341171
2355.133301	230.748428
2354.407471	251.371841
2353.681152	261.659912
2352.955078	230.636581
2352.228516	227.157516
2351.502197	264.974274
2350.775635	223.643417
2350.048828	247.688049
2349.322021	240.768890
2348.594971	261.363953
2347.867920	209.745056
2347.140869	226.900574
2346.413330	244.050537
2345.686035	247.447845
2344.958496	247.407822
2344.230713	257.674805
2343.502930	240.457581
2342.775146	236.984131
2342.047119	212.907822
2341.319092	209.439941
2340.590820	260.899353
2339.862305	274.586456
2339.133789	216.201843
2338.405273	236.754181
2337.676514	277.883850
2336.947754	267.548553
2336.218750	236.639267
2335.489746	281.177948
2334.760498	277.704010
2334.031250	270.803284
2333.301758	243.340759
2332.572266	257.008484
2331.842529	243.261978
2331.112793	263.776611
2330.382813	236.332977
2329.652832	243.143829
2328.922607	236.256454
2328.192383	232.794739
2327.462158	297.792084
2326.731689	266.942780
2326.000977	246.368805
2325.270264	260.013824
2324.539307	283.916473
2323.808350	297.550995
2323.077393	259.887482
2322.346191	249.588333
2321.614746	208.526321
2320.883301	263.179108
2320.151855	242.632309
2319.420166	259.677002
2318.688232	245.969925
2317.956299	252.761444
2317.224365	239.059921
2316.492188	228.777405
2315.760010	259.466614
2315.027588	266.251526
2314.295166	242.317871
2313.562500	259.340454
2312.829590	242.239304
2312.096924	228.554947
2311.363770	231.928604
2310.630615	296.684052
2309.897461	272.768677
2309.164063	242.042953
2308.430664	255.637711
2307.697021	241.964432
2306.963379	299.850952
2306.229492	248.699631
2305.495605	272.503326
2304.761719	272.459106
2304.027344	275.820099
2303.293213	262.156799
2302.558838	238.285690
2301.824219	241.650558
2301.089600	272.238129
2300.354736	251.779404
2299.619873	241.532913
2298.885010	248.296356
2298.149658	268.660645
2297.414551	248.215744
2296.679199	244.775787
2295.943604	261.731598
2295.208008	258.290558
2294.472412	268.442627
2293.736572	268.399048
2293.000488	227.592606
2292.264404	292.086334
2291.528320	295.434692
2290.791992	244.457977
2290.055420	278.365265
2289.318848	230.801971
2288.582275	278.274811
2287.845459	285.015686
2287.108398	257.829437
2286.371582	237.435913
2285.634277	240.788727
2284.896973	250.922104
2284.159668	220.368744
2283.422119	281.348206
2282.684570	291.470032
2281.946777	298.199921
2281.208740	274.434875
2280.470703	301.490540
2279.732666	291.280579
2278.994385	298.006073
2278.256104	274.256439
2277.517578	264.055878
2276.779053	260.628143
2276.040283	294.428070
2275.301514	307.914917
2274.562500	253.734756
2273.823486	213.102539
2273.084229	284.090485
2272.344971	267.136902
2271.605469	273.855286
2270.865967	270.430359
2270.126221	310.944336
2269.386475	277.100952
2268.646484	270.298401
2267.906494	270.254395
2267.166260	307.364380
2266.426025	273.543549
2265.685547	280.252075
2264.945068	280.206482
2264.204346	263.283691
2263.463623	323.988739
2262.722656	313.812988
2261.981689	280.024078
2261.240723	303.591125
2260.499268	313.659760
2259.758057	252.910233
2259.016602	276.470154
2258.274902	316.877594
2257.533203	279.750610
2256.791260	296.554749
2256.049316	286.398285
2255.307129	313.302368
2254.564941	272.831818
2253.822754	259.316406
2253.080322	299.680511
2252.337646	289.531738
2251.594971	249.091370
2250.852051	275.975189
2250.109131	242.280197
2249.366211	272.520813
2248.623047	248.929062
2247.879639	322.882355
2247.136230	262.299164
2246.392578	312.690338
2245.648926	319.362793
2244.905273	278.976746
2244.161377	292.373749
2243.417236	252.005234
2242.673096	295.637939
2241.928955	268.717926
2241.184570	298.899963
2240.439941	308.924866
2239.695313	271.943817
2238.950439	325.608032
2238.205566	302.061249
2237.460693	268.455109
2236.715576	301.962738
2235.970215	271.722137
2235.224854	305.218262
2234.479492	321.935974
2233.733887	305.118683
2232.988037	311.773712
2232.242188	331.833984
2231.496338	251.348358
2230.750244	247.956573
2230.003906	288.118713
2229.257568	301.470367
2228.511230	291.373810
2227.764648	291.326233
2227.017822	331.455048
2226.270996	321.358490
2225.523926	287.836639
2224.776855	334.639130
2224.029785	301.126038
2223.282471	321.148651
2222.534912	277.614441
2221.787354	250.815445
2221.039795	254.118149
2220.291992	330.968262
2219.543945	330.914185
2218.795898	250.651627
2218.047852	317.440186
2217.299561	314.047394
2216.551025	290.613403
2215.802490	297.245605
2215.053955	303.875610
2214.305176	260.422241
2213.556152	313.790924
2212.807129	313.739624
2212.058105	283.654358
2211.308838	300.290833
2210.559326	320.257874
2209.809814	286.850769
2209.060303	343.497681
2208.310547	296.760132
2207.560547	316.714661
2206.810547	336.662628
2206.060303	283.283600
2205.310059	276.572876
2204.559814	313.175903
2203.809326	279.813538
2203.058594	319.734589
2202.307861	303.032196
2201.557129	349.595337
2200.806152	296.275177
2200.054932	319.525452
2199.303711	326.128876
2198.552246	299.457092
2197.800781	272.794037
2197.049316	312.663971
2196.297607	282.681793
2195.545654	289.285767
2194.793701	342.431702
2194.041504	289.191101
2193.289307	309.084717
2192.537109	322.325897
2191.784668	348.852356
2191.031982	298.967377
2190.279297	302.239746
2189.526367	285.586395
2188.773438	322.062134
2188.020508	285.492859
2187.267090	358.467224
2186.513916	335.178345
2185.760498	355.031769
2185.006836	308.528473
2184.253174	321.745789
2183.499268	318.376678
2182.745361	285.165710
2181.991211	351.425751
2181.237061	288.387085
2180.482666	347.996338
2179.728271	341.311920
2178.973877	298.184845
2178.218994	331.262207
2177.464355	324.583740
2176.709229	311.284424
2175.954346	291.367432
2175.198975	278.077881
2174.443848	330.990814
2173.688232	314.389740
2172.932861	317.647003
2172.177002	353.986023
2171.421387	310.927368
2170.665283	360.484344
2169.909424	314.132080
2169.153076	330.611115
2168.396729	307.417908
2167.640381	327.197662
2166.883789	330.448486
2166.127197	320.482452
2165.370361	287.395874
2164.613525	323.680176
2163.856445	317.022430
2163.099365	303.763306
2162.342041	320.219635
2161.584473	326.768494
2160.826904	320.114563
2160.069336	356.357727
2159.311523	323.308563
2158.553711	283.673187
2157.795654	329.798401
2157.037354	290.174957
2156.279053	313.205627
2155.520752	326.339661
2154.762207	329.581909
2154.003662	362.480560
2153.244873	375.600006
2152.485840	326.125397
2151.726807	299.722595
2150.967773	339.190735
2150.208252	296.331573
2149.448975	289.698853
2148.689453	329.149170
2147.929688	299.476532
2147.169922	338.912262
2146.410156	355.305939
2145.650146	325.643585
2144.889893	358.477966
2144.129639	332.113098
2143.369141	345.209351
2142.608643	358.301300
2141.847900	338.522644
2141.087158	285.889618
2140.326416	361.410217
2139.565186	338.355743
2138.804199	312.024384
2138.042725	374.367706
2137.281494	377.589569
2136.519775	361.113251
2135.758301	354.489258
2134.996338	301.922668
2134.234619	298.591797
2133.472412	337.910950
2132.710449	334.575226
2131.947998	370.595917
2131.185547	347.581451
2130.423096	334.410156
2129.660400	350.745117
2128.897705	347.409943
2128.134766	294.922180
2127.371826	347.295654
2126.608643	330.859344
2125.845215	320.979004
2125.081787	334.025208
2124.318359	379.809296
2123.554688	350.283661
2122.790771	346.952881
2122.026855	363.258789
2121.262939	320.662170
2120.498779	333.695465
2119.734375	353.266449
2118.969971	353.208282
2118.205322	336.800598
2117.440674	349.822601
2116.676025	362.840332
2115.911133	405.268402
2115.145996	359.453094
2114.380859	375.729980
2113.615479	343.001282
2112.850098	339.678650
2112.084473	339.622681
2111.318848	365.687256
2110.552979	375.420593
2109.787109	359.038788
2109.020996	381.823792
2108.254883	365.446320
2107.488525	355.598969
2106.722168	352.278534
2105.955566	339.175262
2105.188965	316.294037
2104.422119	352.104370
2103.655029	384.643219
2102.887939	378.061493
2102.120850	355.188873
2101.353516	351.872253
2100.585938	368.101929
2099.818359	423.410278
2099.050781	384.262878
2098.282959	348.384277
2097.514893	358.093018
2096.746826	341.759674
2095.978760	390.518066
2095.210449	354.662079
2094.441895	413.161957
2093.673340	318.765289
2092.904541	377.251770
2092.135742	354.428101
2091.366699	354.369598
2090.597656	341.308899
2089.828369	364.002747
2089.059082	376.940613
2088.289551	402.870026
2087.520020	402.803528
2086.750244	354.018860
2085.980469	379.939178
2085.210449	383.123260
2084.440186	412.276459
2083.670166	399.225433
2082.899658	369.952728
2082.129150	382.870300
2081.358643	321.168640
2080.587891	360.038727
2079.816895	343.763977
2079.045898	363.162323
2078.274902	363.102356
2077.503662	330.627869
2076.732178	375.946045
2075.960693	366.162811
2075.188965	395.260895
2074.417236	359.563202
2073.645264	395.130310
2072.873291	327.062012
2072.101074	427.376770
2071.328857	401.408783
2070.556396	394.869202
2069.783936	420.692719
2069.011230	391.503113
2068.238525	378.498291
2067.465576	329.918304
2066.692627	394.542938
2065.919434	388.010864
2065.145996	342.686249
2064.372559	400.811981
2063.599121	384.586609
2062.825439	410.373291
2062.051514	403.843933
2061.277588	394.086487
2060.503662	374.643188
2059.729248	461.768250
2058.955078	410.034027
2058.180664	355.088837
2057.406006	435.718750
2056.631348	377.560425
2055.856445	367.818512
2055.081543	406.468994
2054.306396	358.020569
2053.531250	399.884735
2052.755859	361.126434
2051.980225	335.276184
2051.204590	412.579315
2050.428955	422.179230
2049.653076	415.664948
2048.877197	347.940948
2048.101074	354.325623
2047.324707	367.149384
2046.548340	431.490112
2045.771851	392.784149
2044.995239	415.252167
2044.218506	376.561676
2043.441528	402.242859
2042.664551	405.393646
2041.887329	405.326508
2041.110107	369.879578
2040.332642	466.292633
2039.555176	395.479248
2038.777466	376.125244
2037.999634	388.919769
2037.221802	395.282715
2036.443726	411.282928
2035.665527	424.065247
2034.887207	401.510376
2034.108765	462.463287
2033.330200	378.900146
2032.551514	398.100281
2031.772705	378.774567
2030.993774	410.805969
2030.214600	381.857849
2029.435425	433.128265
2028.656128	404.186005
2027.876587	416.948181
2027.097046	416.879028
2026.317261	413.603668
2025.537476	387.889465
2024.757446	413.466461
2023.977295	381.351532
2023.197021	454.982666
2022.416626	400.446442
2021.636230	432.410431
2020.855591	406.718597
2020.074707	419.459045
2019.293823	425.792328
2018.512817	454.529907
2017.731689	393.647186
2016.950439	409.581116
2016.168945	415.911774
2015.387451	451.029419
2014.605713	409.377197
2013.823975	428.495605
2013.041992	393.255280
2012.260010	431.549988
2011.477783	463.439697
2010.695435	428.211090
2009.912964	424.944916
2009.130371	421.679810
2008.347656	386.475616
2007.564819	453.474579
2006.781860	415.083832
2005.998779	427.784546
2005.215576	462.824310
2004.432129	434.025146
2003.648682	459.479706
2002.864990	465.783966
2002.081299	417.860016
2001.297363	462.439941
2000.513428	411.343719
1999.729248	459.098083
1998.944946	443.083527
1998.160522	446.196991
1997.375977	436.563049
1996.591309	436.490479
1995.806519	430.046844
1995.021606	461.825378
1994.236572	445.826233
1993.451416	413.912659
1992.666016	417.027252
1991.880615	455.152527
1991.094971	410.523865
1990.309326	420.001068
1989.523438	470.831940
1988.737549	461.211334
1987.951416	438.872955
1987.165161	441.979645
1986.378784	426.010223
1985.592285	457.725861
1984.805664	444.937195
1984.018921	479.816711
1983.232056	438.434998
1982.444946	457.421265
1981.657837	431.937073
1980.870605	454.093536
1980.083130	434.968262
1979.295654	450.767944
1978.507935	434.823456
1977.720093	463.311340
1976.932129	450.542877
1976.144165	517.086365
1975.355957	475.767090
1974.567627	437.632843
1973.779053	459.755035
1972.990479	466.018860
1972.201782	415.226532
1971.412964	478.540192
1970.623901	472.123260
1969.834839	506.893555
1969.045532	494.138855
1968.256226	462.386261
1967.466675	452.809723
1966.677002	484.394012
1965.887207	471.651489
1965.097290	455.748322
1964.307251	496.809448
1963.517090	493.562775
1962.726807	531.440552
1961.936401	480.747040
1961.145874	468.017761
1960.355103	461.616241
1959.564331	486.829102
1958.773315	496.230042
1957.982178	486.666779
1957.191040	445.510223
1956.399658	505.459198
1955.608154	511.692078
1954.816528	480.026093
1954.024780	502.048798
1953.232910	429.353760
1952.440918	482.942413
1951.648682	467.082062
1950.856445	495.403015
1950.063965	460.616394
1949.271484	482.620209
1948.478760	517.232056
1947.685913	488.765808
1946.893066	476.073029
1946.099976	463.384491
1945.306763	475.914154
1944.513428	460.078583
1943.719971	519.865051
1942.926270	450.474487
1942.132568	507.092896
1941.338745	503.859131
1940.544678	488.032043
1939.750610	494.246674
1938.956299	453.246094
1938.161865	534.992859
1937.367310	471.973663
1936.572632	531.668213
1935.777832	547.306580
1934.982910	496.896545
1934.187866	484.235962
1933.392700	521.881470
1932.597290	480.930847
1931.801880	493.421753
1931.006226	458.774139
1930.210571	512.107483
1929.414673	490.033203
1928.618652	524.499146
1927.822510	486.729248
1927.026245	505.485870
1926.229858	517.957947
1925.433350	511.594116
1924.636719	498.956238
1923.839844	492.597687
1923.042969	533.296875
1922.245850	486.159943
1921.448730	533.118530
1920.651367	523.622986
1919.853882	489.051056
1919.056274	473.297150
1918.258545	501.423035
1917.460693	529.539490
1916.662720	454.262634
1915.864624	451.054321
1915.066284	548.064575
1914.267944	488.478699
1913.469360	453.958710
1912.670776	513.357056
1911.871948	535.179077
1911.072998	522.572754
1910.273926	522.485291
1909.474731	500.500946
1908.675415	587.990173
1907.875977	494.079254
1907.076294	534.641846
1906.276611	568.938721
1905.476807	537.588318
1904.676758	499.998444
1903.876587	512.412598
1903.076294	506.078888
1902.275879	499.747314
1901.475342	546.507080
1900.674683	502.702301
1899.873901	546.324036
1899.072998	589.931091
1898.271851	518.053772
1897.470703	527.327820
1896.669312	489.802338
1895.867920	548.985779
1895.066284	536.418945
1894.264526	514.501709
1893.462646	554.945190
1892.660645	511.212128
1891.858521	585.925415
1891.056152	532.853516
1890.253784	517.186279
1889.451172	535.789917
1888.648560	566.845459
1887.845703	585.434509
1887.042725	557.314941
1886.239624	541.656616
1885.436401	479.316864
1884.633057	507.243805
1883.829590	553.829773
1883.025879	550.626038
1882.222168	531.871521
1881.418213	553.551147
1880.614258	572.114197
1879.810059	565.800659
1879.005737	522.189880
1878.201294	584.257324
1877.396729	556.194214
1876.592041	571.634399
1875.787231	580.857056
1874.982178	524.857605
1874.177124	558.926086
1873.371826	605.401611
1872.566406	521.489258
1871.760986	623.819885
1870.955322	549.241699
1870.149536	629.815552
1869.343506	518.037109
1868.537476	521.051636
1867.731323	555.074890
1866.924927	567.383484
1866.118530	592.087708
1865.311890	622.982422
1864.505127	542.306519
1863.698242	514.330078
1862.891235	591.690002
1862.084106	597.785278
1861.276855	566.716736
1860.469482	634.739929
1859.661865	560.334778
1858.854126	600.478882
1858.046387	587.999023
1857.238403	662.161316
1856.430298	600.176208
1855.622070	581.516296
1854.813721	599.974426
1854.005249	568.952271
1853.196533	587.406311
1852.387817	584.216431
1851.578857	602.661682
1850.769775	587.110046
1849.960693	664.249695
1849.151367	602.357666
1848.341919	611.521851
1847.532227	642.298767
1846.722534	620.578552
1845.912720	589.604797
1845.102661	629.629028
1844.292603	589.406494
1843.482300	573.880432
1842.671875	604.632446
1841.861328	555.181274
1841.050659	558.171692
1840.239868	610.493896
1839.428833	610.391174
1838.617798	597.959351
1837.806519	579.368225
1836.995117	613.164246
1836.183716	609.980286
1835.372070	622.198364
1834.560303	612.854614
1833.748291	609.672302
1832.936279	661.906433
1832.124146	581.763916
1831.311768	600.131592
1830.499390	587.722168
1829.686768	566.087280
1828.874023	652.121155
1828.061157	612.029480
1827.248169	565.801270
1826.434937	590.301880
1825.621704	537.944885
1824.808228	620.837524
1823.994751	660.681030
1823.181030	617.555908
1822.367188	648.170837
1821.553223	617.347778
1820.739136	608.031128
1819.924927	583.365845
1819.110474	610.895996
1818.296021	613.862366
1817.481323	641.377991
1816.666626	622.860229
1815.851685	601.280884
1815.036621	637.986389
1814.221436	650.145752
1813.406006	607.109192
1812.590576	649.926453
1811.774902	628.360657
1810.959229	652.771912
1810.143311	643.469421
1809.327271	695.442444
1808.511108	707.577576
1807.694824	670.707092
1806.878418	639.973206
1806.061768	615.372803
1805.245117	621.391052
1804.428223	676.375610
1803.611206	660.961426
1802.794067	630.254944
1801.976807	633.207581
1801.159424	623.925293
1800.341919	663.573242
1799.524170	639.001831
1798.706421	690.861389
1797.888428	666.293579
1797.070313	684.516357
1796.252075	666.068604
1795.433716	604.859253
1794.615234	650.572021
1793.796509	665.731201
1792.977783	668.672058
1792.158813	631.925720
1791.339844	668.446167
1790.520630	653.074524
1789.701294	607.195679
1788.881714	576.585876
1788.062134	649.693359
1787.242432	612.987305
1786.422485	692.162231
1785.602417	621.926086
1784.782349	667.543152
1783.962036	612.572998
1783.141479	636.846375
1782.320923	661.111511
1781.500244	633.585022
1780.679321	645.660156
1779.858398	669.911377
1779.037231	642.397278
1778.215942	675.772949
1777.394531	700.006714
1776.572998	678.587402
1775.751221	669.345154
1774.929443	714.861389
1774.107422	723.864868
1773.285278	662.923706
1772.463013	662.811584
1771.640625	644.459961
1770.818115	714.256958
1769.995483	683.747314
1769.172607	698.823425
1768.349731	692.629517
1767.526611	695.549622
1766.703369	677.210938
1765.880005	701.386780
1765.056519	676.981750
1764.232910	701.149353
1763.409058	655.509216
1762.585083	676.638000
1761.761108	718.995728
1760.936890	697.641418
1760.112549	694.490601
1759.288086	661.018799
1758.463379	633.621704
1757.638672	682.013123
1756.813721	694.020203
1755.988647	687.842407
1755.163574	699.844360
1754.338257	672.463806
1753.512695	696.578674
1752.687134	608.646057
1751.861328	729.645996
1751.035522	672.008118
1750.209473	708.212891
1749.383301	708.092834
1748.557007	720.074951
1747.730591	662.477661
1746.903931	653.291870
1746.077271	734.828735
1745.250366	752.845032
1744.423340	710.395935
1743.596313	746.544861
1742.768921	682.957642
1741.941528	658.670410
1741.114014	697.830566
1740.286255	736.977417
1739.458374	724.772888
1738.630493	745.785583
1737.802368	709.432739
1736.973999	724.404114
1736.145630	621.674744
1735.317139	690.967773
1734.488403	742.136353
1733.659546	723.912598
1732.830566	723.789795
1732.001465	750.804443
1731.172241	681.337402
1730.342896	720.407043
1729.513306	672.064880
1728.683594	714.136047
1727.853882	756.192932
1727.023926	734.979065
1726.193726	725.819214
1725.363525	698.595276
1724.533203	779.764893
1723.702637	680.297058
1722.871948	701.249084
1722.041138	728.212280
1721.210205	667.916016
1720.379150	715.932434
1719.547974	724.833679
1718.716553	718.696350
1717.885010	736.613770
1717.053467	745.506836
1716.221558	739.369019
1715.389648	718.208008
1714.557617	694.049622
1713.725342	732.984131
1712.893066	726.852478
1712.060547	726.728943
1711.227905	717.597900
1710.395142	777.515747
1709.562256	795.392456
1708.729126	753.243652
1707.895874	693.106384
1707.062622	746.987610
1706.229126	719.865662
1705.395508	767.726135
1704.561646	755.601868
1703.727783	740.483826
1702.893677	758.342285
1702.059570	731.241272
1701.225220	755.087891
1700.390747	751.963562
1699.556030	727.872742
1698.721313	766.682007
1697.886353	742.596802
1697.051392	754.445801
1696.216187	745.337402
1695.380859	784.117126
1694.545410	769.022156
1693.709717	718.030762
1692.874023	777.734253
1692.038086	738.721741
1691.202026	801.391602
1690.365845	789.296143
1689.529541	813.075745
1688.692993	741.207520
1687.856445	750.046021
1687.019653	794.734131
1686.182739	755.765015
1685.345703	791.476746
1684.508545	740.576599
1683.671143	767.321655
1682.833740	785.101990
1681.996094	755.121521
1681.158325	796.771118
1680.320435	760.831543
1679.482422	763.685059
1678.644287	823.207642
1677.805908	703.782227
1676.967407	787.147644
1676.128784	789.994568
1675.290039	763.034485
1674.451172	777.804932
1673.612183	738.937683
1672.772949	792.435120
1671.933594	720.814331
1671.094116	756.428162
1670.254517	795.007385
1669.414795	729.376770
1668.574829	714.369690
1667.734863	761.864380
1666.894653	800.416260
1666.054321	797.304688
1665.213867	758.500061
1664.373169	767.292664
1663.532471	785.002747
1662.691528	758.111938
1661.850464	820.404663
1661.009277	781.629028
1660.167969	763.666809
1659.326538	805.129944
1658.484863	834.697021
1657.643066	816.734863
1656.801147	783.931641
1655.959106	813.487122
1655.116943	825.221985
1654.274658	756.818970
1653.432129	804.168335
1652.589478	848.534546
1651.746704	729.733765
1650.903809	803.756409
1650.060791	788.792236
1649.217529	803.481873
1648.374146	841.881470
1647.530640	880.267944
1646.687012	782.326721
1645.843262	770.341675
1644.999390	805.758179
1644.155273	784.887634
1643.311035	784.753540
1642.466675	796.462708
1641.622192	828.890137
1640.777588	825.788696
1639.932739	810.850952
1639.087769	804.794800
1638.242798	795.782288
1637.397461	840.013184
1636.552124	822.125793
1635.706665	801.287781
1634.860962	771.588013
1634.015137	801.013794
1633.169189	836.339966
1632.323120	806.649353
1631.476929	788.785889
1630.630493	797.512207
1629.783936	791.469299
1628.937256	797.239380
1628.090454	891.574463
1627.243530	794.014893
1626.396484	731.903320
1625.549194	811.447510
1624.701782	787.706970
1623.854248	769.873901
1623.006592	808.081787
1622.158691	760.764282
1621.310791	819.597961
1620.462646	795.876160
1619.614380	837.000488
1618.765991	766.136841
1617.917358	869.121826
1617.068726	830.679321
1616.219849	842.317749
1615.370850	848.062805
1614.521729	783.146118
1613.672363	791.842957
1612.822998	788.764160
1611.973389	835.711365
1611.123657	820.857544
1610.273804	850.133301
1609.423828	814.694031
1608.573608	808.673157
1607.723389	802.654358
1606.872925	781.939453
1606.022339	781.805481
1605.171509	858.075439
1604.320679	772.723206
1603.469604	804.904419
1602.618408	804.766418
1601.767090	892.726501
1600.915649	813.298828
1600.064087	836.644165
1599.212280	801.279602
1598.360352	845.161011
1597.508301	795.136658
1596.656128	818.468933
1595.803833	856.458618
1594.951294	809.390503
1594.098633	847.368591
1593.245850	835.496948
1592.392944	756.214905
1591.539795	820.557495
1590.686646	776.465820
1589.833252	893.514893
1588.979736	811.348022
1588.126099	825.851563
1587.272217	857.918396
1586.418335	840.205872
1585.564209	886.894348
1584.709961	807.725464
1583.855591	836.847229
1583.000977	746.011902
1582.146362	801.459473
1581.291504	868.586121
1580.436523	845.044739
1579.581421	871.211426
1578.726074	827.216370
1577.870605	818.306763
1577.015137	844.464417
1576.159424	823.868713
1575.303467	817.885132
1574.447510	867.393433
1573.591309	890.604553
1572.734985	846.658813
1571.878540	779.376099
1571.021973	855.123413
1570.165161	863.730530
1569.308350	816.901978
1568.451294	840.097595
1567.594116	851.619202
1566.736694	898.128906
1565.879272	889.228027
1565.021606	822.030090
1564.163818	818.974304
1563.305908	815.919495
1562.447876	885.703125
1561.589600	815.638916
1560.731201	862.098572
1559.872681	844.478333
1559.014038	812.306641
1558.155273	832.543884
1557.296265	814.937744
1556.437134	861.357422
1555.577881	869.937683
1554.718506	831.971130
1553.859009	878.363831
1552.999268	878.212708
1552.139404	883.876526
1551.279419	851.747559
1550.419312	892.291809
1549.558960	868.890320
1548.698608	883.268188
1547.838013	865.686218
1546.977173	816.160950
1546.116333	879.908142
1545.255249	847.818298
1544.394165	899.926086
1543.532837	841.721375
1542.671265	888.008179
1541.809692	873.347839
1540.947876	893.504333
1540.085938	846.942627
1539.223877	864.196655
1538.361694	843.751343
1537.499268	898.686829
1536.636841	915.922913
1535.774170	880.989197
1534.911377	869.247437
1534.048340	898.067566
1533.185303	895.016296
1532.322021	915.134033
1531.458618	909.185303
1530.594971	911.923584
1529.731323	894.399414
1528.867432	888.457214
1528.003418	911.452026
1527.139282	902.615906
1526.275024	890.890259
1525.410522	864.708618
1524.545898	876.125488
1523.681152	922.230469
1522.816284	832.465698
1521.951172	916.132385
1521.086060	872.631714
1520.220703	863.814148
1519.355225	866.553589
1518.489502	834.635986
1517.623779	872.029663
1516.757813	920.958496
1515.891724	900.593933
1515.025513	946.614807
1514.159058	914.710693
1513.292480	853.967285
1512.425781	963.431946
1511.558960	862.324585
1510.692017	928.496948
1509.824829	902.389343
1508.957520	902.233521
1508.090088	884.785522
1507.222534	873.106567
1506.354736	887.361023
1505.486938	861.282898
1504.618896	907.214844
1503.750610	884.021790
1502.882324	906.901489
1502.013794	866.445068
1501.145142	909.466248
1500.276367	840.247681
1499.407471	877.504272
1498.538330	897.488647
1497.669067	908.837830
1496.799683	925.934204
1495.930176	922.899048
1495.060547	911.241272
1494.190674	902.461487
1493.320679	928.167725
1492.450562	893.530273
1491.580200	901.993530
1490.709717	962.151550
1489.839233	916.039612
1488.968384	861.330322
1488.097534	909.981628
1487.226440	961.486206
1486.355347	929.754150
1485.483887	949.677185
1484.612427	981.067688
1483.740845	960.821106
1482.869019	917.640503
1481.997070	923.216003
1481.124878	948.855957
1480.252686	1011.746826
1479.380249	945.661987
1478.507690	991.340637
1477.635010	1008.356995
1476.762207	948.035217
1475.889160	1005.144287
1475.015991	979.201782
1474.142700	1056.324341
1473.269165	1001.760193
1472.395630	995.863342
1471.521851	1030.025146
1470.647949	1061.314209
1469.773804	1115.474121
1468.899658	1146.737549
1468.025269	1252.329346
1467.150757	1280.699463
1466.276001	1309.059692
1465.401245	1454.576294
1464.526245	1505.754272
1463.651123	1591.195068
1462.775879	1656.612549
1461.900391	1790.545044
1461.024780	1755.971802
1460.149048	1861.293091
1459.273193	2029.371216
1458.397217	1943.406738
1457.520996	1988.722046
1456.644653	2016.904907
1455.768188	1959.509888
1454.891479	1882.172241
1454.014648	1847.630493
1453.137695	1673.412109
1452.260620	1658.870483
1451.383423	1630.084717
1450.505981	1598.459717
1449.628418	1507.020508
1448.750732	1481.124268
1447.872803	1446.693481
1446.994873	1395.190674
1446.116699	1363.633423
1445.238403	1334.933350
1444.359863	1292.014038
1443.481201	1300.325928
1442.602417	1311.479736
1441.723511	1214.543701
1440.844482	1291.117432
1439.965210	1322.170532
1439.085815	1270.769043
1438.206299	1355.820190
1437.326538	1338.533447
1436.446777	1412.177490
1435.566772	1488.636841
1434.686646	1397.484985
1433.806274	1411.442017
1432.925781	1408.357422
1432.045166	1291.716431
1431.164429	1257.430664
1430.283569	1135.180420
1429.402466	1183.219971
1428.521240	1069.535767
1427.639893	1046.658203
1426.758301	1003.936646
1425.876709	1000.926758
1424.994873	1017.762756
1424.112793	935.385376
1423.230713	986.234924
1422.348389	966.228943
1421.465942	980.226074
1420.583374	1016.878601
1419.700562	951.564941
1418.817627	914.589417
1417.934570	979.544617
1417.051392	1007.679932
1416.167969	931.092834
1415.284546	945.078796
1414.400757	947.743469
1413.516968	1006.979126
1412.633057	859.742676
1411.748901	924.628174
1410.864624	910.331726
1409.980103	932.786377
1409.095459	949.580872
1408.210815	972.020752
1407.325806	932.299500
1406.440796	988.630432
1405.555542	926.326721
1404.670166	889.457703
1403.784668	911.888367
1402.899048	914.552368
1402.013184	948.259583
1401.127197	902.947144
1400.241089	905.611145
1399.354736	939.302185
1398.468262	1004.004028
1397.581665	950.254028
1396.694946	947.269287
1395.807983	1009.117126
1394.920898	907.483582
1394.033691	949.592224
1393.146362	915.619324
1392.258789	935.177368
1391.371094	906.851379
1390.483276	943.299011
1389.595337	1002.256531
1388.707153	937.340637
1387.818848	928.734253
1386.930420	908.875366
1386.041748	934.037231
1385.152954	964.816040
1384.264038	939.336426
1383.375000	1001.034363
1382.485718	972.745789
1381.596313	927.601563
1380.706787	1008.942139
1379.817139	1087.444336
1378.927246	1031.065796
1378.037231	1042.121826
1377.147095	1070.024658
1376.256714	1089.493896
1375.366333	1125.801147
1374.475586	1091.920776
1373.584839	1100.149780
1372.693970	1083.121704
1371.802856	1077.321777
1370.911499	1057.498535
1370.020142	1062.923096
1369.128540	1093.582153
1368.236816	1031.712769
1367.344971	1073.578857
1366.453003	1048.168213
1365.560791	1148.860840
1364.668457	1103.834473
1363.775879	1128.851807
1362.883301	1218.275024
1361.990479	1265.664673
1361.097534	1212.250244
1360.204346	1231.632690
1359.311035	1368.552734
1358.417603	1301.157227
1357.524048	1275.750610
1356.630249	1303.499878
1355.736450	1292.085327
1354.842285	1154.844116
1353.948120	1146.255127
1353.053711	1171.212158
1352.159180	1064.806274
1351.264526	1131.682983
1350.369751	1064.434204
1349.474731	1117.320923
1348.579590	1064.062134
1347.684204	1055.499146
1346.788818	1094.400269
1345.893188	1063.504150
1344.997314	1068.899902
1344.101440	1113.359009
1343.205322	1104.794678
1342.309082	1018.130127
1341.412720	1070.941406
1340.516113	1079.119263
1339.619385	1140.265137
1338.722534	1126.128418
1337.825439	1142.653198
1336.928223	1184.250366
1336.030884	1186.829102
1335.133423	1272.971802
1334.235718	1370.224365
1333.337891	1308.725098
1332.439941	1444.913818
1331.541870	1578.271118
1330.643555	1686.534180
1329.745117	1794.759399
1328.846436	1825.048096
1327.947754	1874.797363
1327.048828	1721.508057
1326.149780	1640.568481
1325.250488	1531.855835
1324.351074	1481.553833
1323.451538	1342.336182
1322.551880	1364.330566
1321.651978	1255.742065
1320.751953	1174.968750
1319.851807	1191.426270
1318.951416	1138.459595
1318.050903	1091.063965
1317.150269	1110.303101
1316.249512	1099.007446
1315.348511	1168.184570
1314.447388	1129.139648
1313.546021	1045.727295
1312.644653	1064.957397
1311.743042	1017.632385
1310.841309	984.185730
1309.939331	1036.678711
1309.037231	1008.783142
1308.135010	1019.689819
1307.232666	1072.148804
1306.330078	1038.721802
1305.427368	1113.314453
1304.524536	1074.353882
1303.621460	1040.943726
1302.718262	1024.153320
1301.814941	1106.998535
1300.911499	1128.940430
1300.007813	1037.447021
1299.104004	1012.370667
1298.199951	1103.456299
1297.295898	1064.551758
1296.391602	1125.185791
1295.487061	1152.629272
1294.582520	1119.263550
1293.677734	1080.383301
1292.772827	1071.905762
1291.867676	1055.144653
1290.962402	1010.772583
1290.057007	1024.401001
1289.151489	955.203613
1288.245728	966.076721
1287.339844	999.023865
1286.433838	974.015198
1285.527588	1004.190552
1284.621216	888.166382
1283.714722	973.502014
1282.808105	874.067810
1281.901245	926.293945
1280.994263	928.887512
1280.087036	923.212585
1279.179810	889.985901
1278.272217	920.133301
1277.364624	906.199524
1276.456787	875.747131
1275.548828	952.689453
1274.640747	919.486572
1273.732544	1001.898987
1272.824097	880.635498
1271.915405	833.705139
1271.006714	916.089050
1270.097778	893.923706
1269.188721	921.267029
1268.279541	877.111938
1267.370117	945.684753
1266.460571	882.300598
1265.550781	827.183044
1264.640991	851.766235
1263.730957	865.352173
1262.820679	873.439880
1261.910400	919.971313
1260.999878	947.266418
1260.089233	905.921509
1259.178345	905.762085
1258.267334	957.743408
1257.356201	891.724426
1256.444824	919.000305
1255.533447	858.496887
1254.621704	904.965149
1253.709961	956.900696
1252.797974	932.060059
1251.885864	912.709839
1250.973633	890.625977
1250.061157	890.469177
1249.148560	879.354614
1248.235840	890.155518
1247.322876	854.398743
1246.409790	887.103943
1245.496582	919.797607
1244.583130	873.106323
1243.669556	862.006409
1242.755859	875.534729
1241.841919	880.851563
1240.927856	812.319275
1240.013672	896.948730
1239.099365	874.917664
1238.184814	861.095276
1237.270142	882.808716
1236.355225	844.395691
1235.440186	885.229675
1234.525024	874.146729
1233.609741	884.917480
1232.694214	901.145935
1231.778564	860.033020
1230.862671	870.800476
1229.946777	900.669189
1229.030640	927.798523
1228.114258	938.548218
1227.197876	911.104065
1226.281128	943.671814
1225.364380	946.232239
1224.447388	962.423706
1223.530273	986.787292
1222.613037	1038.396729
1221.695557	991.888916
1220.777954	1046.203613
1219.860229	1070.535034
1218.942261	1132.987183
1218.024170	1116.448853
1217.105957	1184.315918
1216.187500	1080.667603
1215.268921	1064.147095
1214.350220	990.488892
1213.431274	984.872681
1212.512207	941.176147
1211.593018	962.767334
1210.673706	940.843689
1209.754150	959.708557
1208.834351	937.793030
1207.914551	875.118896
1206.994507	923.875305
1206.074219	866.659241
1205.153931	904.534607
1204.233398	879.932190
1203.312744	836.330872
1202.391846	874.191406
1201.470825	912.038452
1200.549683	873.882324
1199.628296	917.142883
1198.706787	927.832581
1197.785156	859.856506
1196.863281	870.552490
1195.941284	889.379211
1195.019165	859.400452
1194.096802	845.695618
1193.174438	802.184692
1192.251709	875.202148
1191.328979	869.629089
1190.406006	826.136902
1189.482788	869.321411
1188.559570	852.921448
1187.636108	860.892151
1186.712402	868.859985
1185.788696	814.581238
1184.864746	887.492859
1183.940552	822.408752
1183.016357	892.588379
1182.091919	849.161011
1181.167236	930.126343
1180.242554	927.258301
1179.317505	921.688293
1178.392456	889.096069
1177.467163	878.130859
1176.541748	918.497253
1175.616211	921.035583
1174.690430	910.070435
1173.764526	961.209717
1172.838501	977.236755
1171.912231	1028.345947
1170.985840	1117.217285
1170.059204	1141.302368
1169.132446	1146.495483
1168.205566	1219.115601
1167.278564	1302.496582
1166.351318	1172.848022
1165.423828	1283.164917
1164.496338	1199.384766
1163.568604	1207.256470
1162.640747	1209.736694
1161.712646	1109.851074
1160.784424	1128.507690
1159.856079	1101.379028
1158.927490	1179.262695
1157.998779	1168.286011
1157.069946	1205.758789
1156.140869	1248.600098
1155.211670	1288.735596
1154.282349	1355.756836
1153.352783	1473.855103
1152.423096	1519.307251
1151.493164	1621.203003
1150.563232	1551.025146
1149.632935	1478.184448
1148.702637	1348.939819
1147.772095	1356.760376
1146.841431	1214.152222
1145.910522	1227.365112
1144.979492	1057.978149
1144.048340	1055.105591
1143.116943	1041.496948
1142.185425	1011.790283
1141.253784	1035.760498
1140.321899	981.919678
1139.389893	925.415649
1138.457764	906.478088
1137.525391	879.502991
1136.592896	930.284485
1135.660278	897.953735
1134.727417	887.074280
1133.794434	902.993713
1132.861206	859.968811
1131.927856	798.209229
1130.994385	865.019348
1130.060669	878.253601
1129.126831	875.420410
1128.192871	819.055115
1127.258667	859.052124
1126.324341	874.953613
1125.389893	877.473328
1124.455200	847.895081
1123.520386	893.206909
1122.585327	850.267334
1121.650146	876.849365
1120.714844	849.964966
1119.779297	841.796692
1118.843628	863.022095
1117.907837	860.197144
1116.971802	819.979980
1116.035645	825.174988
1115.099365	889.108032
1114.162842	819.542358
1113.226196	792.706116
1112.289307	901.976318
1111.352417	875.134888
1110.415161	826.961975
1109.477905	856.153381
1108.540405	909.334351
1107.602661	901.173889
1106.664917	925.004944
1105.726807	860.874329
1104.788696	908.686951
1103.850342	932.503784
1102.911865	958.975952
1101.973145	934.835022
1101.034302	929.342773
1100.095337	889.241272
1099.156128	894.406677
1098.216797	854.325562
1097.277344	888.766052
1096.337646	864.663208
1095.397827	885.789368
1094.457764	890.950623
1093.517700	906.746338
1092.577271	837.460938
1091.636841	901.106873
1090.696167	858.423706
1089.755249	852.956299
1088.814209	866.087769
1087.873047	834.058533
1086.931763	876.402039
1085.990234	815.174072
1085.048584	815.028748
1084.106689	883.896301
1083.164673	822.699646
1082.222412	862.353882
1081.280151	835.670776
1080.337524	824.911926
1079.394897	867.196411
1078.452026	832.572144
1077.509033	848.329773
1076.565796	872.033386
1075.622437	818.876099
1074.678955	818.729919
1073.735229	837.127808
1072.791382	863.465027
1071.847290	815.643433
1070.903076	889.633972
1069.958740	892.122375
1069.014160	865.495361
1068.069458	878.572327
1067.124512	830.790527
1066.179565	849.159668
1065.234253	806.689880
1064.288940	893.811401
1063.343384	914.803223
1062.397583	888.205139
1061.451660	845.758545
1060.505615	866.747620
1059.559448	866.592773
1058.613037	858.513184
1057.666382	871.565308
1056.719727	947.987976
1055.772827	910.856262
1054.825684	902.774414
1053.878418	810.240356
1052.931030	862.870483
1051.983398	912.843445
1051.035645	899.491211
1050.087769	878.231750
1049.139648	872.800964
1048.191406	930.645508
1047.242920	885.668457
1046.294312	959.302551
1045.345581	977.575806
1044.396606	1014.283997
1043.447510	987.762207
1042.498291	1056.058105
1041.548828	1008.473572
1040.599121	997.762634
1039.649414	989.687622
1038.699341	1000.037231
1037.749268	1057.744751
1036.798950	1075.970703
1035.848511	1096.820190
1034.897827	1083.474854
1033.947021	1064.875610
1032.996094	1088.344727
1032.044922	1017.183533
1031.093506	974.954834
1030.142090	919.604004
1029.190430	971.978699
1028.238525	937.660156
1027.286499	979.508667
1026.334351	876.936462
1025.381958	939.781494
1024.429443	900.243896
1023.476807	837.103027
1022.523926	902.544983
1021.570923	881.397644
1020.617737	873.371460
1019.664368	860.103638
1018.710815	880.923828
1017.757080	875.523315
1016.803223	857.020386
1015.849121	875.209473
1014.894897	911.731384
1013.940491	874.895691
1012.985962	898.309631
1012.031189	871.963440
1011.076294	942.494141
1010.121216	916.149414
1009.165955	905.516724
1008.210510	934.137268
1007.254944	907.808044
1006.299133	962.574768
1005.343201	980.708618
1004.387085	909.934326
1003.430786	988.199585
1002.474365	974.953186
1001.517700	1019.205139
1000.560913	1102.634277
999.603943	1118.110840
998.646790	1177.984741
997.689514	1190.830688
996.731995	1159.284912
995.774353	1156.466187
994.816528	1127.547852
993.858521	1064.715088
992.900330	986.250122
991.942017	1014.768250
990.983459	1001.545044
990.024780	946.603027
989.065918	891.680664
988.106873	948.869751
987.147705	899.179260
986.188293	899.017761
985.228760	935.331543
984.269043	833.571899
983.309143	882.906555
982.349060	864.520081
981.388794	885.192749
980.428406	929.285339
979.467834	965.554321
978.507019	988.799683
977.546082	1019.841553
976.585022	1087.288574
975.623718	1141.707764
974.662292	1250.712280
973.700623	1315.481567
972.738831	1377.628174
971.776855	1335.799072
970.814758	1262.804688
969.852417	1189.836426
968.889954	1077.932983
967.927246	1059.560303
966.964417	1004.843262
966.001404	955.337952
965.038208	988.908325
964.074890	916.067749
963.111328	939.254517
962.147644	949.462097
961.183777	933.729065
960.219727	928.374512
959.255493	920.429138
958.291077	847.679260
957.326538	914.914063
956.361755	925.114807
955.396851	891.266602
954.431763	836.707153
953.466492	909.075317
952.501038	934.806519
951.535461	934.638123
950.569641	895.641357
949.603699	942.065674
948.637573	897.906311
947.671265	921.028992
946.704773	874.302551
945.738098	946.559326
944.771240	990.346680
943.804260	941.047607
942.837097	943.462830
941.869751	935.539673
940.902222	1023.223511
939.934509	1038.539673
938.966614	1035.769409
937.998535	1020.087708
937.030334	1027.649902
936.061951	960.343750
935.093323	911.129578
934.124573	923.868408
933.155640	959.824219
932.186584	882.259827
931.217285	959.477966
930.247864	899.992981
929.278198	925.613708
928.308411	881.623291
927.338440	902.083252
926.368286	858.112915
925.397949	930.098633
924.427429	886.139038
923.456787	963.244690
922.485901	911.569702
921.514893	854.764160
920.543701	898.369934
919.572327	936.812683
918.600769	828.569275
917.629028	908.174316
916.657104	946.594299
915.685059	866.697449
914.712769	853.684204
913.740356	894.664001
912.767761	927.917725
911.794983	917.470276
910.822021	945.568787
909.848877	878.603516
908.875549	950.364197
907.902039	945.056274
906.928406	885.830139
905.954590	929.311768
904.980530	890.643372
904.006348	1011.095215
903.031982	977.557495
902.057434	961.988892
901.082703	1051.584351
900.107849	979.591675
899.132751	1040.948486
898.157532	1063.831299
897.182068	1040.572021
896.206482	1009.633484
895.230713	1019.699097
894.254761	988.775513
893.278625	952.740784
892.302307	944.886414
891.325806	919.113403
890.349182	924.066589
889.372314	941.814331
888.395325	905.820435
887.418091	926.123291
886.440735	941.303040
885.463196	936.017761
884.485474	917.949585
883.507568	912.670410
882.529480	961.069824
881.551270	899.562073
880.572815	976.052490
879.594238	940.110657
878.615417	929.723633
877.636475	975.522278
876.657349	878.321655
875.677979	919.007324
874.698486	900.974487
873.718811	969.711853
872.739014	989.947388
871.758972	977.013306
870.778748	966.634277
869.798401	981.759277
868.817810	958.635254
867.837097	968.657898
866.856140	968.482300
865.875061	955.565857
864.893799	924.820068
863.912354	906.821655
862.930725	1021.262756
861.948914	934.502380
860.966919	962.337463
859.984741	1005.434814
859.002441	987.437866
858.019897	992.347717
857.037231	997.255737
856.054321	979.269897
855.071289	1042.669678
854.088074	1014.511475
853.104614	999.074341
852.121033	1080.227905
851.137268	1120.691772
850.153320	1100.162109
849.169189	1143.148071
848.184937	1137.860718
847.200439	1155.430054
846.215759	1249.161255
845.230896	1353.012329
844.245911	1436.521484
843.260681	1641.803223
842.275330	1775.971436
841.289795	1892.334473
840.304016	2079.668213
839.318115	1790.218262
838.332031	1584.537109
837.345764	1406.813232
836.359314	1378.679932
835.372681	1345.489014
834.385864	1274.308960
833.398865	1266.478516
832.411743	1258.650757
831.424377	1250.825928
830.436829	1296.166992
829.449158	1245.309082
828.461243	1219.776123
827.473206	1184.131592
826.484924	1156.089233
825.496521	1138.174072
824.507935	1145.553589
823.519104	1157.987061
822.530151	1129.969604
821.541016	1177.785278
820.551697	1147.247314
819.562195	1177.356812
818.572510	1167.038452
817.582642	1197.133301
816.592590	1217.116577
815.602356	1300.209473
814.611938	1259.585449
813.621399	1388.067871
812.630615	1476.130859
811.639648	1647.415283
810.648560	1876.652222
809.657227	1989.797119
808.665771	2176.023193
807.674072	2099.996826
806.682251	1905.532471
805.690186	1872.424316
804.697998	1587.365479
803.705566	1428.368652
802.713013	1367.659546
801.720276	1231.424805
800.727356	1221.129395
799.734253	1183.146851
798.740906	1099.874390
797.747437	1152.518799
796.753784	1167.404541
795.759949	1179.769287
794.765930	1106.618042
793.771729	1101.387207
792.777344	998.107361
791.782776	1048.198730
790.788025	1030.415161
789.793091	1025.201904
788.798035	984.818298
787.802734	1062.505493
786.807251	1052.266235
785.811584	1011.899719
784.815796	1019.246521
783.819763	1006.510620
782.823547	893.397583
781.827148	1031.234375
780.830627	978.364990
779.833862	1050.923462
778.836975	975.500305
777.839844	977.829590
776.842529	1065.389038
775.845093	967.447327
774.847412	1017.388428
773.849609	1022.213562
772.851563	984.452454
771.853394	1011.822388
770.854980	999.117371
769.856445	963.884583
768.857666	968.714905
767.858765	1003.575500
766.859680	978.369995
765.860352	1013.216064
764.860901	952.999512
763.861206	1020.348511
762.861389	1000.158936
761.861389	982.476624
760.861145	949.803833
759.860779	1034.597290
758.860168	989.433899
757.859436	964.271973
756.858521	976.584045
755.857361	988.891541
754.856079	1011.181458
753.854614	908.648804
752.852905	980.861816
751.851074	1010.627014
750.848999	1010.442261
749.846802	1035.202148
748.844421	1002.590698
747.841797	1052.278320
746.839050	1019.675659
745.836121	997.055420
744.832947	1094.068115
743.829651	954.331360
742.826111	989.034546
741.822449	934.055664
740.818604	1008.595520
739.814514	1008.410950
738.810303	1053.036499
737.805847	1025.464844
736.801270	1007.857361
735.796448	1042.506104
734.791504	982.612183
733.786316	1017.252686
732.781006	1027.013306
731.775452	1039.256592
730.769775	1036.580444
729.763855	1056.273438
728.757751	1001.412292
727.751526	1033.526611
726.745056	1053.209229
725.738403	1030.664429
724.731628	1018.060303
723.724609	1072.491455
722.717407	938.258057
721.710083	1029.909424
720.702515	1012.351868
719.694763	1029.531982
718.686829	1011.980835
717.678711	1056.433350
716.670410	1028.965942
715.661987	1046.130127
714.653320	996.367859
713.644470	976.360596
712.635437	1005.912964
711.626221	1025.545898
710.616821	1035.264648
709.607178	970.692078
708.597412	1049.739746
707.587463	992.614197
706.577332	1022.130798
705.567017	1009.571106
704.556458	1031.651733
703.545776	1021.568359
702.534912	1073.315552
701.523804	974.213623
700.512573	1006.173035
699.501099	1035.648926
698.489502	1052.757690
697.477661	1025.385498
696.465698	1030.138062
695.453491	1037.358643
694.441101	1047.045898
693.428589	1088.826538
692.415833	1056.535645
691.402893	999.575562
690.389771	1009.262512
689.376465	1031.281738
688.362976	1105.094116
687.349304	1016.105286
686.335449	1030.713501
685.321411	1050.247070
684.307190	1106.747192
683.292725	1074.505859
682.278137	1079.236328
681.263367	1061.793091
680.248352	1093.618286
679.233215	1125.431763
678.217834	1107.989502
677.202332	1088.091797
676.186584	1078.046631
675.170654	1058.161621
674.154541	1060.427490
673.138306	1057.772583
672.121826	1074.794434
671.105164	1067.219604
670.088318	1059.647583
669.071289	990.625122
668.054016	1064.173096
667.036621	1142.608521
666.019043	1105.546631
665.001282	1115.168579
663.983276	1073.213623
662.965149	1087.748535
661.946777	1090.003296
660.928223	1062.803101
659.909546	1077.331787
658.890625	1067.319092
657.871521	1103.919922
656.852234	1086.547729
655.832764	1074.086426
654.813110	1132.731812
653.793274	1014.858521
652.773254	1129.863770
651.752991	1024.286499
650.732605	1063.297729
649.711975	1119.441406
648.691223	1104.540527
647.670227	1131.272095
646.649048	1128.615479
645.627747	1077.005005
644.606201	1137.988770
643.584473	1159.800537
642.562561	1154.693970
641.540466	1076.211304
640.518127	1056.448975
639.495667	1119.825073
638.473022	1100.062012
637.450134	1187.847900
636.427063	1126.536865
635.403870	1160.534302
634.380432	1177.419800
633.356812	1123.471436
632.333008	1128.147949
631.309021	1188.975464
630.284851	1139.936646
629.260498	1212.942139
628.235901	1200.517944
627.211182	1190.537964
626.186218	1151.291382
625.161133	1138.885376
624.135803	1138.675171
623.110291	1175.032349
622.084595	1179.690186
621.058716	1196.531006
620.032654	1179.254761
619.006409	1235.065552
617.979919	1212.917358
616.953308	1166.426025
615.926453	1180.818604
614.899414	1148.955566
613.872253	1214.455444
612.844849	1167.997803
611.817261	1238.335571
610.789490	1225.944702
609.761475	1233.014038
608.733337	1154.977295
607.705017	1186.367920
606.676453	1239.622559
605.647705	1200.510620
604.618774	1205.148193
603.589722	1229.218262
602.560425	1197.416138
601.530884	1199.623169
600.501221	1238.248413
599.471375	1274.431763
598.441284	1164.979370
597.411011	1189.029785
596.380615	1205.792969
595.349976	1200.718506
594.319153	1144.715820
593.288147	1180.875977
592.256897	1168.535767
591.225525	1153.776245
590.193970	1146.292358
589.162170	1182.425293
588.130188	1172.516357
587.098022	1162.610962
586.065674	1164.817383
585.033142	1147.653320
584.000427	1135.337036
582.967468	1103.662842
581.934387	1246.230591
580.901062	1151.642578
579.867554	1238.512207
578.833862	1189.912476
577.799988	1146.166748
576.765930	1208.812744
575.731628	1179.582764
574.697205	1172.114014
573.662537	1169.480713
572.627747	1215.164917
571.592712	1289.816772
570.557434	1207.469849
569.522034	1228.976440
568.486450	1175.639771
567.450623	1252.656982
566.414673	1259.664307
565.378479	1220.827515
564.342102	1201.303223
563.305542	1222.786743
562.268799	1292.489502
561.231812	1171.704224
560.194702	1251.032349
559.157349	1236.340210
558.119812	1226.472656
557.082092	1264.791138
556.044189	1271.782593
555.006042	1242.647949
553.967773	1276.126343
552.929260	1299.963013
551.890625	1241.956421
550.851746	1208.035767
549.812683	1231.871582
548.773376	1222.020752
547.733948	1188.122437
546.694275	1207.139160
545.654419	1250.190918
544.614441	1218.709839
543.574158	1242.516846
542.533752	1187.020020
541.493164	1258.872437
540.452332	1263.442627
539.411316	1268.011108
538.370178	1248.566895
537.328735	1356.363892
536.287170	1298.507202
535.245422	1322.263550
534.203430	1453.979736
533.161255	1424.923340
532.118896	1307.136230
531.076355	1362.046631
530.033630	1313.843018
528.990723	1375.922852
527.947571	1344.510864
526.904236	1361.034302
525.860718	1363.177002
524.817017	1336.575317
523.773132	1317.167969
522.729004	1422.276978
521.684692	1292.738647
520.640198	1349.942627
519.595520	1330.546997
518.550659	1361.403564
517.505615	1334.836426
516.460327	1327.412842
515.414856	1248.253296
514.369202	1319.746460
513.323364	1211.932861
512.277283	1345.544922
511.231079	1321.399414
510.184631	1220.812744
509.138000	1234.917236
508.091187	1220.358276
507.044159	1148.499146
505.996948	1253.325928
504.949554	1260.253174
503.901947	1159.789795
502.854126	1233.538452
501.806152	1252.392822
500.757965	1247.389404
499.709564	1242.387817
