#Wave		#Intensity
3200.600830	0.000000
3200.007080	46.308376
3199.413086	29.464512
3198.819092	8.417160
3198.224854	37.871494
3197.630615	29.451153
3197.036377	46.273388
3196.442139	25.236216
3195.847656	46.259399
3195.252930	37.842876
3194.658447	25.224771
3194.063721	16.813971
3193.468750	46.231430
3192.873779	25.213329
3192.278809	0.000000
3191.683838	12.602853
3191.088623	12.600946
3190.493164	33.597443
3189.897949	25.194271
3189.302490	29.388870
3188.706787	50.373299
3188.111328	16.788559
3187.515381	54.554565
3186.919678	41.958702
3186.323730	41.952354
3185.727783	20.973003
3185.131592	41.939659
3184.535400	46.126644
3183.939209	37.734272
3183.342773	25.152374
3182.746338	75.445702
3182.149902	25.144762
3181.553223	16.760637
3180.956543	29.326677
3180.359619	33.511131
3179.762695	41.882572
3179.165771	37.688606
3178.568604	41.869892
3177.971436	25.118132
3177.374268	33.485771
3176.776855	8.370175
3176.179443	41.844543
3175.581787	62.757309
3174.984131	37.648682
3174.386475	29.277876
3173.788574	25.091520
3173.190674	45.994156
3172.592773	66.890457
3171.994629	37.620182
3171.396484	37.614487
3170.798340	58.502560
3170.199951	33.424969
3169.601563	41.774883
3169.002930	29.237988
3168.404297	8.352446
3167.805664	16.702360
3167.206787	54.274445
3166.607910	4.174325
3166.008789	25.042152
3165.409912	25.038357
3164.810547	37.551846
3164.211426	20.858974
3163.612061	37.540462
3163.012695	45.875835
3162.413086	33.359184
3161.813477	0.000000
3161.213623	33.349072
3160.614014	58.352032
3160.013916	8.334741
3159.414063	20.833693
3158.813965	37.494961
3158.213867	54.151176
3157.613525	41.648434
3157.013184	54.134754
3156.412598	41.635803
3155.812256	41.629490
3155.211426	8.324636
3154.610840	12.485059
3154.010010	33.288441
3153.409180	33.283394
3152.808105	58.237103
3152.207031	20.795809
3151.605957	4.158531
3151.004639	37.421101
3150.403320	20.786346
3149.801758	8.313277
3149.200195	20.780039
3148.598633	16.621510
3147.996826	12.464240
3147.395020	4.154116
3146.793213	24.920914
3146.191162	24.917131
3145.589111	33.217800
3144.986816	33.212757
3144.384766	0.000000
3143.782227	29.052341
3143.179932	24.898228
3142.577393	29.043522
3141.974609	16.593779
3141.371826	37.330334
3140.769043	29.030294
3140.166260	20.732777
3139.563232	0.000000
3138.960205	45.598259
3138.356934	16.578667
3137.753662	24.864223
3137.150391	16.573631
3136.546875	24.856670
3135.943359	20.710747
3135.339600	37.273682
3134.735840	12.422673
3134.132080	8.280524
3133.528076	66.234123
3132.924072	62.085060
3132.320068	0.000000
3131.715820	45.515209
3131.111572	66.193886
3130.507080	41.364891
3129.902588	53.766186
3129.298096	37.217087
3128.693604	41.346035
3128.088867	57.875652
3127.483887	24.800079
3126.878906	53.725338
3126.273926	57.849262
3125.668945	41.314621
3125.063721	41.308342
3124.458252	41.302059
3123.853027	37.166203
3123.247559	33.031601
3122.641846	41.283226
3122.036133	53.660030
3121.430420	37.143604
3120.824707	49.517273
3120.218750	57.761368
3119.612549	20.625921
3119.006592	-8.249114
3118.400391	49.487156
3117.793945	8.246605
3117.187500	20.613377
3116.581055	12.366144
3115.974609	28.849947
3115.367920	41.207939
3114.760986	28.841169
3114.154297	20.597700
3113.547363	41.189133
3112.940186	28.828005
3112.333008	24.705959
3111.725830	24.702200
3111.118408	16.465626
3110.510986	24.694681
3109.903564	28.806076
3109.295898	28.801691
3108.688232	37.025108
3108.080566	24.679649
3107.472656	32.901188
3106.864746	41.120224
3106.256592	20.556982
3105.648438	41.107704
3105.040039	49.321735
3104.431885	24.657112
3103.823486	4.108893
3103.214844	61.624008
3102.606201	24.645849
3101.997559	24.642096
3101.388672	16.425562
3100.779785	32.846123
3100.170898	20.525700
3099.561768	20.522572
3098.952637	16.415556
3098.343262	49.239166
3097.733887	45.129028
3097.124512	28.714096
3096.514893	12.304167
3095.905273	36.906876
3095.295410	32.801113
3094.685791	65.592224
3094.075684	20.494448
3093.465820	49.179176
3092.855713	32.781120
3092.245361	45.067173
3091.635254	61.445869
3091.024658	32.766136
3090.414307	28.665997
3089.803711	49.134216
3089.193115	20.469469
3088.582275	53.212509
3087.971436	49.111748
3087.360596	32.736176
3086.749512	49.096771
3086.138428	8.181548
3085.527100	36.811352
3084.915771	24.537157
3084.304443	16.355610
3083.692871	40.882790
3083.081299	36.788898
3082.469482	12.261096
3081.857910	40.864086
3081.245850	0.000000
3080.634033	28.596132
3080.021973	40.845387
3079.409668	24.503492
3078.797607	48.999508
3078.185059	32.661354
3077.572754	57.148647
3076.960205	32.651386
3076.347656	44.888805
3075.734863	40.801777
3075.122070	73.431992
3074.509033	44.868256
3073.895996	40.783096
3073.282959	28.543810
3072.669922	44.847713
3072.056641	57.070194
3071.443115	57.061481
3070.829834	24.451187
3070.216064	36.671181
3069.602539	48.887444
3068.988770	36.659985
3068.375000	36.654385
3067.760986	40.720875
3067.146973	81.429314
3066.532715	69.204346
3065.918701	12.210666
3065.304199	65.113609
3064.689941	16.275915
3064.075439	44.751930
3063.460693	48.812828
3062.846191	24.402685
3062.231445	28.465450
3061.616455	40.658718
3061.001465	52.848255
3060.386475	48.775551
3059.771240	69.088142
3059.156006	56.887421
3058.540771	28.439363
3057.925293	48.745743
3057.309814	40.615246
3056.694092	32.487228
3056.078369	40.602829
3055.462646	44.656284
3054.846680	8.118083
3054.230713	20.292107
3053.614502	40.578007
3052.998291	44.628983
3052.382080	56.791840
3051.765625	36.503456
3051.149170	44.608517
3050.532715	44.601692
3049.916016	28.378555
3049.299316	28.374216
3048.682373	32.422714
3048.065430	4.052219
3047.448486	28.361198
3046.831299	28.356861
3046.214111	8.100720
3045.596680	68.845596
3044.979248	32.392971
3044.361816	40.485016
3043.744141	36.430943
3043.126465	44.519894
3042.508545	56.653011
3041.890869	44.506268
3041.272705	44.499458
3040.654785	40.447861
3040.036621	60.662506
3039.418213	12.130645
3038.799805	60.643940
3038.181396	52.550037
3037.562988	36.375225
3036.944336	8.082146
3036.325439	40.404545
3035.706543	16.159344
3035.087646	60.588257
3034.468750	48.463184
3033.849609	72.683647
3033.230469	20.186810
3032.611084	40.367439
3031.991699	40.361256
3031.372070	48.426090
3030.752441	60.523342
3030.132813	72.616882
3029.513184	32.269230
3028.893066	64.528572
3028.273193	28.226925
3027.653076	36.286201
3027.032959	44.343006
3026.412598	8.061130
3025.792480	56.419262
3025.171875	40.293297
3024.551270	84.602959
3023.930664	60.421425
3023.310059	44.302254
3022.689209	76.510345
3022.068115	60.393650
3021.447266	92.589401
3020.826172	108.675247
3020.204834	48.292706
3019.583496	68.404182
3018.962158	24.138950
3018.340576	36.202873
3017.718994	56.306950
3017.097412	68.362244
3016.475586	68.351761
3015.853760	56.281052
3015.231689	32.155670
3014.609619	60.282635
3013.987549	40.182259
3013.365234	24.105658
3012.742920	44.186928
3012.120361	36.147396
3011.497803	40.157612
3010.875244	48.181744
3010.252441	32.116234
3009.629639	60.208702
3009.006836	48.159573
3008.383789	44.139500
3007.760498	48.144794
3007.137451	76.217560
3006.514160	48.130020
3005.890625	68.173737
3005.267090	40.096043
3004.643555	84.188766
3004.019775	84.175842
3003.395996	80.155167
3002.772217	92.164291
3002.148193	88.143616
3001.524170	80.118256
3000.899902	48.063576
3000.275635	60.070244
2999.651367	64.065094
2999.026855	48.041439
2998.402344	64.045418
2997.777588	96.053375
2997.152832	60.024139
2996.528076	48.011940
2995.903076	64.006088
2995.278076	39.997658
2994.653076	59.987274
2994.027832	79.970749
2993.402344	63.966770
2992.777100	51.965015
2992.151367	43.963642
2991.525879	91.909859
2990.900146	43.950134
2990.274414	95.876472
2989.648438	87.873260
2989.022461	63.898006
2988.396240	83.853249
2987.770264	91.825157
2987.143799	55.884983
2986.517578	95.788101
2985.891113	119.716728
2985.264404	79.798882
2984.637695	91.754608
2984.010986	63.819481
2983.384033	95.714508
2982.757080	71.774841
2982.130127	91.698196
2981.502930	103.642891
2980.875732	43.842175
2980.248291	111.581100
2979.620850	47.813118
2978.993408	79.676277
2978.365723	103.563232
2977.738037	95.582123
2977.110107	103.531372
2976.482178	59.720451
2975.854248	95.538025
2975.226074	91.543190
2974.597900	115.406265
2973.969482	119.367424
2973.341309	111.392456
2972.712646	127.286072
2972.083984	115.335258
2971.455322	119.293976
2970.826660	135.179031
2970.197754	127.207748
2969.568604	151.035950
2968.939697	154.986725
2968.310547	139.069244
2967.681152	115.211060
2967.051758	131.082062
2966.422363	178.720749
2965.792725	190.606125
2965.163086	178.665726
2964.533203	186.577698
2963.903564	178.610718
2963.273438	222.236893
2962.643311	166.651993
2962.013184	202.331985
2961.383057	218.167557
2960.752686	198.303589
2960.122314	229.996735
2959.491699	237.891022
2958.861084	241.818619
2958.230225	265.563141
2957.599609	217.966003
2956.968506	281.330963
2956.337646	237.707840
2955.706299	261.438354
2955.075195	281.200928
2954.443848	237.597977
2953.812500	237.561371
2953.180908	277.112213
2952.549316	292.902069
2951.917725	273.069305
2951.285889	269.070282
2950.653809	284.854034
2950.021973	280.854431
2949.389893	245.215363
2948.757568	288.676819
2948.125244	316.309387
2947.492920	292.541077
2946.860352	308.306549
2946.227783	268.738647
2945.595215	276.600067
2944.962402	268.655762
2944.329590	240.962860
2943.696533	205.379288
2943.063477	217.194580
2942.430420	213.212708
2941.797119	205.284271
2941.163574	157.886612
2940.530273	205.220947
2939.896729	213.081177
2939.262939	185.430939
2938.629150	189.347061
2937.995361	216.926697
2937.361328	153.797012
2936.727295	189.259430
2936.093262	212.884003
2935.458984	185.259338
2934.824707	228.582611
2934.190186	208.844986
2933.555664	216.692474
2932.921143	220.598282
2932.286377	212.686935
2931.651367	248.096466
2931.016602	244.120728
2930.381592	267.703979
2929.746338	263.726440
2929.111084	283.363770
2928.475830	283.320007
2927.840332	330.488983
2927.204834	322.570374
2926.569336	251.723358
2925.933594	322.470734
2925.297607	338.148804
2924.661865	349.890625
2924.025879	310.529114
2923.389648	330.131836
2922.753418	361.517120
2922.117188	365.390198
2921.480713	404.616943
2920.844238	322.072479
2920.207764	400.564819
2919.571045	380.870453
2918.934082	372.959808
2918.297363	376.827454
2917.660156	333.597748
2917.023193	333.546204
2916.385986	360.958923
2915.748779	380.517426
2915.111328	349.080566
2914.473877	368.634857
2913.836182	313.683289
2913.198486	325.396118
2912.560791	380.223419
2911.922852	364.487732
2911.284912	348.756897
2910.646729	325.194916
2910.008545	403.492737
2909.370361	391.679932
2908.731934	387.703186
2908.093506	379.812042
2907.455078	387.583282
2906.816406	422.752716
2906.177490	450.083740
2905.538574	469.579926
2904.899658	465.594727
2904.260498	481.170532
2903.621338	449.805298
2902.982178	504.486115
2902.342773	527.868896
2901.703369	555.153992
2901.063721	469.071625
2900.424072	582.340454
2899.784424	472.834167
2899.144531	453.225403
2898.504639	515.659424
2897.864502	484.332367
2897.224365	538.931641
2896.583984	421.707306
2895.943848	425.546112
2895.303223	468.418610
2894.662842	476.151855
2894.021973	448.762177
2893.381348	436.987671
2892.740479	468.128571
2892.099609	444.653290
2891.458496	471.883453
2890.817383	503.004456
2890.176025	506.825226
2889.534668	576.911621
2888.893311	549.540161
2888.251709	565.042419
2887.610107	541.577454
2886.968262	642.780090
2886.326416	576.464966
2885.684570	588.058960
2885.042480	630.799927
2884.400391	583.983521
2883.758057	626.711853
2883.115723	684.994995
2882.473389	688.780212
2881.830811	661.437805
2881.188232	622.433228
2880.545410	626.226379
2879.902588	633.907288
2879.259766	657.139404
2878.616699	692.027710
2877.973633	633.612549
2877.330322	625.741150
2876.687012	648.960083
2876.043457	629.432495
2875.399902	679.837097
2874.756348	578.742981
2874.112549	559.235352
2873.468750	570.797546
2872.824707	543.532410
2872.180664	508.512146
2871.536621	555.007324
2870.892334	523.876709
2870.248047	550.955200
2869.603760	504.317352
2868.958984	531.390442
2868.314453	554.576965
2867.669678	523.470459
2867.024902	500.127502
2866.379883	608.587830
2865.734863	530.978333
2865.089844	550.271667
2864.444580	554.060852
2863.799316	491.991669
2863.153809	538.395508
2862.508301	480.220703
2861.862549	418.191833
2861.216797	456.842377
2860.571045	437.416718
2859.925049	421.867432
2859.279053	359.886078
2858.632813	379.175903
2857.986572	336.563080
2857.340332	328.774933
2856.693848	320.989197
2856.047363	324.806091
2855.400635	324.755646
2854.753906	282.184296
2854.107178	243.491089
2853.460205	255.046280
2852.813232	247.279190
2852.166016	227.925079
2851.518799	254.927429
2850.871338	216.268463
2850.223877	254.848236
2849.576416	243.226425
2848.928711	250.908905
2848.281006	258.588989
2847.633301	300.997131
2846.985352	281.658661
2846.337158	308.619049
2845.688965	281.571106
2845.040771	320.092743
2844.392578	285.339539
2843.743896	277.584503
2843.095459	300.669800
2842.446777	381.560028
2841.798096	377.647156
2841.149170	339.059021
2840.500244	423.757874
2839.851074	419.840240
2839.202148	423.626099
2838.552734	469.766785
2837.903320	446.594025
2837.253906	461.921967
2836.604492	465.698883
2835.954834	419.448608
2835.304932	415.535828
2834.655029	377.001617
2834.005127	369.250275
2833.354980	357.655548
2832.704834	330.683777
2832.054688	272.963898
2831.404297	303.673126
2830.753906	280.565674
2830.103271	234.408813
2829.452637	230.530167
2828.801758	218.969574
2828.150879	207.412582
2827.500000	207.380295
2826.848877	172.790009
2826.197754	195.798203
2825.546387	207.283463
2824.895020	142.005447
2824.243408	176.519836
2823.591797	126.614075
2822.940186	149.611511
2822.288330	161.095001
2821.636475	164.904922
2820.984619	180.216843
2820.332520	134.183136
2819.680176	134.162231
2819.028076	149.471771
2818.375488	118.792397
2817.723145	134.099548
2817.070557	130.247849
2816.417725	137.888000
2815.764893	91.911011
2815.112061	107.212807
2814.458984	126.338264
2813.805908	99.523727
2813.152832	126.298897
2812.499512	118.625931
2811.845947	130.085587
2811.192383	114.763512
2810.538818	149.169312
2809.885010	91.782188
2809.231201	145.299149
2808.577393	95.576645
2807.923340	118.496567
2807.269287	103.190598
2806.614990	126.102180
2805.960693	122.261833
2805.306152	114.602600
2804.651611	106.945747
2803.997070	91.653488
2803.342285	145.095398
2802.687500	76.354088
2802.032471	118.330376
2801.377441	72.513756
2800.722412	83.950203
2800.067139	118.275017
2799.411621	167.848022
2798.756348	129.680511
2798.100586	110.592598
2797.445068	106.762398
2796.789307	72.434608
2796.133301	129.599609
2795.477539	95.278954
2794.821289	133.369720
2794.165283	87.629280
2793.509033	110.471855
2792.852539	79.984375
2792.196045	106.629189
2791.539551	129.458084
2790.882813	76.139931
2790.226074	102.772858
2789.569092	117.980042
2788.912109	95.130341
2788.255127	98.920113
2787.597900	95.100639
2786.940430	95.085793
2786.283203	114.085129
2785.625488	102.660583
2784.968018	133.057755
2784.310303	91.225349
2783.652588	129.215729
2782.994629	144.395020
2782.336426	132.974640
2781.678467	125.356499
2781.020264	117.740738
2780.361816	106.329865
2779.703369	102.516350
2779.044922	117.685562
2778.386230	113.871460
2777.727539	125.239029
2777.068604	121.424934
2776.409668	102.436272
2775.750732	132.767014
2775.091553	98.611511
2774.432373	109.972565
2773.772949	102.372246
2773.113525	113.729164
2772.453857	117.501762
2771.794189	113.693604
2771.134521	147.778580
2770.474609	117.446655
2769.814697	121.216301
2769.154541	109.835098
2768.494385	117.391571
2767.833984	121.159447
2767.173584	105.997932
2766.513184	117.336502
2765.852539	113.533691
2765.191895	117.299797
2764.531006	105.931633
2763.870117	109.697746
2763.209229	86.988045
2762.548096	113.444916
2761.886719	124.769890
2761.225586	113.409424
2760.563965	124.730843
2759.902588	136.048721
2759.240967	147.363052
2758.579102	136.006134
2757.917236	128.430145
2757.255371	101.972679
2756.593262	117.061417
2755.931152	139.696594
2755.269043	158.549683
2754.606689	101.908844
2753.944092	101.892891
2753.281494	116.969818
2752.618896	120.724129
2751.956055	139.565414
2751.293213	135.772110
2750.630371	94.271423
2749.967285	143.270126
2749.303955	128.168991
2748.640625	139.456161
2747.977295	97.980873
2747.313721	158.252014
2746.650146	143.157959
2745.986572	128.068634
2745.322754	146.879242
2744.658691	139.325150
2743.994873	120.478539
2743.330566	101.637840
2742.666504	165.606079
2742.002197	154.290573
2741.337646	142.978607
2740.673096	154.242218
2740.008545	157.979462
2739.343750	112.824783
2738.678955	131.608276
2738.013916	146.626236
2737.348877	150.362320
2736.683594	127.787933
2736.018311	146.557297
2735.353027	161.563477
2734.687500	161.538147
2734.021973	165.268921
2733.356201	116.421211
2732.690430	127.667755
2732.024658	183.962906
2731.358643	165.165268
2730.692383	191.411545
2730.026367	172.618622
2729.359863	138.823639
2728.693604	172.564468
2728.027100	198.793091
2727.360352	168.760101
2726.693604	168.733627
2726.026855	183.703339
2725.359863	164.932220
2724.692871	168.654205
2724.025635	138.649475
2723.358398	198.574844
2722.691162	191.051453
2722.023682	194.766998
2721.355957	217.206009
2720.688477	228.404938
2720.020508	217.137817
2719.352783	209.617401
2718.684814	209.584488
2718.016602	213.293579
2717.348389	160.880417
2716.680176	220.708237
2716.011719	164.570129
2715.343262	186.982132
2714.674561	190.691833
2714.005859	205.615753
2713.337158	160.728882
2712.668213	183.127396
2711.999023	205.518875
2711.329834	164.389267
2710.660645	141.950256
2709.991455	168.072571
2709.321777	160.577454
2708.652344	160.552216
2707.982666	179.192917
2707.312988	194.095154
2706.643066	205.260696
2705.972900	134.331345
2705.302979	171.618622
2704.632813	220.084946
2703.962402	186.483353
2703.291992	186.454041
2702.621582	156.596771
2701.950928	156.572144
2701.280273	156.547531
2700.609375	145.342712
2699.938477	137.867554
2699.267334	160.199265
2698.596191	137.824203
2697.925049	178.770859
2697.253662	137.780853
2696.582031	167.544968
2695.910645	148.905426
2695.239014	141.437912
2694.567139	130.251266
2693.895264	133.951660
2693.223145	137.650879
2692.551270	145.068634
2691.878906	167.360565
2691.206543	159.897156
2690.534180	133.846313
2689.861816	178.433670
2689.189209	126.370628
2688.516357	185.809921
2687.843506	126.330856
2687.170654	152.316177
2686.497559	170.864426
2685.824463	148.554367
2685.151123	163.384079
2684.477783	185.634506
2683.804199	137.347900
2683.130615	167.018448
2682.457031	126.171844
2681.783203	155.834793
2681.109375	115.002815
2680.435303	166.913284
2679.761230	144.635391
2679.086914	163.152695
2678.412598	133.467545
2677.738281	140.860214
2677.063721	189.019455
2676.389160	159.344238
2675.714355	181.549713
2675.039551	148.180496
2674.364502	177.788589
2673.689453	166.650543
2673.014404	148.110474
2672.339111	159.193665
2671.663574	166.571777
2670.988037	170.246536
2670.312500	148.017136
2669.636719	151.693649
2668.960938	155.369003
2668.285156	173.837906
2667.609131	184.904785
2666.932861	144.203003
2666.256592	177.452637
2665.580322	166.335617
2664.903809	151.526337
2664.227295	155.197617
2663.550781	125.616356
2662.874023	166.230728
2662.197021	151.430771
2661.520020	162.485443
2660.843018	188.305695
2660.165771	173.509247
2659.488525	177.172989
2658.811035	173.454514
2658.133545	158.667404
2657.455811	140.195572
2656.778076	184.438766
2656.100342	177.033279
2655.422363	147.504456
2654.744385	154.855240
2654.066162	147.457901
2653.387939	158.492233
2652.709473	210.061188
2652.031006	165.811615
2651.352539	158.417191
2650.673828	165.759277
2649.994873	180.464935
2649.316162	195.165955
2648.636963	154.635391
2647.958008	165.654617
2647.278809	154.586563
2646.599365	187.682617
2645.919922	213.409271
2645.240479	176.586685
2644.560791	147.132324
2643.880859	165.497726
2643.201172	180.180176
2642.520996	183.828278
2641.841064	147.039398
2641.160889	135.989960
2640.480469	124.944000
2639.800049	143.295486
2639.119629	128.578186
2638.438965	157.942535
2637.758301	179.952591
2637.077393	187.267990
2636.396484	146.853638
2635.715332	150.501205
2635.034180	157.817780
2634.353027	143.114426
2633.671631	128.415726
2632.989990	190.758911
2632.308350	124.707268
2631.626709	168.694931
2630.944824	146.668045
2630.262939	150.310974
2629.581055	172.280472
2628.898926	168.588257
2628.216553	161.232834
2627.534180	172.198746
2626.851807	157.518616
2626.169189	131.855194
2625.486572	197.751511
2624.803711	172.089828
2624.120850	164.740799
2623.437988	175.695724
2622.754883	186.647171
2622.071533	146.366776
2621.388184	201.222488
2620.704834	179.242569
2620.021240	193.843948
2619.337646	175.528992
2618.653809	190.126328
2617.969971	149.883575
2617.286133	168.135437
2616.602051	131.563431
2615.917725	182.698059
2615.233398	157.095459
2614.549072	160.723404
2613.864502	149.741272
2613.179932	204.492294
2612.495117	153.344940
2611.810303	153.320648
2611.125488	160.596207
2610.440430	153.272095
2609.755127	138.652802
2609.069824	193.353531
2608.384521	160.494492
2607.698975	178.704193
2607.013428	160.443665
2606.327637	171.355850
2605.641846	182.264572
2604.956055	178.590988
2604.270020	204.071655
2603.583740	160.316605
2602.897461	160.291199
2602.211182	152.981003
2601.524658	196.658691
2600.838135	178.421265
2600.151367	152.908279
2599.464600	174.724625
2598.777832	160.138855
2598.090820	189.225006
2597.403564	171.003189
2596.716309	200.078384
2596.029053	189.135025
2595.341553	185.468414
2594.654053	127.262062
2593.966309	214.493454
2593.278564	178.110382
2592.590820	214.425430
2591.902832	145.350128
2591.214600	167.126129
2590.526367	192.527832
2589.838135	188.865265
2589.149658	177.940964
2588.461182	130.711395
2587.772461	192.405701
2587.083740	166.967133
2586.394775	156.053207
2585.705811	185.056992
2585.016846	199.539597
2584.327637	174.116013
2583.638184	188.595749
2582.948975	170.434494
2582.259277	181.284515
2581.569824	177.630630
2580.879883	206.598755
2580.190186	163.078384
2579.500244	166.675888
2578.810059	202.877563
2578.119873	181.111923
2577.429688	173.839844
2576.739258	206.402039
2576.048584	159.302582
2575.358154	180.996918
2574.667236	155.632629
2573.976563	209.889755
2573.285645	195.383560
2572.594482	206.205444
2571.903320	177.236176
2571.212158	191.673981
2570.520752	159.100281
2569.829102	198.843765
2569.137451	206.041702
2568.445801	173.481247
2567.753906	187.908142
2567.062012	198.717422
2566.370117	177.011017
2565.677979	205.878067
2564.985596	176.954773
2564.293213	187.758881
2563.600830	184.118866
2562.908203	166.041595
2562.215332	212.932556
2561.522705	198.464890
2560.829590	205.649094
2560.136719	176.757950
2559.443604	220.010635
2558.750244	169.489441
2558.056885	140.617813
2557.363525	191.065598
2556.669922	205.452972
2555.976074	194.608704
2555.282227	169.354706
2554.588379	154.916901
2553.894287	165.698685
2553.200195	194.484909
2552.505859	158.443970
2551.811523	187.222183
2551.117188	183.592545
2550.422607	197.960449
2549.727783	194.330246
2549.032959	223.084412
2548.338135	208.658661
2547.643066	187.043503
2546.947998	176.224487
2546.252686	151.025513
2545.557373	183.358932
2544.861816	161.761536
2544.166260	172.518173
2543.470703	237.174728
2542.774902	190.428177
2542.078857	219.137146
2541.382813	201.143051
2540.686768	165.198349
2539.990479	197.488312
2539.294189	161.555603
2538.597656	197.425415
2537.901123	215.338867
2537.204346	172.243652
2536.507568	197.331085
2535.810791	204.474182
2535.113770	172.161362
2534.416504	175.720062
2533.719238	204.376480
2533.021973	168.494110
2532.324463	197.142532
2531.626953	193.527283
2530.929199	211.412781
2530.231445	211.379089
2529.533447	243.584534
2528.835449	200.567047
2528.137451	179.049179
2527.439209	204.083527
2526.740723	189.731628
2526.042236	186.122116
2525.343750	175.356339
2524.645020	189.640900
2523.946289	193.188217
2523.247314	225.350311
2522.548340	200.279449
2521.849121	218.126755
2521.149902	207.366135
2520.450684	218.057175
2519.751221	203.725845
2519.051514	196.546219
2518.351807	210.806854
2517.652100	192.911087
2516.952148	189.308456
2516.252197	182.135681
2515.552002	221.384521
2514.851807	196.358154
2514.151367	214.174713
2513.450928	196.295486
2512.750244	214.106369
2512.049561	206.936447
2511.348877	231.874527
2510.647949	228.270782
2509.946777	242.498993
2509.245605	188.976395
2508.544434	217.466415
2507.843018	213.867249
2507.141602	210.269211
2506.439941	238.742172
2505.738281	252.955032
2505.036377	213.730682
2504.334473	210.134933
2503.632568	235.028671
2502.930420	199.386414
2502.228027	195.794662
2501.525635	220.678726
2500.823242	213.525940
2500.120605	227.724625
2499.417969	199.227219
2498.715088	177.853027
2498.012207	202.720047
2497.309082	209.799500
2496.605957	245.319534
2495.902588	181.294159
2495.199219	223.915817
2494.495605	159.914307
2493.791992	206.078842
2493.088379	238.018539
2492.384521	206.012955
2491.680664	198.877274
2490.976563	202.396286
2490.272461	202.363937
2489.568115	216.530289
2488.863770	244.888535
2488.159180	173.878540
2487.454590	244.810226
2486.749756	223.486633
2486.044922	234.091415
2485.339844	205.683792
2484.634766	276.565002
2483.929688	187.892319
2483.224365	223.307968
2482.519043	240.992264
2481.813477	198.432465
2481.107666	233.829422
2480.402100	184.199768
2479.696045	230.212860
2478.990234	212.470169
2478.284180	223.057983
2477.577881	226.562317
2476.871582	215.907654
2476.165039	198.178589
2475.458496	212.300201
2474.751953	244.106155
2474.045166	226.381058
2473.338379	222.808182
2472.631348	229.844650
2471.924072	215.665833
2471.217041	197.956604
2470.509521	222.665527
2469.802246	187.291794
2469.094482	229.660690
2468.386963	226.091248
2467.679199	236.651367
2466.971191	236.613449
2466.263184	208.327728
2465.554932	215.355179
2464.846680	243.559464
2464.138428	232.932602
2463.429932	215.251694
2462.721436	254.026871
2462.012695	222.237900
2461.303955	211.621216
2460.594971	239.798950
2459.885986	271.493530
2459.176758	186.842224
2458.467529	253.782715
2457.758057	260.790436
2457.048584	190.276016
2456.338867	232.522308
2455.629150	225.440018
2454.919434	228.925812
2454.209473	257.060089
2453.499512	260.539673
2452.789307	249.937164
2452.078857	218.219986
2451.368408	242.818787
2450.657959	242.779846
2449.947266	239.222916
2449.236572	228.632294
2448.525879	207.494492
2447.814697	218.010071
2447.103760	207.427917
2446.392578	224.970459
2445.681152	235.478165
2444.969727	203.814056
2444.258301	231.889130
2443.546631	207.261566
2442.834717	228.302368
2442.122803	231.777512
2441.410889	231.740311
2440.698730	238.724426
2439.986572	249.216370
2439.274170	214.081116
2438.561768	214.046738
2437.849121	224.537582
2437.136475	270.103394
2436.423584	242.001846
2435.710693	192.869049
2434.997803	248.936432
2434.284424	252.402039
2433.571289	245.351471
2432.857910	269.843262
2432.144287	231.257080
2431.430908	213.703278
2430.717041	276.718811
2430.003174	276.674347
2429.289307	217.101944
2428.575195	224.069229
2427.861084	227.533752
2427.146729	241.497025
2426.432373	272.952759
2425.717773	244.918243
2425.003174	251.875427
2424.288330	244.839539
2423.573486	258.788757
2422.858643	234.271088
2422.143555	251.713531
2421.428223	234.195770
2420.712891	220.178543
2419.997559	293.524170
2419.281982	234.082840
2418.566162	244.524841
2417.850586	265.441437
2417.134521	240.954117
2416.418457	223.457733
2415.702393	251.349518
2414.986084	233.857071
2414.269775	261.738190
2413.553223	272.163940
2412.836670	237.232971
2412.120117	244.171127
2411.403076	261.569824
2410.686279	292.911072
2409.969238	261.485657
2409.251953	244.014023
2408.534668	299.740417
2407.817383	243.935501
2407.099854	257.833160
2406.382080	236.889648
2405.664307	247.300842
2404.946533	236.813400
2404.228516	240.257263
2403.510498	254.144302
2402.792236	229.737305
2402.073975	257.542786
2401.355469	247.062073
2400.636963	295.730927
2399.918213	246.982529
2399.199463	271.289215
2398.480469	260.813019
2397.761475	246.863220
2397.042480	292.016479
2396.323242	225.928741
2395.603760	225.892349
2394.884277	246.704208
2394.164795	270.983490
2393.445068	260.519073
2392.725098	253.531036
2392.005127	277.797485
2391.285156	284.696533
2390.564941	267.293915
2389.844727	242.955292
2389.124268	225.564987
2388.403809	263.695007
2387.683105	232.430511
2386.962402	253.204361
2386.241455	294.779480
2385.520508	301.666809
2384.799316	228.813797
2384.078125	263.440063
2383.356689	270.329102
2382.635254	273.750732
2381.913818	277.171234
2381.192139	242.485703
2380.470215	339.425232
2379.748291	273.574188
2379.026367	263.142853
2378.304199	249.253006
2377.581787	276.903107
2376.859375	249.172592
2376.136963	252.592575
2375.414307	311.365265
2374.691650	287.101624
2373.968750	231.719345
2373.245850	304.298676
2372.522705	283.505280
2371.799316	269.632233
2371.076172	269.588715
2370.352783	279.912323
2369.629150	290.232605
2368.905518	259.094421
2368.181641	276.322784
2367.457764	262.464264
2366.733643	255.516037
2366.009521	245.117706
2365.285400	286.499786
2364.561035	262.294769
2363.836426	310.562073
2363.111816	244.959412
2362.387207	300.113068
2361.662354	279.370483
2360.937256	275.876892
2360.212158	248.249100
2359.487061	310.261230
2358.761719	279.190002
2358.036377	296.376068
2357.310791	292.882507
2356.584961	265.274231
2355.859375	265.231354
2355.133301	261.744507
2354.407471	282.362885
2353.681152	313.303314
2352.955078	275.386963
2352.228516	261.575317
2351.502197	247.768143
2350.775635	275.253448
2350.048828	275.208954
2349.322021	278.604004
2348.594971	306.070953
2347.867920	302.583008
2347.140869	316.285645
2346.413330	292.173187
2345.686035	292.125916
2344.958496	261.152710
2344.230713	305.774109
2343.502930	309.159760
2342.775146	346.889832
2342.047119	302.191742
2341.319092	298.709412
2340.590820	298.661102
2339.862305	339.800751
2339.133789	315.723328
2338.405273	332.828339
2337.676514	301.898499
2336.947754	250.398010
2336.218750	277.793915
2335.489746	284.606964
2334.760498	305.131561
2334.031250	298.226379
2333.301758	301.605438
2332.572266	257.008484
2331.842529	291.229126
2331.112793	325.438690
2330.382813	339.086456
2329.652832	291.087677
2328.922607	273.920532
2328.192383	297.840332
2327.462158	314.906586
2326.731689	277.209808
2326.000977	273.743103
2325.270264	311.332367
2324.539307	297.599213
2323.808350	283.870483
2323.077393	280.404938
2322.346191	242.750290
2321.614746	324.754089
2320.883301	270.014923
2320.151855	249.467026
2319.420166	314.345856
2318.688232	297.213654
2317.956299	324.491058
2317.224365	303.947601
2316.492188	286.825409
2315.760010	320.919250
2315.027588	303.799835
2314.295166	286.685944
2313.562500	300.288940
2312.829590	327.534821
2312.096924	307.014099
2311.363770	300.142914
2310.630615	300.094238
2309.897461	296.635956
2309.164063	317.042175
2308.430664	299.948242
2307.697021	340.794983
2306.963379	299.850952
2306.229492	320.243347
2305.495605	275.909607
2304.761719	296.299286
2304.027344	326.897888
2303.293213	309.821686
2302.558838	302.963226
2301.824219	292.703491
2301.089600	330.088715
2300.354736	336.839996
2299.619873	278.953522
2298.885010	312.921417
2298.149658	316.271393
2297.414551	329.820923
2296.679199	278.772430
2295.943604	363.704956
2295.208008	356.848785
2294.472412	346.596802
2293.736572	298.976135
2293.000488	356.674957
2292.264404	380.391510
2291.528320	319.205322
2290.791992	370.082214
2290.055420	312.312225
2289.318848	363.173706
2288.582275	312.210785
2287.845459	332.518311
2287.108398	322.286804
2286.371582	332.410278
2285.634277	359.487396
2284.896973	356.038116
2284.159668	332.248260
2283.422119	315.245575
2282.684570	328.751068
2281.946777	359.195374
2281.208740	348.972717
2280.470703	328.590790
2279.732666	298.054535
2278.994385	328.483978
2278.256104	358.903503
2277.517578	270.826538
2276.779053	318.169434
2276.040283	365.496918
2275.301514	324.833313
2274.562500	294.332306
2273.823486	348.405731
2273.084229	355.113129
2272.344971	385.488678
2271.605469	307.664581
2270.865967	354.939850
2270.126221	337.982971
2269.386475	337.927979
2268.646484	364.902832
2267.906494	334.439819
2267.166260	371.539337
2266.426025	364.724731
2265.685547	330.900055
2264.945068	347.726105
2264.204346	334.167786
2263.463623	334.113373
2262.722656	357.679321
2261.981689	330.630829
2261.240723	344.069946
2260.499268	360.877350
2259.758057	340.585785
2259.016602	330.415558
2258.274902	347.216949
2257.533203	340.419434
2256.791260	380.803284
2256.049316	363.894287
2255.307129	343.621979
2254.564941	340.197693
2253.822754	353.613251
2253.080322	400.696411
2252.337646	366.964661
2251.594971	339.976074
2250.852051	363.479523
2250.109131	326.405273
2249.366211	376.818909
2248.623047	380.121399
2247.879639	319.519012
2247.136230	349.732208
2246.392578	353.037476
2245.648926	332.809662
2244.905273	346.200073
2244.161377	315.898071
2243.417236	396.488251
2242.673096	322.514099
2241.928955	369.487152
2241.184570	342.559509
2240.439941	369.366669
2239.695313	382.735748
2238.950439	359.175842
2238.205566	349.048553
2237.460693	338.924561
2236.715576	345.579559
2235.970215	322.041046
2235.224854	368.945160
2234.479492	382.298950
2233.733887	419.119049
2232.988037	385.526611
2232.242188	395.519287
2231.496338	398.806061
2230.750244	345.128754
2230.003906	324.971100
2229.257568	355.065125
2228.511230	334.912415
2227.764648	385.086395
2227.017822	311.366852
2226.270996	371.570740
2225.523926	371.510101
2224.776855	368.103027
2224.029785	361.351257
2223.282471	364.637543
2222.534912	371.267487
2221.787354	404.648926
2221.039795	371.146240
2220.291992	324.282043
2219.543945	384.395294
2218.795898	357.596313
2218.047852	357.537903
2217.299561	364.161346
2216.551025	357.421082
2215.802490	380.741547
2215.053955	360.643585
2214.305176	317.180939
2213.556152	353.849335
2212.807129	350.453857
2212.058105	360.407898
2211.308838	360.348999
2210.559326	350.282043
2209.809814	380.244049
2209.060303	413.531158
2208.310547	406.794800
2207.560547	393.392944
2206.810547	366.662262
2206.060303	363.269562
2205.310059	393.199982
2204.559814	396.467346
2203.809326	339.773590
2203.058594	369.693146
2202.307861	342.992462
2201.557129	392.878571
2200.806152	392.814301
2200.054932	382.764862
2199.303711	405.997162
2198.552246	366.003113
2197.800781	372.596741
2197.049316	372.535797
2196.297607	402.405823
2195.545654	389.039490
2194.793701	398.949554
2194.041504	398.884247
2193.289307	382.201508
2192.537109	382.138947
2191.784668	402.010834
2191.031982	431.841736
2190.279297	368.666046
2189.526367	361.964142
2188.773438	388.466705
2188.020508	414.960571
2187.267090	404.935181
2186.513916	368.364319
2185.760498	398.166473
2185.006836	444.546387
2184.253174	417.937836
2183.499268	411.236542
2182.745361	348.167450
2181.991211	394.525116
2181.237061	351.368164
2180.482666	374.510345
2179.728271	377.762695
2178.973877	420.771942
2178.218994	404.139893
2177.464355	394.137421
2176.709229	417.253571
2175.954346	440.362122
2175.198975	453.531769
2174.443848	407.118713
2173.688232	367.339569
2172.932861	397.058746
2172.177002	367.219147
2171.421387	453.160126
2170.665283	386.941895
2169.909424	373.651825
2169.153076	416.570007
2168.396729	380.140442
2167.640381	403.213257
2166.883789	442.800964
2166.127197	416.296783
2165.370361	419.531891
2164.613525	399.645905
2163.856445	386.371094
2163.099365	422.627228
2162.342041	425.859100
2161.584473	399.383698
2160.826904	402.618317
2160.069336	376.155365
2159.311523	405.785248
2158.553711	372.733398
2157.795654	385.864136
2157.037354	405.585449
2156.279053	405.518890
2155.520752	435.119537
2154.762207	408.681549
2154.003662	425.090851
2153.244873	385.484222
2152.485840	438.128052
2151.726807	359.008392
2150.967773	391.880554
2150.208252	424.741943
2149.448975	345.663391
2148.689453	434.476898
2147.929688	368.586517
2147.169922	404.720459
2146.410156	421.103333
2145.650146	394.719513
2144.889893	414.387390
2144.129639	368.283813
2143.369141	437.265167
2142.608643	410.895966
2141.847900	420.688324
2141.087158	377.900055
2140.326416	394.265686
2139.565186	436.905975
2138.804199	499.239014
2138.042725	420.342712
2137.281494	394.006500
2136.519775	420.204498
2135.758301	443.111572
2134.996338	420.066315
2134.234619	442.965851
2133.472412	488.822632
2132.710449	429.699554
2131.947998	459.145386
2131.185547	439.395447
2130.423096	380.309601
2129.660400	426.138916
2128.897705	412.959015
2128.134766	429.275635
2127.371826	448.863251
2126.608643	452.065216
2125.845215	471.642609
2125.081787	383.146576
2124.318359	406.003021
2123.554688	455.041412
2122.790771	448.420227
2122.026855	405.802582
2121.262939	510.441803
2120.498779	454.741882
2119.734375	444.854034
2118.969971	418.617218
2118.205322	447.977478
2117.440674	434.826233
2116.676025	431.485809
2115.911133	431.414734
2115.145996	480.360016
2114.380859	467.212036
2113.615479	424.668274
2112.850098	476.856567
2112.084473	437.590790
2111.318848	434.253632
2110.552979	460.298309
2109.787109	463.486450
2109.020996	453.619720
2108.254883	463.333710
2107.488525	459.994995
2106.722168	512.108582
2105.955566	427.230377
2105.188965	443.463776
2104.422119	498.814514
2103.655029	440.057922
2102.887939	443.244537
2102.120850	410.585327
2101.353516	430.066071
2100.585938	469.085632
2099.818359	472.265289
2099.050781	491.726196
2098.282959	472.109558
2097.514893	478.542480
2096.746826	442.660156
2095.978760	468.621674
2095.210449	475.051941
2094.441895	471.720337
2093.673340	513.927734
2092.904541	455.303864
2092.135742	445.473846
2091.366699	542.933228
2090.597656	477.832458
2089.828369	474.503571
2089.059082	493.922211
2088.289551	438.608490
2087.520020	432.039276
2086.750244	412.480682
2085.980469	454.628052
2085.210449	457.799835
2084.440186	493.433228
2083.670166	454.402954
2082.899658	490.025116
2082.129150	454.252899
2081.358643	460.666138
2080.587891	454.102875
2079.816895	483.215393
2079.045898	444.225342
2078.274902	531.685547
2077.503662	470.010193
2076.732178	460.209808
2075.960693	473.095306
2075.188965	541.053894
2074.417236	505.332092
2073.645264	524.681213
2072.873291	485.735687
2072.101074	492.130829
2071.328857	449.966309
2070.556396	488.731537
2069.783936	491.886841
2069.011230	462.685486
2068.238525	514.369446
2067.465576	469.001526
2066.692627	472.157928
2065.919434	481.780151
2065.145996	501.097839
2064.372559	501.014984
2063.599121	488.004852
2062.825439	523.468262
2062.051514	536.304749
2061.277588	529.755615
2060.503662	442.466553
2059.729248	506.976318
2058.955078	503.663849
2058.180664	484.212036
2057.406006	497.042114
2056.631348	448.554688
2055.856445	542.048340
2055.081543	522.602966
2054.306396	461.233704
2053.531250	461.157379
2052.755859	486.875793
2051.980225	486.795227
2051.204590	486.714661
2050.428955	480.188599
2049.653076	528.442261
2048.877197	512.246399
2048.101074	515.382690
2047.324707	495.973724
2046.548340	499.111694
2045.771851	499.029022
2044.995239	479.632355
2044.218506	460.242065
2043.441528	540.614380
2042.664551	514.785583
2041.887329	517.917175
2041.110107	466.369873
2040.332642	508.098175
2039.555176	472.645935
2038.777466	491.856110
2037.999634	498.203033
2037.221802	536.684631
2036.443726	517.316833
2035.665527	510.805847
2034.887207	533.205811
2034.108765	497.790344
2033.330200	542.662109
2032.551514	500.835815
2031.772705	503.962738
2030.993774	507.088623
2030.214600	551.929016
2029.435425	548.629150
2028.656128	510.044250
2027.876587	554.861816
2027.097046	554.769775
2026.317261	554.677795
2025.537476	490.471832
2024.757446	493.595642
2023.977295	471.081299
2023.197021	544.697571
2022.416626	551.014343
2021.636230	512.486450
2020.855591	560.439026
2020.074707	553.942078
2019.293823	502.627014
2018.512817	547.356445
2017.731689	566.467896
2016.950439	543.974915
2016.168945	499.094116
2015.387451	515.005249
2014.605713	546.902344
2013.823975	556.404724
2013.041992	508.354401
2012.260010	556.219971
2011.477783	536.950806
2010.695435	552.839722
2009.912964	501.626709
2009.130371	533.488831
2008.347656	507.848114
2007.564819	558.859497
2006.781860	565.152588
2005.998779	517.172363
2005.215576	580.924316
2004.432129	542.531433
2003.648682	539.250488
2002.864990	545.541504
2002.081299	545.450867
2001.297363	609.145020
2000.513428	589.911560
1999.729248	526.049866
1998.944946	557.838928
1998.160522	544.997742
1997.375977	567.213318
1996.591309	576.677185
1995.806519	557.468140
1995.021606	538.265442
1994.236572	576.389648
1993.451416	525.350708
1992.666016	563.464294
1991.880615	557.004822
1991.094971	582.371033
1990.309326	591.819641
1989.523438	575.814758
1988.737549	553.453613
1987.951416	537.460327
1987.165161	610.504272
1986.378784	610.402710
1985.592285	594.407898
1984.805664	619.733948
1984.018921	584.677307
1983.232056	632.235962
1982.444946	565.423523
1981.657837	533.569336
1980.870605	584.288208
1980.083130	561.966309
1979.295654	561.872742
1978.507935	631.604858
1977.720093	590.245972
1976.932129	602.839050
1976.144165	574.187866
1975.355957	593.122986
1974.567627	608.880493
1973.779053	580.242554
1972.990479	561.124756
1972.201782	618.085327
1971.412964	605.305786
1970.623901	579.856079
1969.834839	617.776489
1969.045532	582.830444
1968.256226	551.063049
1967.466675	566.803772
1966.677002	607.867004
1965.887207	595.103882
1965.097290	591.839844
1964.307251	626.549500
1963.517090	588.478699
1962.726807	597.870605
1961.936401	610.422180
1961.145874	629.294128
1960.355103	553.307129
1959.564331	632.245605
1958.773315	587.890381
1957.982178	647.835632
1957.191040	638.248657
1956.399658	600.232788
1955.608154	650.670166
1954.816528	600.032593
1954.024780	663.083313
1953.232910	533.535217
1952.440918	653.392700
1951.648682	729.026733
1950.856445	624.775818
1950.063965	627.826477
1949.271484	643.493591
1948.478760	662.309387
1947.685913	605.438965
1946.893066	608.490723
1946.099976	646.216492
1945.306763	620.894592
1944.513428	652.303223
1943.719971	664.797119
1942.926270	604.832886
1942.132568	636.228394
1941.338745	607.780090
1940.544678	667.501892
1939.750610	626.465515
1938.956299	648.393738
1938.161865	629.403320
1937.367310	616.712280
1936.572632	591.441528
1935.777832	600.779053
1934.982910	641.562622
1934.187866	606.867188
1933.392700	691.650085
1932.597290	647.527832
1931.801880	644.276794
1931.006226	669.307495
1930.210571	684.904419
1929.414673	650.236389
1928.618652	637.564819
1927.822510	624.897522
1927.026245	646.770752
1926.229858	593.297241
1925.433350	668.524841
1924.636719	674.689270
1923.839844	624.375427
1923.042969	661.915527
1922.245850	693.169983
1921.448730	649.150208
1920.651367	627.093384
1919.853882	708.497009
1919.056274	667.631104
1918.258545	645.582153
1917.460693	667.407776
1916.662720	632.834839
1915.864624	645.258240
1915.066284	654.545715
1914.267944	613.729614
1913.469360	635.542175
1912.670776	613.524292
1911.871948	644.718628
1911.072998	644.610718
1910.273926	694.561340
1909.474731	713.213867
1908.675415	716.222107
1907.875977	637.925110
1907.076294	697.222961
1906.276611	622.081360
1905.476807	675.110901
1904.676758	646.872986
1903.876587	699.880615
1903.076294	699.763428
1902.275879	618.437256
1901.475342	633.948181
1900.674683	668.188171
1899.873901	649.345093
1899.072998	636.751038
1898.271851	692.818848
1897.470703	683.341980
1896.669312	726.904114
1895.867920	720.543823
1895.066284	704.829529
1894.264526	661.056763
1893.462646	738.887695
1892.660645	688.889526
1891.858521	707.473816
1891.056152	707.355225
1890.253784	691.658752
1889.451172	725.808472
1888.648560	706.999573
1887.845703	709.995056
1887.042725	663.173645
1886.239624	681.740234
1885.436401	687.850830
1884.633057	662.840088
1883.829590	703.177124
1883.025879	681.283020
1882.222168	684.279114
1881.418213	761.910278
1880.614258	724.470703
1879.810059	677.717224
1879.005737	699.361450
1878.201294	724.106140
1877.396729	640.089417
1876.592041	677.262512
1875.787231	701.998352
1874.982178	670.823914
1874.177124	726.603943
1873.371826	723.377319
1872.566406	738.776428
1871.760986	723.134521
1870.955322	757.146790
1870.149536	722.891724
1869.343506	691.750183
1868.537476	694.735535
1867.731323	731.830566
1866.924927	691.401733
1866.118530	678.885925
1865.311890	753.157837
1864.505127	731.339050
1863.698242	752.904846
1862.891235	740.386963
1862.084106	706.191895
1861.276855	709.170105
1860.469482	693.569458
1859.661865	733.697998
1858.854126	770.717712
1858.046387	702.504089
1857.238403	733.328186
1856.430298	717.736450
1855.622070	770.199768
1854.813721	751.514404
1854.005249	748.295898
1853.196533	748.170105
1852.387817	744.953247
1851.578857	778.824280
1850.769775	803.413757
1849.960693	766.204285
1849.151367	766.075439
1848.341919	803.008545
1847.532227	753.465881
1846.722534	802.738464
1845.912720	774.820984
1845.102661	731.480835
1844.292603	697.412903
1843.482300	743.576233
1842.671875	724.941956
1841.861328	768.000793
1841.050659	733.949524
1840.239868	795.492065
1839.428833	786.109802
1838.617798	795.224304
1837.806519	767.354736
1836.995117	804.200317
1836.183716	813.307068
1835.372070	757.726746
1834.560303	766.838196
1833.748291	757.471619
1832.936279	791.209045
1832.124146	818.778870
1831.311768	800.175415
1830.499390	741.576172
1829.686768	796.829346
1828.874023	772.086792
1828.061157	747.352539
1827.248169	814.876831
1826.434937	759.398743
1825.621704	780.788635
1824.808228	786.803955
1823.994751	786.671387
1823.181030	817.263000
1822.367188	764.903015
1821.553223	789.345154
1820.739136	810.708191
1819.924927	746.094238
1819.110474	804.295227
1818.296021	791.882446
1817.481323	782.542542
1816.666626	727.181641
1815.851685	770.007690
1815.036621	818.953735
1814.221436	797.348572
1813.406006	763.485779
1812.590576	781.751160
1811.774902	803.075562
1810.959229	799.875427
1810.143311	793.612244
1809.327271	836.369141
1808.511108	781.092102
1807.694824	836.086914
1806.878418	832.883789
1806.061768	753.142822
1805.245117	829.541748
1804.428223	823.280701
1803.611206	749.701599
1802.794067	856.657227
1801.976807	835.099854
1801.159424	819.666565
1800.341919	804.238525
1799.524170	801.045349
1798.706421	785.625549
1797.888428	788.549316
1797.070313	763.969116
1796.252075	788.283020
1795.433716	803.424133
1794.615234	818.560120
1793.796509	797.045166
1792.977783	799.963806
1792.158813	805.934265
1791.339844	827.164001
1790.520630	842.283020
1789.701294	784.167236
1788.881714	869.454895
1788.062134	786.952515
1787.242432	838.664246
1786.422485	832.424133
1785.602417	862.770081
1784.782349	774.228088
1783.962036	844.192688
1783.141479	825.767334
1782.320923	822.581116
1781.500244	813.303833
1780.679321	819.257446
1779.858398	849.569458
1779.037231	822.024963
1778.215942	831.018066
1777.394531	830.877502
1776.572998	852.037964
1775.751221	830.596497
1774.929443	842.623901
1774.107422	869.854370
1773.285278	869.707275
1772.463013	814.832581
1771.640625	832.934143
1770.818115	829.753845
1769.995483	787.069153
1769.172607	890.240295
1768.349731	868.824707
1767.526611	826.154968
1766.703369	792.610168
1765.880005	856.238403
1765.056519	865.200867
1764.232910	843.807434
1763.409058	895.255615
1762.585083	886.001282
1761.761108	904.053711
1760.936890	861.435486
1760.112549	894.649475
1759.288086	867.208191
1758.463379	848.871216
1757.638672	930.569031
1756.813721	854.645020
1755.988647	909.042786
1755.163574	911.918457
1754.338257	872.385437
1753.512695	911.609497
1752.687134	941.735962
1751.861328	832.583618
1751.035522	826.388367
1750.209473	862.566956
1749.383301	886.629089
1748.557007	807.815186
1747.730591	874.228516
1746.903931	865.006836
1746.077271	864.860168
1745.250366	846.572754
1744.423340	858.521057
1743.596313	867.442810
1742.768921	873.339600
1741.941528	867.148682
1741.114014	863.980713
1740.286255	872.895386
1739.458374	899.926331
1738.630493	848.444336
1737.802368	896.602173
1736.973999	944.743713
1736.145630	835.941223
1735.317139	896.145935
1734.488403	902.027527
1733.659546	838.532104
1732.830566	859.500366
1732.001465	865.385071
1731.172241	850.164368
1730.342896	922.362183
1729.513306	901.109436
1728.683594	861.784424
1727.853882	882.727173
1727.023926	918.723877
1726.193726	936.638062
1725.363525	888.300049
1724.533203	930.298645
1723.702637	900.039063
1722.871948	890.857239
1722.041138	899.733337
1721.210205	941.701355
1720.379150	893.411499
1719.547974	887.244507
1718.716553	890.100891
1717.885010	929.035339
1717.053467	898.816711
1716.221558	850.574951
1715.389648	916.541626
1714.557617	925.399475
1713.725342	850.141418
1712.893066	940.102600
1712.060547	960.963928
1711.227905	933.778015
1710.395142	894.593445
1709.562256	873.430969
1708.729126	906.293152
1707.895874	909.139526
1707.062622	938.984436
1706.229126	842.842712
1705.395508	905.676880
1704.561646	902.524475
1703.727783	899.373047
1702.893677	905.214905
1702.059570	938.026672
1701.225220	910.899719
1700.390747	931.715820
1699.556030	928.561951
1698.721313	925.409119
1697.886353	949.206421
1697.051392	877.192932
1696.216187	951.876709
1695.380859	978.650024
1694.545410	885.722046
1693.709717	903.522034
1692.874023	966.185242
1692.038086	939.103760
1691.202026	968.846558
1690.365845	926.825012
1689.529541	905.742493
1688.692993	923.520691
1687.856445	1004.045654
1687.019653	994.911499
1686.182739	890.189636
1685.345703	958.732178
1684.508545	937.665527
1683.671143	976.319763
1682.833740	919.434998
1681.996094	913.309021
1681.158325	981.789185
1680.320435	960.736328
1679.482422	963.555725
1678.644287	861.981934
1677.805908	963.227356
1676.967407	974.989685
1676.128784	924.144592
1675.290039	932.928894
1674.451172	1004.292175
1673.612183	905.794556
1672.772949	1012.887024
1671.933594	973.992859
1671.094116	935.112000
1670.254517	914.109619
1669.414795	1038.989746
1668.574829	952.492920
1667.734863	961.258545
1666.894653	958.119080
1666.054321	966.880737
1665.213867	936.970642
1664.373169	963.576843
1663.532471	936.651001
1662.691528	948.383118
1661.850464	986.863586
1661.009277	968.863342
1660.167969	941.954773
1659.326538	959.619812
1658.484863	938.662842
1657.643066	947.412476
1656.801147	1027.425537
1655.959106	1015.374451
1655.116943	1009.264282
1654.274658	988.316528
1653.432129	943.636658
1652.589478	973.144531
1651.746704	1002.642334
1650.903809	949.085083
1650.060791	999.334534
1649.217529	990.269226
1648.374146	996.028809
1647.530640	1019.569580
1646.687012	986.798462
1645.843262	989.592712
1644.999390	912.402649
1644.155273	965.559875
1643.311035	977.240234
1642.466675	1000.759888
1641.622192	950.263367
1640.777588	988.578552
1639.932739	1000.246826
1639.087769	970.487793
1638.242798	985.113403
1637.397461	928.746948
1636.552124	975.904724
1635.706665	999.392151
1634.860962	984.439880
1634.015137	1028.608154
1633.169189	933.863708
1632.323120	1016.437256
1631.476929	998.537903
1630.630493	1004.274597
1629.783936	977.523621
1628.937256	938.970825
1628.090454	971.284729
1627.243530	929.794373
1626.396484	959.147522
1625.549194	976.687744
1624.701782	1017.823608
1623.854248	970.454041
1623.006592	976.186401
1622.158691	911.147949
1621.310791	952.266663
1620.462646	987.475952
1619.614380	993.201294
1618.765991	1001.871277
1617.917358	1022.322998
1617.068726	1030.984985
1616.219849	942.453430
1615.370850	1033.576538
1614.521729	1039.287842
1613.672363	965.518555
1612.822998	997.727783
1611.973389	1032.868652
1611.123657	1067.997437
1610.273804	1053.106323
1609.423828	999.985413
1608.573608	1005.695374
1607.723389	905.558777
1606.872925	999.471497
1606.022339	993.421997
1605.171509	996.190369
1604.320679	981.329041
1603.469604	1063.413818
1602.618408	989.803955
1601.767090	1004.317322
1600.915649	1065.803223
1600.064087	1053.878052
1599.212280	924.553406
1598.360352	997.759521
1597.508301	1021.061096
1596.656128	1053.155396
1595.803833	1035.376343
1594.951294	988.277527
1594.098633	952.923157
1593.245850	996.733215
1592.392944	1014.148621
1591.539795	1031.557983
1590.686646	996.220337
1589.833252	1072.217896
1588.979736	966.587952
1588.126099	1022.064514
1587.272217	942.831787
1586.418335	1074.409546
1585.564209	983.486816
1584.709961	971.611816
1583.855591	962.666931
1583.000977	1021.012390
1582.146362	991.586731
1581.291504	994.341064
1580.436523	1017.562561
1579.581421	1049.546631
1578.726074	1061.058472
1577.870605	1005.348328
1577.015137	1005.175598
1576.159424	1025.453613
1575.303467	987.304199
1574.447510	1030.942383
1573.591309	1042.445313
1572.734985	1004.312561
1571.878540	1039.168091
1571.021973	998.130432
1570.165161	1047.565063
1569.308350	1050.302490
1568.451294	1050.121948
1567.594116	962.446411
1566.736694	1064.341064
1565.879272	1023.341064
1565.021606	1081.465210
1564.163818	1063.792236
1563.305908	1008.243347
1562.447876	1016.810486
1561.589600	1034.113647
1560.731201	1036.848267
1559.872681	1059.965942
1559.014038	1013.199707
1558.155273	1062.512329
1557.296265	1036.135132
1556.437134	1050.506836
1555.577881	1035.778687
1554.718506	1070.508301
1553.859009	1023.788330
1552.999268	994.532227
1552.139404	1069.955811
1551.279419	1090.120605
1550.419312	1005.644836
1549.558960	1107.181274
1548.698608	996.582214
1547.838013	1002.220642
1546.977173	1010.761597
1546.116333	1028.011475
1545.255249	1042.351929
1544.394165	987.015686
1543.532837	1015.870605
1542.671265	1047.617554
1541.809692	1119.974243
1540.947876	1026.949829
1540.085938	1047.076294
1539.223877	1061.395874
1538.361694	1046.715576
1537.499268	1069.727173
1536.636841	1055.050415
1535.774170	1095.440552
1534.911377	970.659607
1534.048340	1019.741211
1533.185303	1065.909424
1532.322021	1025.181763
1531.458618	1080.019409
1530.594971	1071.148315
1529.731323	1108.592163
1528.867432	1093.931030
1528.003418	1070.594482
1527.139282	1093.553833
1526.275024	1070.225342
1525.410522	1046.904785
1524.545898	1049.615723
1523.681152	1075.453735
1522.816284	1078.158691
1521.951172	1043.292725
1521.086060	1083.565796
1520.220703	1074.711914
1519.355225	1086.080566
1518.489502	1117.661255
1517.623779	1071.268188
1516.757813	1059.535278
1515.891724	1068.011963
1515.025513	1041.853516
1514.159058	1056.101318
1513.292480	1110.734497
1512.425781	1026.891479
1511.558960	1069.974731
1510.692017	1089.974731
1509.824829	1109.967773
1508.957520	1104.010986
1508.090088	1077.882080
1507.222534	999.894348
1506.354736	1123.606445
1505.486938	1094.607056
1504.618896	1077.137695
1503.750610	1022.240173
1502.882324	1094.039917
1502.013794	1079.458130
1501.145142	1093.661865
1500.276367	1116.493408
1499.407471	1061.636353
1498.538330	1095.971680
1497.669067	1081.401978
1496.799683	1112.846313
1495.930176	1040.777100
1495.060547	1100.963379
1494.190674	1054.787842
1493.320679	1140.812988
1492.450562	1137.742676
1491.580200	1134.673340
1490.709717	1065.546997
1489.839233	1071.105957
1488.968384	1079.533936
1488.097534	1151.112427
1487.226440	1102.121460
1486.355347	1162.192749
1485.483887	1073.049072
1484.612427	1072.863525
1483.740845	1132.908447
1482.869019	1098.301025
1481.997070	1149.719360
1481.124878	1115.120728
1480.252686	1169.384399
1479.380249	1109.003540
1478.507690	1108.811646
1477.635010	1088.567139
1476.762207	1088.378784
1475.889160	1156.918213
1475.015991	1173.896851
1474.142700	1159.380371
1473.269165	1202.112183
1472.395630	1127.500488
1471.521851	1264.641968
1470.647949	1235.816040
1469.773804	1255.623413
1468.899658	1263.984985
1468.025269	1386.711670
1467.150757	1486.526123
1466.276001	1474.835815
1465.401245	1508.872803
1464.526245	1534.326416
1463.651123	1585.481567
1462.775879	1616.625366
1461.900391	1764.843384
1461.024780	1918.720459
1460.149048	1941.225830
1459.273193	1895.221436
1458.397217	2048.995605
1457.520996	1977.309082
1456.644653	1996.935669
1455.768188	1888.203125
1454.891479	1836.543823
1454.014648	1804.861206
1453.137695	1730.427856
1452.260620	1681.672729
1451.383423	1695.630127
1450.505981	1638.349976
1449.628418	1629.519409
1448.750732	1526.697388
1447.872803	1515.041260
1446.994873	1429.358521
1446.116699	1400.642212
1445.238403	1434.555298
1444.359863	1391.618652
1443.481201	1399.913208
1442.602417	1411.049805
1441.723511	1339.695801
1440.844482	1333.775513
1439.965210	1452.965820
1439.085815	1452.713623
1438.206299	1418.352783
1437.326538	1381.161865
1436.446777	1557.089111
1435.566772	1519.886841
1434.686646	1533.825073
1433.806274	1516.519165
1432.925781	1462.306641
1432.045166	1456.374756
1431.164429	1365.291626
1430.283569	1277.077881
1429.402466	1271.181152
1428.521240	1217.057983
1427.639893	1199.827759
1426.758301	1185.439331
1425.876709	1230.601196
1424.994873	1168.017456
1424.112793	1176.317993
1423.230713	1144.939453
1422.348389	1136.239868
1421.465942	1138.875366
1420.583374	1107.519531
1419.700562	1121.487183
1418.817627	1081.650635
1417.934570	1118.266235
1417.051392	1118.071777
1416.167969	1146.178101
1415.284546	1160.126587
1414.400757	1117.488647
1413.516968	1159.723145
1412.633057	1156.693359
1411.748901	1162.147339
1410.864624	1142.155273
1409.980103	1110.863770
1409.095459	1153.062500
1408.210815	1082.220825
1407.325806	1152.661255
1406.440796	1158.109985
1405.555542	1166.380859
1404.670166	1120.999146
1403.784668	1109.511230
1402.899048	1086.736572
1402.013184	1078.080811
1401.127197	1077.893066
1400.241089	1111.560059
1399.354736	1122.649414
1398.468262	1130.914673
1397.581665	1136.357178
1396.694946	1096.689819
1395.807983	1093.680054
1394.920898	1141.400146
1394.033691	1118.659058
1393.146362	1115.646851
1392.258789	1121.086182
1391.371094	1073.013550
1390.483276	1202.354248
1389.595337	1134.576904
1388.707153	1103.416016
1387.818848	1142.624512
1386.930420	1117.100708
1386.041748	1083.145630
1385.152954	1136.401489
1384.264038	1169.951904
1383.375000	1158.500366
1382.485718	1141.430054
1381.596313	1208.692993
1380.706787	1171.946655
1379.817139	1222.321167
1378.927246	1199.632446
1378.037231	1252.793335
1377.147095	1261.000244
1376.256714	1232.700562
1375.366333	1283.020264
1374.475586	1150.867676
1373.584839	1226.442505
1372.693970	1259.900757
1371.802856	1220.403564
1370.911499	1290.316406
1370.020142	1183.518555
1369.128540	1191.724121
1368.236816	1177.498291
1367.344971	1255.778931
1366.453003	1275.177856
1365.560791	1238.527954
1364.668457	1232.708618
1363.775879	1352.941528
1362.883301	1291.091431
1361.990479	1383.270752
1361.097534	1388.628418
1360.204346	1377.189331
1359.311035	1413.331543
1358.417603	1393.497437
1357.524048	1426.826416
1356.630249	1457.346436
1355.736450	1409.547607
1354.842285	1358.969116
1353.948120	1358.731689
1353.053711	1274.636597
1352.159180	1226.902832
1351.264526	1276.985474
1350.369751	1254.411865
1349.474731	1192.739990
1348.579590	1214.874023
1347.684204	1169.984497
1346.788818	1231.200317
1345.893188	1267.272705
1344.997314	1208.442993
1344.101440	1258.458374
1343.205322	1174.541748
1342.309082	1199.440918
1341.412720	1255.009399
1340.516113	1313.346802
1339.619385	1221.115234
1338.722534	1273.863037
1337.825439	1304.296753
1336.928223	1301.282104
1336.030884	1306.626465
1335.133423	1387.177246
1334.235718	1470.484741
1333.337891	1459.089355
1332.439941	1534.002930
1331.541870	1622.807861
1330.643555	1750.544556
1329.745117	1833.715332
1328.846436	1825.048096
1327.947754	1908.176514
1327.048828	1816.065796
1326.149780	1776.819092
1325.250488	1656.962036
1324.351074	1601.078857
1323.451538	1500.748535
1322.551880	1483.813599
1321.651978	1377.982544
1320.751953	1397.185059
1319.851807	1285.851563
1318.951416	1288.403076
1318.050903	1332.597290
1317.150269	1282.400146
1316.249512	1271.074341
1315.348511	1212.581055
1314.447388	1206.819946
1313.546021	1270.406128
1312.644653	1261.863525
1311.743042	1200.639893
1310.841309	1158.844116
1309.939331	1172.500244
1309.037231	1175.066040
1308.135010	1191.485474
1307.232666	1227.291870
1306.330078	1252.005981
1305.427368	1243.478027
1304.524536	1257.104736
1303.621460	1220.894165
1302.718262	1215.144043
1301.814941	1253.675903
1300.911499	1234.086792
1300.007813	1220.037720
1299.104004	1239.185913
1298.199951	1194.719604
1297.295898	1288.522339
1296.391602	1235.769043
1295.487061	1227.259888
1294.582520	1251.916992
1293.677734	1254.460449
1292.772827	1281.866699
1291.867676	1176.679565
1290.962402	1181.996338
1290.057007	1209.400757
1289.151489	1176.059937
1288.245728	1153.771606
1287.339844	1148.049561
1286.433838	1175.440430
1285.527588	1161.440186
1284.621216	1119.861938
1283.714722	1125.180786
1282.808105	1191.158569
1281.901245	1149.596924
1280.994263	1113.562500
1280.087036	1091.319946
1279.179810	1096.638916
1278.272217	1118.485352
1277.364624	1046.674194
1276.456787	1082.291260
1275.548828	1117.895752
1274.640747	1120.452148
1273.732544	1128.512573
1272.824097	1078.778442
1271.915405	1117.109863
1271.006714	1081.150146
1270.097778	1056.205200
1269.188721	1111.020508
1268.279541	1099.826904
1267.370117	1066.644409
1266.460571	1047.216553
1265.550781	1052.528564
1264.640991	1068.829224
1263.730957	1046.664063
1262.820679	1068.453247
1261.910400	1010.595398
1260.999878	1035.128784
1260.089233	1081.615356
1259.178345	1026.530396
1258.267334	1097.700195
1257.356201	1089.275635
1256.444824	1102.800293
1255.533447	1132.776978
1254.621704	1105.154419
1253.709961	1102.218018
1252.797974	1019.783325
1251.885864	1123.756836
1250.973633	1087.933960
1250.061157	1112.401489
1249.148560	1120.423828
1248.235840	1068.186646
1247.322876	1051.567749
1246.409790	1092.452026
1245.496582	1045.722290
1244.583130	1100.278198
1243.669556	1108.293945
1242.755859	1028.753296
1241.841919	1083.283325
1240.927856	1063.946777
1240.013672	1080.166870
1239.099365	1038.964722
1238.184814	1055.183472
1237.270142	1079.595825
1236.355225	1103.999512
1235.440186	1051.893311
1234.525024	1027.122437
1233.609741	1103.415649
1232.694214	1092.298096
1231.778564	1067.533081
1230.862671	1091.912842
1229.946777	1058.968628
1229.030640	1083.341187
1228.114258	1085.878418
1227.197876	1121.149048
1226.281128	1107.314331
1225.364380	1137.114746
1224.447388	1071.480225
1223.530273	1177.602539
1222.613037	1163.767456
1221.695557	1286.185669
1220.777954	1198.775024
1219.860229	1283.007690
1218.942261	1299.122314
1218.024170	1252.601196
1217.105957	1263.270264
1216.187500	1227.660156
1215.268921	1211.113770
1214.350220	1159.198486
1213.431274	1183.479614
1212.512207	1137.027832
1211.593018	1101.471069
1210.673706	1114.872559
1209.754150	1120.113037
1208.834351	1136.224609
1207.914551	1174.072510
1206.994507	1092.346680
1206.074219	1111.171265
1205.153931	1029.485352
1204.233398	1097.199341
1203.312744	1091.574707
1202.391846	1151.109131
1201.470825	1080.331299
1200.549683	1074.712402
1199.628296	1060.955322
1198.706787	1090.610229
1197.785156	1101.267334
1196.863281	1092.936646
1195.941284	1011.397705
1195.019165	1024.774048
1194.096802	1076.093506
1193.174438	1032.541870
1192.251709	1102.808838
1191.328979	1051.140381
1190.406006	1045.537231
1189.482788	1067.017578
1188.559570	1020.798035
1187.636108	1017.910217
1186.712402	977.129150
1185.788696	982.368713
1184.864746	1166.187256
1183.940552	1049.653320
1183.016357	1071.106079
1182.091919	1054.690430
1181.167236	1046.392090
1180.242554	1016.469727
1179.317505	1135.217285
1178.392456	1078.265381
1177.467163	1040.247314
1176.541748	1083.286499
1175.616211	1104.702515
1174.690430	1088.303833
1173.764526	1085.411011
1172.838501	1123.012451
1171.912231	1246.970703
1170.985840	1279.132935
1170.059204	1246.528931
1169.132446	1249.005615
1168.205566	1345.881958
1167.278564	1423.847168
1166.351318	1361.582153
1165.423828	1396.385254
1164.496338	1358.404297
1163.568604	1366.247803
1162.640747	1312.119751
1161.712646	1276.867554
1160.784424	1338.587891
1159.856079	1292.571899
1158.927490	1265.418945
1157.998779	1308.264893
1157.069946	1361.861450
1156.140869	1383.147461
1155.211670	1447.473389
1154.282349	1495.636597
1153.352783	1557.230103
1152.423096	1626.868774
1151.493164	1674.974243
1150.563232	1628.979614
1149.632935	1628.690552
1148.702637	1480.609253
1147.772095	1536.766235
1146.841431	1380.695190
1145.910522	1340.164551
1144.979492	1313.074463
1144.048340	1237.668457
1143.116943	1178.394775
1142.185425	1253.331665
1141.253784	1137.726563
1140.321899	1156.304321
1139.389893	1180.240234
1138.457764	1139.802368
1137.525391	1136.918457
1136.592896	1120.630859
1135.660278	1029.296265
1134.727417	1015.713440
1133.794434	1077.161621
1132.861206	1055.537964
1131.927856	1020.529236
1130.994385	1084.621704
1130.060669	1143.336304
1129.126831	1076.204834
1128.192871	1038.540527
1127.258667	1145.402832
1126.324341	1040.846924
1125.389893	1008.559265
1124.455200	1110.020386
1123.520386	1099.125854
1122.585327	1037.433105
1121.650146	1090.715088
1120.714844	994.298645
1119.779297	1076.965210
1118.843628	1026.007690
1117.907837	1127.339111
1116.971802	1105.770996
1116.035645	1065.517212
1115.099365	1057.317749
1114.162842	1070.477173
1113.226196	1064.948608
1112.289307	1075.433350
1111.352417	1021.880066
1110.415161	1115.064819
1109.477905	1093.529175
1108.540405	1053.334473
1107.602661	1069.144165
1106.664917	1090.279541
1105.726807	1087.420166
1104.788696	1071.237915
1103.850342	1121.668823
1102.911865	1156.098755
1101.973145	1078.655762
1101.034302	1105.092407
1100.095337	1112.882813
1099.156128	1072.755615
1098.216797	1104.501953
1097.277344	1016.492920
1096.337646	1098.787354
1095.397827	1114.551758
1094.457764	970.737244
1093.517700	1015.768616
1092.577271	1129.907593
1091.636841	1057.936646
1090.696167	999.279602
1089.755249	1036.302002
1088.814209	1065.341187
1087.873047	1094.369751
1086.931763	1070.272827
1085.990234	1083.358398
1085.048584	1080.510376
1084.106689	1061.737305
1083.164673	1016.432129
1082.222412	1029.517822
1081.280151	1130.145264
1080.337524	1063.632446
1079.394897	1042.226807
1078.452026	1065.904419
1077.509033	1116.083862
1076.565796	1097.330811
1075.622437	1094.484863
1074.678955	1086.340698
1073.735229	1054.357178
1072.791382	1043.574341
1071.847290	1083.110962
1070.903076	1117.337891
1069.958740	1095.960449
1069.014160	1040.182495
1068.069458	1071.752441
1067.124512	1008.061096
1066.179565	1068.724365
1065.234253	1118.786255
1064.288940	1108.008789
1063.343384	1070.795654
1062.397583	1070.604492
1061.451660	1043.983276
1060.505615	1006.801392
1059.559448	1077.956909
1058.613037	1098.896851
1057.666382	1117.188232
1056.719727	1074.738525
1055.772827	1085.107056
1054.825684	1034.758911
1053.878418	1182.370239
1052.931030	1081.886475
1051.983398	1113.352417
1051.035645	1142.169189
1050.087769	1097.130371
1049.139648	1089.023560
1048.191406	1128.374756
1047.242920	1136.080688
1046.294312	1125.335693
1045.345581	1169.928955
1044.396606	1167.085205
1043.447510	1274.871826
1042.498291	1190.369751
1041.548828	1237.552368
1040.599121	1155.719727
1039.649414	1295.016846
1038.699341	1247.414917
1037.749268	1307.709351
1036.798950	1246.968384
1035.848511	1259.896606
1034.897827	1275.449829
1033.947021	1220.005737
1032.996094	1232.931519
1032.044922	1124.947144
1031.093506	1145.769043
1030.142090	1161.328491
1029.190430	1042.906860
1028.238525	1126.768066
1027.286499	1116.062134
1026.334351	1026.593262
1025.381958	1131.412964
1024.429443	1144.333252
1023.476807	1104.766113
1022.523926	1083.578735
1021.570923	1036.166870
1020.617737	1122.531494
1019.664368	1124.952637
1018.710815	1090.667603
1017.757080	1100.957397
1016.803223	1108.622681
1015.849121	1048.155029
1014.894897	1084.645996
1013.940491	1121.123779
1012.985962	1126.160767
1012.031189	1042.166504
1011.076294	1052.451782
1010.121216	1047.027954
1009.165955	1177.695190
1008.210510	1153.934204
1007.254944	1090.939331
1006.299133	1103.822144
1005.343201	1103.624146
1004.387085	1129.573608
1003.430786	1131.985229
1002.474365	1204.968994
1001.517700	1207.366089
1000.560913	1322.115967
999.603943	1371.514526
998.646790	1397.387695
997.689514	1342.296021
996.731995	1300.279053
995.774353	1273.940186
994.816528	1278.931641
993.858521	1221.290894
992.900330	1166.279907
991.942017	1179.113770
990.983459	1204.983887
990.024780	1095.243164
989.065918	1087.224731
988.106873	1047.927612
987.147705	1149.385742
986.188293	1115.303223
985.228760	1130.735107
984.269043	1146.161377
983.309143	1093.866577
982.349060	1117.105713
981.388794	1124.715454
980.428406	1127.116333
979.467834	1139.926636
978.507019	1235.999634
977.546082	1227.972534
976.585022	1191.335327
975.623718	1334.159668
974.662292	1341.720459
973.700623	1416.872437
972.738831	1484.199341
971.776855	1429.357056
970.814758	1423.903198
969.852417	1366.493286
968.889954	1272.740112
967.927246	1168.632690
966.964417	1199.580322
966.001404	1178.596313
965.038208	1173.193115
964.074890	1206.718140
963.111328	1172.770874
962.147644	1131.053223
961.183777	1097.131592
960.219727	1130.646118
959.255493	1171.926636
958.291077	1093.946899
957.326538	1132.627319
956.361755	1083.187622
955.396851	1199.582642
954.431763	1132.015625
953.466492	1043.753174
952.501038	1092.765503
951.535461	1069.267456
950.569641	1071.663330
949.603699	1081.822632
948.637573	1060.926758
947.671265	1133.176147
946.704773	1132.971924
945.738098	1130.181519
944.771240	1106.705933
943.804260	1160.797729
942.837097	1201.945801
941.869751	1134.535645
940.902222	1271.277710
939.934509	1247.797607
938.966614	1317.312744
937.998535	1175.037720
937.030334	1174.825806
936.061951	1146.216675
935.093323	1189.888794
934.124573	1140.641968
933.155640	1155.917358
932.186584	1098.955200
931.217285	1052.330688
930.247864	1067.613403
929.278198	1075.155762
928.308411	1098.162354
927.338440	1162.398682
926.368286	1082.304565
925.397949	1133.638306
924.427429	1081.913940
923.456787	1156.408691
922.485901	1084.098389
921.514893	1127.670776
920.543701	1068.262329
919.572327	1098.953369
918.600769	1088.462036
917.629028	1168.020264
916.657104	1160.092529
915.685059	1085.300659
914.712769	1100.532715
913.740356	1115.759155
912.767761	1125.839233
911.794983	1146.195313
910.822021	1115.154541
909.848877	1145.781250
908.875549	1099.340210
907.902039	1168.479980
906.928406	1116.916260
905.954590	1165.490479
904.980530	1188.380005
904.006348	1175.334106
903.031982	1180.253174
902.057434	1244.172363
901.082703	1190.085693
900.107849	1251.415527
899.132751	1246.061401
898.157532	1253.526489
897.182068	1273.803589
896.206482	1209.510254
895.230713	1101.684937
894.254761	1178.333496
893.278625	1203.731689
892.302307	1180.467896
891.325806	1144.411377
890.349182	1149.323853
889.372314	1097.930298
888.395325	1123.319702
887.418091	1141.024902
886.440735	1094.776367
885.463196	1232.679199
884.485474	1219.671143
883.507568	1122.303345
882.529480	1142.548462
881.551270	1132.119263
880.572815	1172.796021
879.594238	1124.045410
878.615417	1164.708740
877.636475	1136.406860
876.657349	1192.372681
875.677979	1130.889526
874.698486	1181.731445
873.718811	1148.343018
872.739014	1114.966553
871.758972	1181.089233
870.778748	1150.269287
869.798401	1173.011108
868.817810	1188.095825
867.837097	1205.724243
866.856140	1187.665161
865.875061	1167.064453
864.893799	1256.022827
863.912354	1230.322632
862.930725	1163.882935
861.948914	1184.042603
860.966919	1211.832397
859.984741	1155.613647
859.002441	1211.392822
858.019897	1218.806519
857.037231	1256.745728
856.054321	1203.103027
855.071289	1228.315674
854.088074	1240.806030
853.104614	1235.496582
852.121033	1281.023193
851.137268	1265.543213
850.153320	1318.670044
849.169189	1267.624146
848.184937	1328.350830
847.200439	1368.740234
846.215759	1386.264404
845.230896	1457.090210
844.245911	1631.949341
843.260681	1811.819946
842.275330	1928.197632
841.289795	2062.289307
840.304016	1957.931396
839.318115	1896.718506
838.332031	1660.594849
837.345764	1629.875610
836.359314	1482.587891
835.372681	1502.589478
834.385864	1446.581299
833.398865	1362.730835
832.411743	1446.055542
831.424377	1428.068481
830.436829	1435.403687
829.449158	1346.553711
828.461243	1374.146118
827.473206	1338.473511
826.484924	1393.884399
825.496521	1267.167114
824.507935	1350.387573
823.519104	1264.177979
822.530151	1327.145386
821.541016	1316.794312
820.551697	1346.878540
819.562195	1316.315308
818.572510	1323.654053
817.582642	1310.785156
816.592590	1361.049438
815.602356	1401.196655
814.611938	1448.901855
813.621399	1456.209473
812.630615	1564.446289
811.639648	1776.080200
810.648560	1851.428345
809.657227	1974.665527
808.665771	2165.937256
807.674072	2140.333008
806.682251	1963.505005
805.690186	1862.343994
804.697998	1607.522461
803.705566	1549.288818
802.713013	1445.739502
801.720276	1397.629395
800.727356	1377.232422
799.734253	1339.221558
798.740906	1313.808838
797.747437	1283.372437
796.753784	1303.266235
795.759949	1295.482300
794.765930	1312.851440
793.771729	1274.893433
792.777344	1292.259888
791.782776	1281.969727
790.788025	1226.445435
789.793091	1241.298340
788.798035	1306.391602
787.802734	1218.239258
786.807251	1210.482910
785.811584	1257.969604
784.815796	1199.999634
783.819763	1237.430786
782.823547	1189.523682
781.827148	1174.252197
780.830627	1204.141602
779.833862	1186.364624
778.836975	1156.055664
777.839844	1198.468018
776.842529	1183.208496
775.845093	1210.562378
774.847412	1192.800171
773.849609	1202.604248
772.851563	1217.414551
771.853394	1164.597534
770.854980	1201.945679
769.856445	1159.165161
768.857666	1178.978516
767.858765	1221.308838
766.859680	1246.108032
765.860352	1210.855713
764.860901	1213.135864
763.861206	1220.416870
762.861389	1197.690308
761.861389	1209.971191
760.861145	1152.262085
759.860779	1182.039795
758.860168	1201.812378
757.859436	1231.570190
756.858521	1188.884888
755.857361	1208.645264
754.856079	1148.502441
753.854614	1220.684814
752.852905	1170.545044
751.851074	1232.715454
750.848999	1162.632324
749.846802	1222.286865
748.844421	1202.111206
747.841797	1211.865601
746.839050	1251.533447
745.836121	1266.260376
744.832947	1236.122559
743.829651	1235.896484
742.826111	1230.687866
741.822449	1203.063721
740.818604	1240.198975
739.814514	1244.951782
738.810303	1284.555176
737.805847	1224.584229
736.801270	1224.360107
735.796448	1239.064453
734.791504	1159.233643
733.786316	1275.918457
732.781006	1233.410645
731.775452	1215.781006
730.769775	1190.700317
729.763855	1277.469482
728.757751	1269.780884
727.751526	1217.375122
726.745056	1237.023926
725.738403	1316.270264
724.731628	1266.367676
723.724609	1253.722656
722.717407	1270.868042
721.710083	1196.183838
720.702515	1267.921021
719.694763	1225.515137
718.686829	1309.622192
717.678711	1267.224121
716.670410	1234.759155
715.661987	1234.532715
714.653320	1239.263550
713.644470	1216.733643
712.635437	1266.062866
711.626221	1273.262207
710.616821	1238.354736
709.607178	1280.223999
708.597412	1270.086060
707.587463	1277.279053
706.577332	1269.620117
705.567017	1271.861572
704.556458	1212.252686
703.545776	1256.553833
702.534912	1263.742432
701.523804	1270.928345
700.512573	1231.140503
699.501099	1272.933716
698.489502	1260.343750
697.477661	1307.057739
696.465698	1242.588501
695.453491	1242.360474
694.441101	1274.235107
693.428589	1244.373169
692.415833	1214.522217
691.402893	1226.639648
690.389771	1246.155396
689.376465	1233.590576
688.362976	1203.763306
687.349304	1309.592041
686.335449	1269.898193
685.321411	1294.318604
684.307190	1274.361450
683.292725	1173.084351
682.278137	1271.429199
681.263367	1236.705688
680.248352	1305.445313
679.233215	1327.369263
678.217834	1292.654419
677.202332	1292.416748
676.186584	1334.021118
675.170654	1257.489868
674.154541	1267.100098
673.138306	1301.306274
672.121826	1278.931519
671.105164	1185.253174
670.088318	1261.251099
669.071289	1273.309692
668.054016	1216.548950
667.036621	1307.242432
666.019043	1343.853394
665.001282	1210.964966
663.983276	1245.124268
662.965149	1239.984253
661.946777	1242.211060
660.928223	1224.800781
659.909546	1337.462036
658.890625	1239.071533
657.871521	1300.172363
656.852234	1258.236938
655.832764	1270.266602
654.813110	1225.900269
653.793274	1333.533813
652.773254	1259.761353
651.752991	1235.024902
650.732605	1310.747192
649.711975	1315.404785
648.691223	1317.611572
647.670227	1329.612061
646.649048	1331.815308
645.627747	1307.092407
644.606201	1316.640747
643.584473	1360.441162
642.562561	1306.369873
641.540466	1315.912842
640.518127	1266.760620
639.495667	1344.768188
638.473022	1342.075684
637.450134	1356.493042
636.427063	1334.249756
635.403870	1377.981812
634.380432	1355.742676
633.356812	1274.895752
632.333008	1308.846924
631.309021	1337.902588
630.284851	1364.506592
629.260498	1425.268066
628.235901	1327.401978
627.211182	1380.828857
626.186218	1334.229736
625.161133	1424.216309
624.135803	1389.817627
623.110291	1370.058472
622.084595	1394.179321
621.058716	1362.241943
620.032654	1352.244507
619.006409	1390.971313
617.979919	1434.554932
616.953308	1370.976685
615.926453	1390.200928
614.899414	1377.773071
613.872253	1433.495483
612.844849	1433.230713
611.817261	1464.593384
610.789490	1398.647217
609.761475	1386.228882
608.733337	1449.192505
607.705017	1419.751831
606.676453	1400.044312
605.647705	1431.378052
604.618774	1433.543213
603.589722	1421.131836
602.560425	1442.728638
601.530884	1427.891602
600.501221	1383.924683
599.471375	1451.638550
598.441284	1388.267090
597.411011	1482.647461
596.380615	1409.588867
595.349976	1353.537231
594.319153	1426.044312
593.288147	1420.930908
592.256897	1430.365479
591.225525	1398.590088
590.193970	1422.565796
589.162170	1417.456665
588.130188	1407.504150
587.098022	1380.600464
586.065674	1411.826538
585.033142	1382.510620
584.000427	1365.309448
582.967468	1391.680176
581.934387	1413.201294
580.901062	1371.809570
579.867554	1400.583130
578.833862	1366.464478
577.799988	1373.465698
576.765930	1368.376099
575.731628	1452.723877
574.697205	1375.119385
573.662537	1461.850830
572.627747	1398.768311
571.592712	1374.355225
570.557434	1429.644287
569.522034	1373.845947
568.486450	1334.966675
567.450623	1416.781616
566.414673	1402.040039
565.378479	1409.018311
564.342102	1346.038452
563.305542	1406.084229
562.268799	1458.873413
561.231812	1453.781128
560.194702	1402.891724
559.157349	1402.631592
558.119812	1361.408691
557.082092	1457.521240
556.044189	1442.798828
555.006042	1387.141846
553.967773	1439.855835
552.929260	1348.109741
551.890625	1376.742310
550.851746	1455.899658
549.812683	1465.253418
548.773376	1414.464966
547.733948	1375.720703
546.694275	1320.158203
545.654419	1440.123779
544.614441	1425.433838
543.574158	1381.909424
542.533752	1388.861450
541.493164	1448.664307
540.452332	1465.209106
539.411316	1390.489380
538.370178	1397.434448
537.328735	1500.402588
536.287170	1495.323486
535.245422	1471.048218
534.203430	1533.156860
533.161255	1523.276611
532.118896	1491.814087
531.076355	1450.771484
530.033630	1575.173096
528.990723	1550.909546
527.947571	1533.844849
526.904236	1514.390259
525.860718	1470.985352
524.817017	1542.570801
523.773132	1511.150879
522.729004	1429.460205
521.684692	1527.346680
520.640198	1469.618286
519.595520	1464.558838
518.550659	1454.715942
517.505615	1526.210815
516.460327	1368.072388
515.414856	1504.121338
514.369202	1470.369751
513.323364	1398.384155
512.277283	1422.023438
511.231079	1438.485352
510.184631	1428.661377
509.138000	1421.229614
508.091187	1330.214355
507.044159	1394.435547
505.996948	1396.563232
504.949554	1358.113770
503.901947	1367.406494
502.854126	1352.836060
501.806152	1388.366821
500.757965	1385.723267
499.709564	1402.157471
