#Wave		#Intensity
3200.600830	71.567490
3200.007080	71.567490
3199.413086	21.046080
3198.819092	58.920116
3198.224854	50.495323
3197.630615	58.902306
3197.036377	84.133430
3196.442139	96.738823
3195.847656	79.902596
3195.252930	42.047642
3194.658447	58.857800
3194.063721	84.069855
3193.468750	63.042858
3192.873779	50.426659
3192.278809	71.426964
3191.683838	54.612362
3191.088623	105.007889
3190.493164	88.193283
3189.897949	109.175171
3189.302490	50.380920
3188.706787	75.559952
3188.111328	117.519920
3187.515381	96.519615
3186.919678	54.546310
3186.323730	58.733295
3185.727783	79.697411
3185.131592	83.879318
3184.535400	37.739983
3183.939209	83.853935
3183.342773	67.072998
3182.746338	75.445702
3182.149902	62.861908
3181.553223	50.281914
3180.956543	83.790504
3180.359619	83.777824
3179.762695	96.329910
3179.165771	67.001968
3178.568604	71.178818
3177.971436	100.472527
3177.374268	54.414379
3176.776855	71.146492
3176.179443	58.582359
3175.581787	96.227875
3174.984131	62.747807
3174.386475	92.016182
3173.788574	75.274567
3173.190674	41.812870
3172.592773	79.432419
3171.994629	62.700306
3171.396484	54.332035
3170.798340	104.468857
3170.199951	58.493698
3169.601563	75.194786
3169.002930	87.713966
3168.404297	83.524452
3167.805664	41.755898
3167.206787	45.924530
3166.607910	70.963516
3166.008789	79.300148
3165.409912	108.499550
3164.810547	50.069126
3164.211426	95.951279
3163.612061	83.423248
3163.012695	83.410606
3162.413086	75.058167
3161.813477	75.046791
3161.213623	45.854977
3160.614014	91.696045
3160.013916	70.845299
3159.414063	70.834557
3158.813965	62.491600
3158.213867	49.985703
3157.613525	37.483593
3157.013184	54.134754
3156.412598	54.126545
3155.812256	66.607185
3155.211426	83.246353
3154.610840	104.042160
3154.010010	95.704269
3153.409180	104.010597
3152.808105	87.355652
3152.207031	70.705750
3151.605957	74.853554
3151.004639	87.315903
3150.403320	91.459923
3149.801758	99.759323
3149.200195	70.652130
3148.598633	74.796791
3147.996826	24.928480
3147.395020	78.928207
3146.793213	62.302284
3146.191162	95.515671
3145.589111	83.044502
3144.986816	78.880302
3144.384766	66.415436
3143.782227	103.758362
3143.179932	107.892319
3142.577393	70.534264
3141.974609	87.117340
3141.371826	78.808479
3140.769043	111.973999
3140.166260	49.758663
3139.563232	58.042961
3138.960205	49.743553
3138.356934	116.050667
3137.753662	70.448631
3137.150391	66.294525
3136.546875	82.855568
3135.943359	99.411583
3135.339600	49.698242
3134.735840	111.804054
3134.132080	107.646812
3133.528076	95.211555
3132.924072	70.363068
3132.320068	115.874504
3131.715820	45.515209
3131.111572	99.290825
3130.507080	91.002754
3129.902588	103.396507
3129.298096	86.839867
3128.693604	70.288261
3128.088867	66.143600
3127.483887	90.933624
3126.878906	95.052521
3126.273926	115.698524
3125.668945	61.971931
3125.063721	115.663353
3124.458252	70.213501
3123.853027	119.757767
3123.247559	78.450058
3122.641846	82.566452
3122.036133	74.298508
3121.430420	94.922539
3120.824707	99.034546
3120.218750	86.642052
3119.612549	111.379982
3119.006592	70.117470
3118.400391	90.726456
3117.793945	123.699074
3117.187500	70.085480
3116.581055	86.563011
3115.974609	45.335632
3115.367920	123.623817
3114.760986	86.523506
3114.154297	53.554020
3113.547363	94.735008
3112.940186	61.774300
3112.333008	78.235535
3111.725830	69.989563
3111.118408	123.492203
3110.510986	115.241844
3109.903564	86.418228
3109.295898	144.008453
3108.688232	176.897751
3108.080566	90.492043
3107.472656	123.379463
3106.864746	82.240448
3106.256592	98.673515
3105.648438	94.547722
3105.040039	106.863762
3104.431885	102.737968
3103.823486	123.266792
3103.214844	90.381882
3102.606201	110.906326
3101.997559	73.926292
3101.388672	110.872543
3100.779785	102.644127
3100.170898	45.156536
3099.561768	110.821892
3098.952637	135.428345
3098.343262	77.962013
3097.733887	53.334305
3097.124512	86.142288
3096.514893	77.926384
3095.905273	139.425964
3095.295410	98.403336
3094.685791	94.288826
3094.075684	102.472237
3093.465820	90.161827
3092.855713	114.733925
3092.245361	151.589584
3091.635254	98.313385
3091.024658	77.819572
3090.414307	73.712563
3089.803711	90.079399
3089.193115	114.629028
3088.582275	106.425018
3087.971436	53.204395
3087.360596	65.472351
3086.749512	77.736557
3086.138428	73.633926
3085.527100	94.073448
3084.915771	106.327682
3084.304443	69.511345
3083.692871	85.853859
3083.081299	106.279037
3082.469482	102.175797
3081.857910	143.024292
3081.245850	89.887276
3080.634033	98.043884
3080.021973	118.451622
3079.409668	89.846138
3078.797607	146.998520
3078.185059	118.397408
3077.572754	118.379341
3076.960205	97.954163
3076.347656	93.858414
3075.734863	114.244980
3075.122070	114.227539
3074.509033	85.657578
3073.895996	93.801125
3073.282959	110.097557
3072.669922	97.849556
3072.056641	122.293274
3071.443115	105.971321
3070.829834	126.331131
3070.216064	93.715240
3069.602539	89.626976
3068.988770	93.686623
3068.375000	97.745026
3067.760986	146.595154
3067.146973	126.215431
3066.532715	142.479538
3065.918701	81.404442
3065.304199	97.670410
3064.689941	122.069359
3064.075439	85.435501
3063.460693	122.032074
3062.846191	109.812088
3062.231445	105.728813
3061.616455	126.042023
3061.001465	109.761765
3060.386475	117.874245
3059.771240	97.536194
3059.156006	109.711449
3058.540771	130.008514
3057.925293	117.802216
3057.309814	105.599632
3056.694092	109.644402
3056.078369	93.386505
3055.462646	85.252907
3054.846680	77.121796
3054.230713	121.752632
3053.614502	85.213814
3052.998291	109.543869
3052.382080	133.866486
3051.765625	125.734131
3051.149170	121.659584
3050.532715	133.805084
3049.916016	137.838699
3049.299316	125.657242
3048.682373	149.955063
3048.065430	97.253273
3047.448486	117.496391
3046.831299	101.274498
3046.214111	153.913696
3045.596680	133.641449
3044.979248	145.768356
3044.361816	113.358047
3043.744141	133.580124
3043.126465	129.512421
3042.508545	125.445953
3041.890869	109.242661
3041.272705	117.316757
3040.654785	145.612305
3040.036621	141.545853
3039.418213	133.437088
3038.799805	153.631317
3038.181396	76.803902
3037.562988	129.334137
3036.944336	96.985748
3036.325439	80.809090
3035.706543	121.195076
3035.087646	137.333389
3034.468750	125.196564
3033.849609	121.139412
3033.230469	145.345032
3032.611084	181.653473
3031.991699	157.408905
3031.372070	129.136246
3030.752441	137.186234
3030.132813	112.959602
3029.513184	121.009605
3028.893066	133.090179
3028.273193	141.134628
3027.653076	108.858604
3027.032959	145.122574
3026.412598	128.978073
3025.792480	88.658836
3025.171875	141.026535
3024.551270	165.177200
3023.930664	177.236176
3023.310059	169.154068
3022.689209	116.778954
3022.068115	120.787300
3021.447266	152.973801
3020.826172	148.925339
3020.204834	169.024475
3019.583496	128.760803
3018.962158	156.903183
3018.340576	116.653709
3017.718994	112.613899
3017.097412	112.596634
3016.475586	128.662140
3015.853760	168.843155
3015.231689	164.797806
3014.609619	140.659485
3013.987549	184.838394
3013.365234	124.545906
3012.742920	92.390854
3012.120361	112.458565
3011.497803	100.394035
3010.875244	144.545227
3010.252441	144.523056
3009.629639	152.528717
3009.006836	168.558502
3008.383789	144.456543
3007.760498	144.434387
3007.137451	116.332069
3006.514160	120.325050
3005.890625	144.367905
3005.267090	184.441788
3004.643555	156.350555
3004.019775	156.326569
3003.395996	144.279297
3002.772217	168.300003
3002.148193	176.287231
3001.524170	152.224686
3000.899902	160.211914
3000.275635	128.149857
2999.651367	140.142380
2999.026855	156.134674
2998.402344	176.124893
2997.777588	140.077835
2997.152832	148.059540
2996.528076	172.042786
2995.903076	124.011795
2995.278076	183.989227
2994.653076	135.971161
2994.027832	131.951736
2993.402344	115.939774
2992.777100	159.892365
2992.151367	191.841354
2991.525879	179.823639
2990.900146	147.832275
2990.274414	159.794113
2989.648438	175.746521
2989.022461	123.802391
2988.396240	191.664566
2987.770264	163.688324
2987.143799	163.663162
2986.517578	159.646835
2985.891113	175.584534
2985.264404	199.497208
2984.637695	159.573227
2984.010986	179.492294
2983.384033	167.500381
2982.757080	183.424591
2982.130127	183.396393
2981.502930	163.436874
2980.875732	211.239563
2980.248291	155.416534
2979.620850	195.236908
2978.993408	215.125946
2978.365723	207.126465
2977.738037	187.181656
2977.110107	183.170898
2976.482178	179.161362
2975.854248	234.864319
2975.226074	238.808319
2974.597900	226.833008
2973.969482	218.840271
2973.341309	278.481140
2972.712646	254.572144
2972.083984	278.395447
2971.455322	302.211395
2970.826660	254.454651
2970.197754	266.341217
2969.568604	317.970428
2968.939697	266.259247
2968.310547	377.473663
2967.681152	353.578766
2967.051758	313.802521
2966.422363	377.299377
2965.792725	424.892822
2965.163086	313.657623
2964.533203	369.185669
2963.903564	396.912689
2963.273438	377.009003
2962.643311	460.276947
2962.013184	361.023743
2961.383057	388.734924
2960.752686	408.505402
2960.122314	452.062561
2959.491699	467.852325
2958.861084	479.672974
2958.230225	432.035553
2957.599609	491.414276
2956.968506	475.488953
2956.337646	455.606689
2955.706299	415.924622
2955.075195	368.333618
2954.443848	411.836517
2953.812500	372.179474
2953.180908	360.245880
2952.549316	415.604279
2951.917725	482.818176
2951.285889	443.174591
2950.653809	498.494568
2950.021973	419.303802
2949.389893	407.373901
2948.757568	423.129028
2948.125244	462.602478
2947.492920	430.905090
2946.860352	387.359528
2946.227783	434.724243
2945.595215	403.045807
2944.962402	355.573792
2944.329590	323.917297
2943.696533	359.413757
2943.063477	367.256287
2942.430420	339.560974
2941.797119	347.404144
2941.163574	355.244904
2940.530273	343.350433
2939.896729	355.135315
2939.262939	390.588562
2938.629150	410.251953
2937.995361	378.635681
2937.361328	418.012390
2936.727295	374.575958
2936.093262	350.864380
2935.458984	378.402039
2934.824707	398.049042
2934.190186	429.511383
2933.555664	362.467407
2932.921143	401.804016
2932.286377	421.435242
2931.651367	409.556061
2931.016602	433.117432
2930.381592	464.545135
2929.746338	484.154510
2929.111084	480.144135
2928.475830	476.135010
2927.840332	491.799072
2927.204834	625.471802
2926.569336	503.446716
2925.933594	546.627258
2925.297607	542.610840
2924.661865	601.497375
2924.025879	589.612244
2923.389648	569.870422
2922.753418	593.359619
2922.117188	565.765503
2921.480713	589.247986
2920.844238	620.578674
2920.207764	628.336975
2919.571045	549.709900
2918.934082	592.809814
2918.297363	604.494019
2917.660156	569.078491
2917.023193	561.142395
2916.385986	588.519958
2915.748779	647.271912
2915.111328	588.338074
2914.473877	603.933716
2913.836182	607.761414
2913.198486	580.224365
2912.560791	595.814026
2911.922852	627.075684
2911.284912	595.629761
2910.646729	579.865662
2910.008545	583.693359
2909.370361	661.939087
2908.731934	654.004333
2908.093506	665.649963
2907.455078	681.206970
2906.816406	685.015991
2906.177490	708.392639
2905.538574	763.067383
2904.899658	653.397644
2904.260498	676.768311
2903.621338	754.890625
2902.982178	778.238281
2902.342773	809.398987
2901.703369	774.087952
2901.063721	746.605652
2900.424072	805.114990
2899.784424	758.097778
2899.144531	781.423096
2898.504639	769.582642
2897.864502	796.804871
2897.224365	792.776245
2896.583984	745.797180
2895.943848	733.969421
2895.303223	757.276733
2894.662842	761.062378
2894.021973	753.140015
2893.381348	733.515015
2892.740479	764.609985
2892.099609	783.993958
2891.458496	748.773743
2890.817383	775.952637
2890.176025	779.731079
2889.534668	849.775269
2888.893311	876.925781
2888.251709	865.099426
2887.610107	849.380432
2886.968262	868.727051
2886.326416	845.222290
2885.684570	1000.868530
2885.042480	969.562805
2884.400391	953.839722
2883.758057	980.940247
2883.115723	1019.708435
2882.473389	992.310486
2881.830811	1015.501587
2881.188232	1069.807129
2880.545410	1061.862061
2879.902588	1104.476563
2879.259766	1108.193726
2878.616699	1150.787720
2877.973633	1068.978271
2877.330322	1053.266113
2876.687012	990.927002
2876.043457	1049.054199
2875.399902	982.850220
2874.756348	947.740173
2874.112549	967.011108
2873.468750	873.669678
2872.824707	854.122314
2872.180664	846.226318
2871.536621	877.144409
2870.892334	842.083252
2870.248047	853.592529
2869.603760	853.460144
2868.958984	895.994141
2868.314453	845.439026
2867.669678	938.369263
2867.024902	887.823242
2866.379883	829.540100
2865.734863	914.677979
2865.089844	914.536072
2864.444580	867.899536
2863.799316	871.638794
2863.153809	879.250183
2862.508301	828.768005
2861.862549	805.406494
2861.216797	789.795288
2860.571045	785.801697
2859.925049	789.550049
2859.279053	715.902405
2858.632813	723.529541
2857.986572	665.389038
2857.340332	703.965149
2856.693848	676.784424
2856.047363	665.079163
2855.400635	595.385376
2854.753906	668.738098
2854.107178	676.364136
2853.460205	680.123413
2852.813232	703.200195
2852.166016	733.996033
2851.518799	668.218872
2850.871338	722.182190
2850.223877	725.931335
2849.576416	675.628967
2848.928711	737.286194
2848.281006	748.750244
2847.633301	798.800049
2846.985352	814.109253
2846.337158	813.982727
2845.688965	883.284729
2845.040771	875.434387
2844.392578	929.281433
2843.743896	813.476807
2843.095459	886.590393
2842.446777	863.327698
2841.798096	890.168274
2841.149170	866.912231
2840.500244	828.254028
2839.851074	824.273499
2839.202148	870.359070
2838.552734	843.269897
2837.903320	773.839661
2837.253906	792.966064
2836.604492	788.993958
2835.954834	785.023071
2835.304932	707.949890
2834.655029	680.911072
2834.005127	561.568115
2833.354980	626.858643
2832.704834	599.844971
2832.054688	642.041870
2831.404297	545.842834
2830.753906	495.794159
2830.103271	472.660400
2829.452637	464.902496
2828.801758	372.632446
2828.150879	449.393921
2827.500000	422.441345
2826.848877	376.298248
2826.197754	399.274750
2825.546387	372.342529
2824.895020	376.122528
2824.243408	330.015320
2823.591797	379.842224
2822.940186	368.274506
2822.288330	356.710388
2821.636475	368.159821
2820.984619	394.943298
2820.332520	345.042328
2819.680176	306.656525
2819.028076	337.269653
2818.375488	318.057068
2817.723145	279.693359
2817.070557	294.973053
2816.417725	352.380432
2815.764893	325.518158
2815.112061	287.177155
2814.458984	279.475555
2813.805908	321.538208
2813.152832	306.179138
2812.499512	264.038361
2811.845947	294.605591
2811.192383	351.941437
2810.538818	305.988312
2809.885010	275.346558
2809.231201	313.540283
2808.577393	298.199127
2807.923340	336.377350
2807.269287	317.215546
2806.614990	298.059692
2805.960693	317.116638
2805.306152	305.606934
2804.651611	324.656738
2803.997070	351.338379
2803.342285	332.192078
2802.687500	274.874725
2802.032471	305.368713
2801.377441	332.036682
2800.722412	297.641632
2800.067139	282.333893
2799.411621	328.066589
2798.756348	312.758881
2798.100586	270.761169
2797.445068	308.848358
2796.789307	289.738434
2796.133301	346.869537
2795.477539	323.948456
2794.821289	327.708466
2794.165283	308.607483
2793.509033	327.606171
2792.852539	319.937500
2792.196045	323.695740
2791.539551	323.645203
2790.882813	304.559723
2790.226074	308.318573
2789.569092	285.435577
2788.912109	273.975372
2788.255127	311.978821
2787.597900	289.105927
2786.940430	327.095123
2786.283203	319.438354
2785.625488	285.168274
2784.968018	311.735291
2784.310303	330.691895
2783.652588	330.640228
2782.994629	288.790039
2782.336426	319.139130
2781.678467	353.277405
2781.020264	307.645172
2780.361816	413.926971
2779.703369	330.330444
2779.044922	277.130524
2778.386230	292.270081
2777.727539	273.248810
2777.068604	288.384216
2776.409668	269.369476
2775.750732	265.534027
2775.091553	307.212769
2774.432373	303.372589
2773.772949	379.156464
2773.113525	360.142334
2772.453857	341.134155
2771.794189	333.501251
2771.134521	325.870697
2770.474609	363.705780
2769.814697	344.708862
2769.154541	299.205963
2768.494385	321.880127
2767.833984	340.760956
2767.173584	363.421509
2766.513184	333.084259
2765.852539	367.092285
2765.191895	321.628479
2764.531006	317.794891
2763.870117	336.658600
2763.209229	332.823822
2762.548096	321.427277
2761.886719	294.910645
2761.225586	332.667633
2760.563965	332.615570
2759.902588	343.900940
2759.240967	328.732941
2758.579102	355.127136
2757.917236	381.513062
2757.255371	332.355408
2756.593262	309.646332
2755.931152	317.149017
2755.269043	324.649353
2754.606689	396.312164
2753.944092	347.190582
2753.281494	332.043335
2752.618896	365.945007
2751.956055	350.799561
2751.293213	301.715820
2750.630371	380.856567
2749.967285	335.553711
2749.303955	346.810181
2748.640625	369.370392
2747.977295	358.007050
2747.313721	316.504028
2746.650146	388.033417
2745.986572	380.439178
2745.322754	395.444122
2744.658691	342.664551
2743.994873	384.025360
2743.330566	395.258270
2742.666504	316.157074
2742.002197	338.686646
2741.337646	376.259491
2740.673096	432.630615
2740.008545	349.811676
2739.343750	368.560974
2738.678955	391.064606
2738.013916	353.406830
2737.348877	372.146729
2736.683594	424.706940
2736.018311	353.240662
2735.353027	326.884247
2734.687500	405.723694
2734.021973	416.928406
2733.356201	379.307800
2732.690430	390.513123
2732.024658	390.451874
2731.358643	427.928223
2730.692383	416.601593
2730.026367	461.567200
2729.359863	393.958954
2728.693604	423.908386
2728.027100	390.084564
2727.360352	401.274017
2726.693604	408.710327
2726.026855	416.144318
2725.359863	461.060516
2724.692871	457.240295
2724.025635	513.377808
2723.358398	483.323669
2722.691162	509.470551
2722.023682	535.609253
2721.355957	468.116394
2720.688477	396.900391
2720.020508	486.688202
2719.352783	426.721130
2718.684814	467.822510
2718.016602	490.201019
2717.348389	475.158417
2716.680176	493.787903
2716.011719	437.606934
2715.343262	486.153564
2714.674561	429.991364
2714.005859	478.523926
2713.337158	433.594208
2712.668213	448.475281
2711.999023	414.774445
2711.329834	444.598267
2710.660645	519.239075
2709.991455	403.374176
2709.321777	410.779510
2708.652344	414.448730
2707.982666	362.119019
2707.312988	380.725128
2706.643066	440.377472
2705.972900	421.651154
2705.302979	388.007324
2704.632813	402.867340
2703.962402	410.263367
2703.291992	376.637146
2702.621582	473.518799
2701.950928	410.069916
2701.280273	417.460083
2700.609375	395.034027
2699.938477	432.233429
2699.267334	406.086517
2698.596191	432.097504
2697.925049	379.888062
2697.253662	439.409241
2696.582031	376.045349
2695.910645	413.212585
2695.239014	420.591675
2694.567139	368.425018
2693.895264	405.575867
2693.223145	349.707642
2692.551270	457.524170
2691.878906	390.507965
2691.206543	435.069000
2690.534180	386.667145
2689.861816	408.910492
2689.189209	371.678314
2688.516357	423.646606
2687.843506	497.892212
2687.170654	378.932922
2686.497559	423.446594
2685.824463	345.388916
2685.151123	438.166412
2684.477783	363.843628
2683.804199	434.316345
2683.130615	411.978851
2682.457031	408.203033
2681.783203	389.587006
2681.109375	426.623322
2680.435303	393.173492
2679.761230	396.820190
2679.086914	426.421814
2678.412598	489.380981
2677.738281	389.219025
2677.063721	455.870453
2676.389160	415.036163
2675.714355	433.496277
2675.039551	451.950531
2674.364502	337.057526
2673.689453	403.664642
2673.014404	392.492737
2672.339111	422.048340
2671.663574	388.667480
2670.988037	377.503174
2670.312500	447.751831
2669.636719	384.783875
2668.960938	414.317322
2668.285156	443.841461
2667.609131	436.375305
2666.932861	388.238831
2666.256592	447.328522
2665.580322	373.331055
2664.903809	443.491699
2664.227295	436.031403
2663.550781	421.184265
2662.874023	421.117828
2662.197021	391.503967
2661.520020	465.299225
2660.843018	494.764008
2660.165771	450.385712
2659.488525	465.079102
2658.811035	461.315216
2658.133545	439.102814
2657.455811	416.897369
2656.778076	457.408142
2656.100342	453.647766
2655.422363	424.075287
2654.744385	427.695404
2654.066162	446.060150
2653.387939	431.246307
2652.709473	438.548798
2652.031006	427.425476
2651.352539	419.989777
2650.673828	482.543640
2649.994873	456.686768
2649.316162	478.708923
2648.636963	360.815918
2647.958008	427.020813
2647.278809	434.314636
2646.599365	448.966278
2645.919922	463.613251
2645.240479	382.604492
2644.560791	389.900665
2643.880859	470.749115
2643.201172	507.446228
2642.520996	485.306671
2641.841064	411.710297
2641.160889	507.205780
2640.480469	452.003296
2639.800049	488.674316
2639.119629	429.818512
2638.438965	418.731354
2637.758301	451.717712
2637.077393	433.286713
2636.396484	418.532898
2635.715332	484.540436
2635.034180	455.102417
2634.353027	480.717682
2633.671631	465.965637
2632.989990	473.228851
2632.308350	432.807587
2631.626709	454.742828
2630.944824	432.670746
2630.262939	425.270081
2629.581055	483.851532
2628.898926	480.110046
2628.216553	417.739624
2627.534180	439.656372
2626.851807	421.270721
2626.169189	461.493195
2625.486572	450.434021
2624.803711	439.378296
2624.120850	453.952423
2623.437988	439.239319
2622.754883	453.808807
2622.071533	439.100342
2621.388184	413.420746
2620.704834	482.857544
2620.021240	490.096008
2619.337646	409.567657
2618.653809	409.502838
2617.969971	460.617798
2617.286133	500.751190
2616.602051	438.544769
2615.917725	442.129303
2615.233398	463.979614
2614.549072	463.906158
2613.864502	482.093872
2613.179932	507.579071
2612.495117	529.405151
2611.810303	507.418365
2611.125488	470.838867
2610.440430	445.218964
2609.755127	419.607147
2609.069824	488.856110
2608.384521	419.474243
2607.698975	481.407227
2607.013428	433.927155
2606.327637	463.025391
2605.641846	470.242615
2604.956055	451.944550
2604.270020	532.043945
2603.583740	473.662720
2602.897461	506.374481
2602.211182	495.367035
2601.524658	480.721222
2600.838135	436.950043
2600.151367	476.928192
2599.464600	495.053101
2598.777832	454.939911
2598.090820	513.090881
2597.403564	527.562988
2596.716309	509.290436
2596.029053	458.288727
2595.341553	476.399231
2594.654053	469.051605
2593.966309	472.612701
2593.278564	490.712280
2592.590820	476.097137
2591.902832	483.289154
2591.214600	497.745209
2590.526367	472.238068
2589.838135	457.635071
2589.149658	512.034180
2588.461182	555.523438
2587.772461	497.350586
2587.083740	500.901398
2586.394775	417.351593
2585.705811	482.599609
2585.016846	540.570923
2584.327637	504.210968
2583.638184	478.743073
2582.948975	467.788300
2582.259277	416.954376
2581.569824	467.639832
2580.879883	471.190125
2580.190186	489.235168
2579.500244	460.170380
2578.810059	518.062378
2578.119873	489.002197
2577.429688	478.059570
2576.739258	467.120392
2576.048584	510.492371
2575.358154	495.931549
2574.667236	463.278534
2573.976563	492.155273
2573.285645	510.168182
2572.594482	528.175354
2571.903320	502.772003
2571.212158	506.308624
2570.520752	495.380432
2569.829102	553.147217
2569.137451	502.452576
2568.445801	480.687592
2567.753906	509.520172
2567.062012	523.891357
2566.370117	502.133301
2565.677979	494.829712
2564.985596	548.920898
2564.293213	541.612183
2563.600830	541.526062
2562.908203	494.515198
2562.215332	498.045624
2561.522705	534.050964
2560.829590	512.318787
2560.136719	541.095764
2559.443604	577.077087
2558.750244	519.286804
2558.056885	475.937195
2557.363525	508.306610
2556.669922	569.501221
2555.976074	457.690826
2555.282227	511.667419
2554.588379	569.229553
2553.894287	547.526123
2553.200195	504.220154
2552.505859	489.735931
2551.811523	478.856750
2551.117188	471.580841
2550.422607	521.895752
2549.727783	557.799805
2549.032959	496.542725
2548.338135	579.207642
2547.643066	507.175659
2546.947998	525.077026
2546.252686	528.589294
2545.557373	532.100464
2544.861816	546.394531
2544.166260	553.495789
2543.470703	521.065674
2542.774902	553.319580
2542.078857	560.416321
2541.382813	549.551575
2540.686768	578.194214
2539.990479	506.288208
2539.294189	516.977966
2538.597656	567.149353
2537.901123	523.991272
2537.204346	509.554169
2536.507568	505.885162
2535.810791	520.153625
2535.113770	534.417542
2534.416504	498.471191
2533.719238	548.589478
2533.021973	494.727356
2532.324463	566.336731
2531.626953	637.923279
2530.929199	530.323608
2530.231445	526.656372
2529.533447	540.900940
2528.835449	497.836060
2528.137451	508.499664
2527.439209	519.159851
2526.740723	562.035217
2526.042236	547.628540
2525.343750	633.429993
2524.645020	565.344543
2523.946289	572.409546
2523.247314	472.162567
2522.548340	507.851471
2521.849121	561.408203
2521.149902	568.469238
2520.450684	546.930298
2519.751221	500.379272
2519.051514	589.638672
2518.351807	603.836609
2517.652100	510.857147
2516.952148	528.634949
2516.252197	628.546631
2515.552002	567.744141
2514.851807	503.390900
2514.151367	613.967529
2513.450928	506.799286
2512.750244	528.129028
2512.049561	588.698547
2511.348877	556.498840
2510.647949	588.510620
2509.946777	570.585876
2509.245605	495.617340
2508.544434	563.273682
2507.843018	602.392761
2507.141602	591.604919
2506.439941	523.807434
2505.738281	619.917969
2505.036377	555.699768
2504.334473	573.419067
2503.632568	569.766479
2502.930420	573.235962
2502.228027	555.344849
2501.525635	580.171509
2500.823242	583.637573
2500.120605	544.404175
2499.417969	615.469788
2498.715088	618.928528
2498.012207	657.951050
2497.309082	572.503723
2496.605957	643.519348
2495.902588	572.320801
2495.199219	600.663086
2494.495605	561.476929
2493.791992	600.471069
2493.088379	632.347778
2492.384521	610.934998
2491.680664	628.594238
2490.976563	600.087219
2490.272461	568.039124
2489.568115	575.047668
2488.863770	592.701233
2488.159180	581.960815
2487.454590	642.183350
2486.749756	585.322144
2486.044922	659.712158
2485.339844	563.857300
2484.634766	581.495667
2483.929688	556.586670
2483.224365	552.953064
2482.519043	595.392639
2481.813477	577.580200
2481.107666	602.287903
2480.402100	616.360718
2479.696045	591.469971
2478.990234	598.457642
2478.284180	651.470947
2477.577881	608.886230
2476.871582	601.709839
2476.165039	573.302307
2475.458496	601.517273
2474.751953	594.345459
2474.045166	580.101501
2473.338379	604.765076
2472.631348	615.276489
2471.924072	625.784485
2471.217041	597.404785
2470.509521	622.049744
2469.802246	572.476807
2469.094482	625.383728
2468.386963	582.891479
2467.679199	607.522888
2466.971191	614.488647
2466.263184	624.983215
2465.554932	635.474304
2464.846680	638.902344
2464.138428	585.860779
2463.429932	592.824341
2462.721436	656.236084
2462.012695	578.524048
2461.303955	596.066467
2460.594971	581.865112
2459.885986	627.608398
2459.176758	694.489014
2458.467529	690.852966
2457.758057	634.355103
2457.048584	644.824280
2456.338867	651.767029
2455.629150	609.392578
2454.919434	588.163269
2454.209473	609.197205
2453.499512	637.265930
2452.789307	665.325684
2452.078857	640.581299
2451.368408	594.730103
2450.657959	633.338745
2449.947266	608.611267
2449.236572	622.583313
2448.525879	650.618286
2447.814697	646.997620
2447.103760	643.378113
2446.392578	671.396240
2445.681152	664.259277
2444.969727	604.414124
2444.258301	625.397949
2443.546631	621.784668
2442.834717	674.370056
2442.122803	646.167603
2441.410889	688.198486
2440.698730	660.002808
2439.986572	712.548218
2439.274170	656.281433
2438.561768	628.104370
2437.849121	652.562317
2437.136475	680.520264
2436.423584	655.860107
2435.710693	666.274902
2434.997803	634.612610
2434.284424	581.926941
2433.571289	623.893738
2432.857910	683.369324
2432.144287	683.259583
2431.430908	655.123169
2430.717041	651.515137
2430.003174	773.987732
2429.289307	630.295959
2428.575195	682.710938
2427.861084	707.104858
2427.146729	720.991089
2426.432373	643.888550
2425.717773	696.267578
2425.003174	706.650513
2424.288330	678.555298
2423.573486	657.463318
2422.858643	653.861084
2422.143555	685.220154
2421.428223	692.100952
2420.712891	667.525391
2419.997559	674.406738
2419.281982	716.223633
2418.566162	768.506653
2417.850586	698.530029
2417.134521	656.512695
2416.418457	645.932495
2415.702393	687.720215
2414.986084	684.119202
2414.269775	652.600586
2413.553223	645.517029
2412.836670	697.744019
2412.120117	634.844910
2411.403076	624.279968
2410.686279	686.946228
2409.969238	613.619690
2409.251953	655.351929
2408.534668	644.790405
2407.817383	683.019409
2407.099854	651.551392
2406.382080	665.381226
2405.664307	651.341675
2404.946533	693.027405
2404.228516	678.987915
2403.510498	713.692932
2402.792236	737.944092
2402.073975	661.258484
2401.355469	727.267273
2400.636963	702.795837
2399.918213	754.862061
2399.199463	706.047607
2398.480469	702.456360
2397.761475	698.866272
2397.042480	660.513489
2396.323242	716.020325
2395.603760	691.578125
2394.884277	722.739075
2394.164795	774.734863
2393.445068	715.559082
2392.725098	701.551636
2392.005127	663.241455
2391.285156	697.853699
2390.564941	694.269897
2389.844727	652.508545
2389.124268	742.629333
2388.403809	721.691650
2387.683105	690.353333
2386.962402	693.710571
2386.241455	721.342712
2385.520508	703.889221
2384.799316	710.709534
2384.078125	648.201233
2383.356689	679.288574
2382.635254	710.365784
2381.913818	727.574463
2381.192139	699.744507
2380.470215	664.996399
2379.748291	744.537354
2379.026367	765.191650
2378.304199	716.602417
2377.581787	713.025513
2376.859375	737.135620
2376.136963	657.432739
2375.414307	743.817017
2374.691650	671.056824
2373.968750	767.786499
2373.245850	736.541138
2372.522705	757.166565
2371.799316	770.871643
2371.076172	805.309875
2370.352783	729.154358
2369.629150	746.312378
2368.905518	715.100586
2368.181641	676.990784
2367.457764	742.497559
2366.733643	752.736450
2366.009521	735.353088
2365.285400	793.915039
2364.561035	731.664368
2363.836426	748.799683
2363.111816	721.077698
2362.387207	800.301514
2361.662354	779.478088
2360.937256	731.073730
2360.212158	772.330505
2359.487061	765.311035
2358.761719	772.080994
2358.036377	792.633667
2357.310791	696.026672
2356.584961	785.487305
2355.859375	761.248474
2355.133301	740.461426
2354.407471	716.237610
2353.681152	729.893433
2352.955078	746.987122
2352.228516	746.866394
2351.502197	719.215881
2350.775635	743.184265
2350.048828	756.824585
2349.322021	749.823120
2348.594971	763.457886
2347.867920	763.334412
2347.140869	794.151978
2346.413330	794.023560
2345.686035	745.780334
2344.958496	707.861267
2344.230713	745.539124
2343.502930	831.296204
2342.775146	772.774353
2342.047119	748.611389
2341.319092	786.258118
2340.590820	768.966492
2339.862305	748.248108
2339.133789	796.171875
2338.405273	796.043030
2337.676514	771.899597
2336.947754	785.495117
2336.218750	802.515747
2335.489746	792.098877
2334.760498	802.255981
2334.031250	764.419373
2333.301758	757.440979
2332.572266	798.439697
2331.842529	767.474426
2331.112793	781.052856
2330.382813	780.926392
2329.652832	777.375366
2328.922607	825.185547
2328.192383	749.736023
2327.462158	773.574829
2326.731689	773.449585
2326.000977	804.120422
2325.270264	749.250366
2324.539307	803.859924
2323.808350	749.007690
2323.077393	834.375610
2322.346191	844.497498
2321.614746	817.012939
2320.883301	779.283569
2320.151855	772.322571
2319.420166	744.862976
2318.688232	836.981018
2317.956299	809.519775
2317.224365	785.482605
2316.492188	788.769836
2315.760010	723.775330
2315.027588	819.235474
2314.295166	911.251709
2313.562500	836.031738
2312.829590	829.072510
2312.096924	801.647949
2311.363770	757.178650
2310.630615	849.130249
2309.897461	862.630981
2309.164063	896.581604
2308.430664	838.491638
2307.697021	770.196655
2306.963379	787.108704
2306.229492	797.201538
2305.495605	807.291077
2304.761719	817.377319
2304.027344	820.649902
2303.293213	837.539917
2302.558838	833.999939
2301.824219	854.285767
2301.089600	840.535217
2300.354736	830.191528
2299.619873	864.075500
2298.885010	795.908875
2298.149658	812.783508
2297.414551	880.655884
2296.679199	819.318970
2295.943604	774.997498
2295.208008	825.850037
2294.472412	849.502014
2293.736572	818.786926
2293.000488	842.432312
2292.264404	794.746582
2291.528320	862.533508
2290.791992	821.650391
2290.055420	821.516968
2289.318848	811.201050
2288.582275	797.494934
2287.845459	793.972290
2287.108398	875.263123
2286.371582	820.849854
2285.634277	827.499268
2284.896973	823.973938
2284.159668	881.474976
2283.422119	884.721436
2282.684570	830.350647
2281.946777	847.158875
2281.208740	843.633118
2280.470703	867.208679
2279.732666	873.841675
2278.994385	907.563965
2278.256104	873.557617
2277.517578	842.947571
2276.779053	883.427856
2276.040283	852.826172
2275.301514	876.373230
2274.562500	882.996948
2273.823486	879.470764
2273.084229	852.271484
2272.344971	909.618042
2271.605469	879.041687
2270.865967	936.365112
2270.126221	858.476746
2269.386475	824.544250
2268.646484	851.439941
2267.906494	874.948669
2267.166260	861.295776
2266.426025	827.384766
2265.685547	844.132813
2264.945068	891.259155
2264.204346	793.226563
2263.463623	870.719727
2262.722656	944.813354
2261.981689	836.698425
2261.240723	883.787537
2260.499268	860.034790
2259.758057	873.383362
2259.016602	923.814941
2258.274902	862.985779
2257.533203	916.773132
2256.791260	919.993713
2256.049316	940.060242
2255.307129	872.530273
2254.564941	926.280884
2253.822754	949.704163
2253.080322	905.775940
2252.337646	902.261719
2251.594971	925.677429
2250.852051	932.257690
2250.109131	861.440735
2249.366211	864.664795
2248.623047	968.804993
2247.879639	965.283752
2247.136230	951.675171
2246.392578	904.448364
2245.648926	948.003235
2244.905273	883.986572
2244.161377	900.645569
2243.417236	900.498718
2242.673096	907.070923
2241.928955	937.153809
2241.184570	987.377380
2240.439941	873.048523
2239.695313	990.412720
2238.950439	906.331604
2238.205566	919.608704
2237.460693	912.747375
2236.715576	952.860168
2235.970215	962.768494
2235.224854	939.133118
2234.479492	942.333374
2233.733887	935.473755
2232.988037	838.101379
2232.242188	965.335205
2231.496338	881.394897
2230.750244	918.109497
2230.003906	897.858337
2229.257568	870.914429
2228.511230	890.867004
2227.764648	907.464478
2227.017822	991.017090
2226.270996	903.820740
2225.523926	903.673157
2224.776855	910.218445
2224.029785	926.799011
2223.282471	1027.006592
2222.534912	859.601318
2221.787354	919.656677
2221.039795	889.413513
2220.291992	966.159851
2219.543945	919.206116
2218.795898	878.951721
2218.047852	972.369446
2217.299561	938.801270
2216.551025	962.030579
2215.802490	908.435974
2215.053955	1038.520020
2214.305176	914.816650
2213.556152	1021.489563
2212.807129	974.595459
2212.058105	944.402161
2211.308838	970.940369
2210.559326	930.749390
2209.809814	957.281067
2209.060303	927.110229
2208.310547	1023.655762
2207.560547	996.817688
2206.810547	929.988831
2206.060303	1036.484741
2205.310059	986.332214
2204.559814	979.507568
2203.809326	952.698486
2203.058594	979.187195
2202.307861	992.347168
2201.557129	902.288879
2200.806152	952.075317
2200.054932	1055.099609
2199.303711	981.714417
2198.552246	1004.844910
2197.800781	911.531311
2197.049316	971.254028
2196.297607	1007.677429
2195.545654	1020.812988
2194.793701	1063.865479
2194.041504	953.998169
2193.289307	963.812500
2192.537109	983.592468
2191.784668	990.076233
2191.031982	1056.351318
2190.279297	996.394714
2189.526367	979.627747
2188.773438	1045.871948
2188.020508	1005.864441
2187.267090	979.146545
2186.513916	962.393250
2185.760498	1021.960571
2185.006836	1008.523193
2184.253174	998.407104
2183.499268	1018.142090
2182.745361	1017.975281
2181.991211	915.033081
2181.237061	967.919861
2180.482666	1027.417847
2179.728271	974.230103
2178.973877	1033.707397
2178.218994	1036.850708
2177.464355	963.815002
2176.709229	1079.560791
2175.954346	1062.828857
2175.198975	1032.860596
2174.443848	983.042725
2173.688232	1032.522095
2172.932861	1058.823364
2172.177002	982.559326
2171.421387	1098.169067
2170.665283	1097.989014
2169.909424	998.609314
2169.153076	1018.282227
2168.396729	961.920593
2167.640381	1037.778442
2166.883789	1090.479980
2166.127197	1040.741943
2165.370361	1109.942627
2164.613525	1023.886230
2163.856445	987.392761
2163.099365	1040.059204
2162.342041	1062.997192
2161.584473	1076.025513
2160.826904	1029.646851
2160.069336	1019.579041
2159.311523	1032.607910
2158.553711	982.960632
2157.795654	1111.420654
2157.037354	1117.833130
2156.279053	1035.227051
2155.520752	1002.093506
2154.762207	1090.916138
2154.003662	1014.945618
2153.244873	1126.800049
2152.485840	1116.732422
2151.726807	1027.620361
2150.967773	1043.917114
2150.208252	1086.549194
2149.448975	981.025635
2148.689453	1003.904968
2147.929688	1092.595703
2147.169922	1072.673828
2146.410156	1102.106323
2145.650146	1121.661255
2144.889893	1072.145142
2144.129639	999.627502
2143.369141	1065.217407
2142.608643	1074.903931
2141.847900	1012.281311
2141.087158	1097.553223
2140.326416	1126.942749
2139.565186	1054.487305
2138.804199	1087.158691
2138.042725	1093.547852
2137.281494	1159.035767
2136.519775	1103.036743
2135.758301	1017.515442
2134.996338	1092.828735
2134.234619	1066.399292
2133.472412	1102.311401
2132.710449	1046.367676
2131.947998	1138.024658
2131.185547	1082.093262
2130.423096	1101.586426
2129.660400	1137.463135
2128.897705	1078.281860
2128.134766	1215.734863
2127.371826	1094.308960
2126.608643	1081.025513
2125.845215	1100.499390
2125.081787	1126.516357
2124.318359	1083.766113
2123.554688	1044.303711
2122.790771	1211.061890
2122.026855	1050.505127
2121.262939	1076.508667
2120.498779	1056.702271
2119.734375	1177.554810
2118.969971	1141.385986
2118.205322	1180.437012
2117.440674	1111.585815
2116.676025	1081.983398
2115.911133	1153.707642
2115.145996	1104.501343
2114.380859	1179.465332
2113.615479	1162.937744
2112.850098	1126.818604
2112.084473	1136.429810
2111.318848	1136.242554
2110.552979	1083.822998
2109.787109	1126.076294
2109.020996	1116.100342
2108.254883	1066.972778
2107.488525	1164.668213
2106.722168	1157.952515
2105.955566	1161.023071
2105.188965	1124.963257
2104.422119	1147.599487
2103.655029	1193.045898
2102.887939	1160.257690
2102.120850	1231.755981
2101.353516	1140.326782
2100.585938	1084.760498
2099.818359	1172.520752
2099.050781	1143.019165
2098.282959	1155.854370
2097.514893	1171.940796
2096.746826	1129.434326
2095.978760	1155.282593
2095.210449	1145.330688
2094.441895	1158.154785
2093.673340	1089.656860
2092.904541	1180.537842
2092.135742	1160.833252
2091.366699	1134.632935
2090.597656	1228.712036
2089.828369	1131.008545
2089.059082	1163.316772
2088.289551	1062.407227
2087.520020	1136.945435
2086.750244	1191.971802
2085.980469	1126.828125
2085.210449	1224.046387
2084.440186	1214.105469
2083.670166	1174.956177
2082.899658	1152.045776
2082.129150	1164.834229
2081.358643	1119.224121
2080.587891	1255.270142
2079.816895	1092.910034
2079.045898	1157.579956
2078.274902	1154.146729
2077.503662	1157.197510
2076.732178	1166.729126
2075.960693	1150.334473
2075.188965	1182.542847
2074.417236	1117.561401
2073.645264	1204.823608
2072.873291	1224.053955
2072.101074	1223.851685
2071.328857	1152.431641
2070.556396	1216.973877
2069.783936	1220.008789
2069.011230	1155.095947
2068.238525	1203.430420
2067.465576	1203.231445
2066.692627	1225.670288
2065.919434	1270.735596
2065.145996	1128.278320
2064.372559	1225.062378
2063.599121	1202.237061
2062.825439	1214.963501
2062.051514	1159.839722
2061.277588	1227.482422
2060.503662	1162.685791
2059.729248	1194.784912
2058.955078	1233.330688
2058.180664	1178.249268
2057.406006	1232.922607
2056.631348	1258.534790
2055.856445	1255.100098
2055.081543	1196.825317
2054.306396	1122.442871
2053.531250	1131.931763
2052.755859	1215.577393
2051.980225	1270.180908
2051.204590	1247.407715
2050.428955	1243.978516
2049.653076	1179.328369
2048.877197	1336.995239
2048.101074	1195.043701
2047.324707	1175.522095
2046.548340	1165.667236
2045.771851	1188.011108
2044.995239	1255.413452
2044.218506	1197.273071
2043.441528	1200.292725
2042.664551	1238.702759
2041.887329	1190.244507
2041.110107	1260.806885
2040.332642	1247.734741
2039.555176	1228.236328
2038.777466	1260.180298
2037.999634	1186.044678
2037.221802	1272.617432
2036.443726	1179.225342
2035.665527	1281.833618
2034.887207	1227.015747
2034.108765	1249.293213
2033.330200	1175.232666
2032.551514	1287.404907
2031.772705	1229.412354
2030.993774	1187.486084
2030.214600	1309.226929
2029.435425	1331.468384
2028.656128	1222.181519
2027.876587	1279.710205
2027.097046	1324.392578
2026.317261	1240.811035
2025.537476	1368.833130
2024.757446	1310.913086
2023.977295	1246.602905
2023.197021	1313.682251
2022.416626	1291.039429
2021.636230	1236.373535
2020.855591	1319.433594
2020.074707	1283.992920
2019.293823	1283.779907
2018.512817	1341.183228
2017.731689	1248.149536
2016.950439	1273.541260
2016.168945	1257.333252
2015.387451	1301.907593
2014.605713	1346.467163
2013.823975	1279.091309
2013.041992	1269.287354
2012.260010	1278.666626
2011.477783	1307.219604
2010.695435	1326.176147
2009.912964	1262.054443
2009.130371	1332.124756
2008.347656	1309.545532
2007.564819	1271.006226
2006.781860	1350.618896
2005.998779	1248.237061
2005.215576	1273.564819
2004.432129	1308.458252
2003.648682	1215.706665
2002.864990	1298.452515
2002.081299	1269.528809
2001.297363	1256.560913
2000.513428	1387.089233
1999.729248	1323.095093
1998.944946	1364.314697
1998.160522	1293.971313
1997.375977	1421.219849
1996.591309	1427.355713
1995.806519	1239.171997
1995.021606	1274.001099
1994.236572	1312.002930
1993.451416	1334.072388
1992.666016	1308.383179
1991.880615	1308.165649
1991.094971	1384.324585
1990.309326	1288.639648
1989.523438	1396.589355
1988.737549	1370.910889
1987.951416	1351.601440
1987.165161	1341.837524
1986.378784	1313.001587
1985.592285	1392.249512
1984.805664	1322.099121
1984.018921	1337.767090
1983.232056	1321.659180
1982.444946	1346.851440
1981.657837	1359.331421
1980.870605	1340.052246
1980.083130	1336.654297
1979.295654	1349.129395
1978.507935	1345.730957
1977.720093	1396.280762
1976.932129	1357.974243
1976.144165	1386.298950
1975.355957	1335.319580
1974.567627	1316.069702
1973.779053	1319.021362
1972.990479	1360.014160
1972.201782	1381.975342
1971.412964	1359.561157
1970.623901	1359.334717
1969.834839	1371.780640
1969.045532	1352.546753
1968.256226	1380.824707
1967.466675	1355.262573
1966.677002	1383.530640
1965.887207	1335.818359
1965.097290	1487.511841
1964.307251	1379.674683
1963.517090	1331.986694
1962.726807	1360.234741
1961.936401	1413.775757
1961.145874	1419.864746
1960.355103	1381.686890
1959.564331	1416.230103
1958.773315	1438.118896
1957.982178	1463.160522
1957.191040	1349.169189
1956.399658	1408.967529
1955.608154	1471.904419
1954.816528	1414.813721
1954.024780	1417.735352
1953.232910	1404.870728
1952.440918	1445.670776
1951.648682	1360.218628
1950.856445	1369.458008
1950.063965	1419.708130
1949.271484	1454.169434
1948.478760	1447.619019
1947.685913	1396.924194
1946.893066	1415.607910
1946.099976	1412.219360
1945.306763	1320.583008
1944.513428	1487.377319
1943.719971	1420.964478
1942.926270	1442.778442
1942.132568	1363.796509
1941.338745	1429.700317
1940.544678	1457.798950
1939.750610	1416.630615
1938.956299	1403.803833
1938.161865	1416.157471
1937.367310	1453.678955
1936.572632	1418.830444
1935.777832	1465.775146
1934.982910	1430.936279
1934.187866	1477.863037
1933.392700	1433.602051
1932.597290	1486.799316
1931.801880	1439.408691
1931.006226	1414.029907
1930.210571	1438.927734
1929.414673	1438.687256
1928.618652	1460.431763
1927.822510	1466.468140
1927.026245	1400.290039
1926.229858	1456.560547
1925.433350	1355.881348
1924.636719	1487.454468
1923.839844	1465.242798
1923.042969	1433.627441
1922.245850	1455.343384
1921.448730	1426.876099
1920.651367	1479.940430
1919.853882	1470.288086
1919.056274	1476.311035
1918.258545	1438.457397
1917.460693	1547.884766
1916.662720	1522.562988
1915.864624	1478.455811
1915.066284	1512.658203
1914.267944	1487.354980
1913.469360	1455.798584
1912.670776	1521.289795
1911.871948	1511.646118
1911.072998	1436.292847
1910.273926	1501.754150
1909.474731	1476.477783
1908.675415	1491.868652
1907.875977	1491.619019
1907.076294	1491.369263
1906.276611	1509.875854
1905.476807	1509.623047
1904.676758	1553.120117
1903.876587	1484.121826
1903.076294	1471.377563
1902.275879	1508.612183
1901.475342	1489.622070
1900.674683	1461.271240
1899.873901	1461.026489
1899.072998	1504.480347
1898.271851	1522.953125
1897.470703	1532.058838
1896.669312	1491.245361
1895.867920	1553.380249
1895.066284	1521.932739
1894.264526	1527.914185
1893.462646	1515.187378
1892.660645	1518.050659
1891.858521	1558.312378
1891.056152	1573.631714
1890.253784	1504.825073
1889.451172	1538.838501
1888.648560	1563.496826
1887.845703	1553.892700
1887.042725	1516.270264
1886.239624	1581.388306
1885.436401	1478.412354
1884.633057	1555.962646
1883.829590	1580.592896
1883.025879	1574.106079
1882.222168	1530.296997
1881.418213	1536.260010
1880.614258	1607.516479
1879.810059	1426.936768
1879.005737	1554.136597
1878.201294	1529.013794
1877.396729	1494.577759
1876.592041	1559.567871
1875.787231	1674.234985
1874.982178	1565.255737
1874.177124	1549.467285
1873.371826	1598.881226
1872.566406	1620.341553
1871.760986	1610.758789
1870.955322	1492.572144
1870.149536	1613.320557
1869.343506	1613.049683
1868.537476	1606.575928
1867.731323	1609.407104
1866.924927	1469.616333
1866.118530	1506.568726
1865.311890	1568.303955
1864.505127	1530.853882
1863.698242	1583.269043
1862.891235	1552.024536
1862.084106	1616.807861
1861.276855	1616.536255
1860.469482	1681.286743
1859.661865	1653.142334
1858.854126	1652.864502
1858.046387	1612.355225
1857.238403	1639.932129
1856.430298	1559.220581
1855.622070	1546.585815
1854.813721	1549.418579
1854.005249	1592.447876
1853.196533	1576.722168
1852.387817	1641.369995
1851.578857	1489.656006
1850.769775	1653.178345
1849.960693	1575.661987
1849.151367	1559.952026
1848.341919	1646.167480
1847.532227	1645.890625
1846.722534	1657.963623
1845.912720	1700.901855
1845.102661	1561.726929
1844.292603	1644.783447
1843.482300	1629.079834
1842.671875	1675.078735
1841.861328	1659.375122
1841.050659	1668.347412
1840.239868	1615.650513
1839.428833	1677.034302
1838.617798	1612.024536
1837.806519	1670.306274
1836.995117	1660.781494
1836.183716	1654.340576
1835.372070	1672.543213
1834.560303	1687.659912
1833.748291	1564.209717
1832.936279	1653.226685
1832.124146	1668.338867
1831.311768	1628.049194
1830.499390	1683.162476
1829.686768	1685.955566
1828.874023	1728.736206
1828.061157	1670.010010
1827.248169	1651.278687
1826.434937	1712.490234
1825.621704	1666.092285
1824.808228	1641.223877
1823.994751	1647.093262
1823.181030	1695.974365
1822.367188	1698.760498
1821.553223	1701.545532
1820.739136	1633.699829
1819.924927	1725.534790
1819.110474	1759.012085
1818.296021	1645.151123
1817.481323	1687.836914
1816.666626	1650.733032
1815.851685	1717.945435
1815.036621	1671.647095
1814.221436	1677.498657
1813.406006	1729.341309
1812.590576	1673.867310
1811.774902	1695.041138
1810.959229	1700.884644
1810.143311	1712.854248
1809.327271	1694.183594
1808.511108	1660.203613
1807.694824	1742.613403
1806.878418	1723.947021
1806.061768	1595.070801
1805.245117	1680.510742
1804.428223	1698.590332
1803.611206	1664.643555
1802.794067	1636.827148
1801.976807	1685.494507
1801.159424	1761.671509
1800.341919	1639.056396
1799.524170	1678.526245
1798.706421	1748.551758
1797.888428	1699.354248
1797.070313	1799.911255
1796.252075	1707.946533
1795.433716	1729.041992
1794.615234	1756.239014
1793.796509	1697.919922
1792.977783	1722.059570
1792.158813	1682.082520
1791.339844	1721.477783
1790.520630	1766.963257
1789.701294	1772.767212
1788.881714	1699.250488
1788.062134	1711.164185
1787.242432	1704.775635
1786.422485	1768.520142
1785.602417	1679.810181
1784.782349	1737.441040
1783.962036	1709.718750
1783.141479	1773.419067
1782.320923	1742.653320
1781.500244	1687.529297
1780.679321	1876.069092
1779.858398	1756.994873
1779.037231	1790.187744
1778.215942	1655.947998
1777.394531	1670.885620
1776.572998	1819.709595
1775.751221	1788.977051
1774.929443	1782.590576
1774.107422	1721.460083
1773.285278	1763.741943
1772.463013	1754.322388
1771.640625	1735.786133
1770.818115	1778.043945
1769.995483	1744.315430
1769.172607	1713.636597
1768.349731	1822.709229
1767.526611	1761.654053
1766.703369	1776.540039
1765.880005	1806.602295
1765.056519	1712.187012
1764.232910	1827.237793
1763.409058	1796.580811
1762.585083	1738.625854
1761.761108	1847.546021
1760.936890	1741.070313
1760.112549	1771.102661
1759.288086	1752.609497
1758.463379	1837.199829
1757.638672	1733.828979
1756.813721	1863.853516
1755.988647	1778.693726
1755.163574	1814.748047
1754.338257	1741.741821
1753.512695	1850.476440
1752.687134	1831.994385
1751.861328	1843.794189
1751.035522	1734.507446
1750.209473	1734.213623
1749.383301	1773.258179
1748.557007	1782.034180
1747.730591	1818.032349
1746.903931	1745.136108
1746.077271	1753.912231
1745.250366	1862.459961
1744.423340	1859.121216
1743.596313	1753.020386
1742.768921	1894.754150
1741.941528	1837.025757
1741.114014	1818.588745
1740.286255	1742.770386
1739.458374	1805.892456
1738.630493	1802.566772
1737.802368	1847.543945
1736.973999	1792.900146
1736.145630	1904.256104
1735.317139	1873.759766
1734.488403	1810.088623
1733.659546	1845.977173
1732.830566	1890.900757
1732.001465	1875.503540
1731.172241	1790.771729
1730.342896	1832.667358
1729.513306	1811.260132
1728.683594	1856.151123
1727.853882	1873.912354
1727.023926	1924.801758
1726.193726	1825.088989
1725.363525	1912.103516
1724.533203	1800.383789
1723.702637	1800.078125
1722.871948	1862.975098
1722.041138	1916.823242
1721.210205	1874.376831
1720.379150	1819.912354
1719.547974	1825.618408
1718.716553	1852.372192
1717.885010	1888.136475
1717.053467	1773.584839
1716.221558	1848.422607
1715.389648	1824.068115
1714.557617	1919.903564
1713.725342	1856.492554
1712.893066	1886.212280
1712.060547	1876.882568
1711.227905	1825.521118
1710.395142	1936.284424
1709.562256	1857.916748
1708.729126	1875.606689
1707.895874	1917.294312
1707.062622	1850.969360
1706.229126	1802.663574
1705.395508	1886.327026
1704.561646	1868.015747
1703.727783	1819.731445
1702.893677	1933.323120
1702.059570	1855.075195
1701.225220	1926.672729
1700.390747	1995.250000
1699.556030	1893.068237
1698.721313	1919.699829
1697.886353	1967.282715
1697.051392	1910.065063
1696.216187	1981.579834
1695.380859	1930.364746
1694.545410	1867.197754
1693.709717	1983.559937
1692.874023	1911.431519
1692.038086	1955.967773
1691.202026	1979.556885
1690.365845	1898.496460
1689.529541	1946.001221
1688.692993	1858.996338
1687.856445	1939.362061
1687.019653	1974.884399
1686.182739	1950.650391
1685.345703	1959.278320
1684.508545	1926.096436
1683.671143	1904.868530
1682.833740	1943.351318
1681.996094	1892.280884
1681.158325	1868.085205
1680.320435	1966.227417
1679.482422	1933.077759
1678.644287	2004.331665
1677.805908	1884.704956
1676.967407	1920.163208
1676.128784	1940.703735
1675.290039	1913.547485
1674.451172	1859.579590
1673.612183	1906.935913
1672.772949	1957.255127
1671.933594	1977.771484
1671.094116	1929.785278
1670.254517	1980.074585
1669.414795	1973.782837
1668.574829	1869.267334
1667.734863	1967.157593
1666.894653	1957.895508
1666.054321	1904.011230
1665.213867	1992.921753
1664.373169	2019.347778
1663.532471	1959.533325
1662.691528	1905.685303
1661.850464	2012.369385
1661.009277	1958.530518
1660.167969	1895.795410
1659.326538	1889.530029
1658.484863	1936.734741
1657.643066	2019.562622
1656.801147	1974.676270
1655.959106	2075.282959
1655.116943	1976.970581
1654.274658	1958.825562
1653.432129	1899.142944
1652.589478	1970.024292
1651.746704	1963.755127
1650.903809	1981.215088
1650.060791	1894.880615
1649.217529	1965.713989
1648.374146	2006.879517
1647.530640	2083.597168
1646.687012	2101.021240
1645.843262	1952.519775
1644.999390	2118.077637
1644.155273	2005.165771
1643.311035	2031.475098
1642.466675	1948.224854
1641.622192	1980.455444
1640.777588	1944.599121
1639.932739	1950.185425
1639.087769	2035.657349
1638.242798	1902.185913
1637.397461	2034.961426
1636.552124	2073.058350
1635.706665	1963.302979
1634.860962	1900.885376
1634.015137	1980.366211
1633.169189	1953.430176
1632.323120	2100.833984
1631.476929	2020.709839
1630.630493	1984.919312
1629.783936	2052.504395
1628.937256	2004.909424
1628.090454	2001.614136
1627.243530	2007.175171
1626.396484	2018.636597
1625.549194	2095.010010
1624.701782	1994.344116
1623.854248	2061.846191
1623.006592	2093.934570
1622.158691	1972.679443
1621.310791	2019.512939
1620.462646	1983.794922
1619.614380	1980.508179
1618.765991	2068.569580
1617.917358	2059.376953
1617.068726	2050.187256
1616.219849	2026.274780
1615.370850	1937.588013
1614.521729	2105.073242
1613.672363	1966.360840
1612.822998	2066.091309
1611.973389	2045.138794
1611.123657	2044.788452
1610.273804	2103.270996
1609.423828	2020.558838
1608.573608	2040.796997
1607.723389	2013.986206
1606.872925	2081.252441
1606.022339	2072.078369
1605.171509	2121.679688
1604.320679	1968.534302
1603.469604	2041.637085
1602.618408	1985.482178
1601.767090	2079.113037
1600.915649	2031.779053
1600.064087	2128.305176
1599.212280	1978.250732
1598.360352	2042.472412
1597.508301	2047.990356
1596.656128	2109.244385
1595.803833	2103.016357
1594.951294	2170.104980
1594.098633	2064.178223
1593.245850	2104.865967
1592.392944	2066.401123
1591.539795	2080.699463
1590.686646	2127.223389
1589.833252	2126.858398
1588.979736	1980.040771
1588.126099	2079.271729
1587.272217	2081.843018
1586.418335	2099.050781
1585.564209	2089.909424
1584.709961	2077.844482
1583.855591	2100.896240
1583.000977	2118.088867
1582.146362	2038.749146
1581.291504	2032.550049
1580.436523	2046.821167
1579.581421	2081.552002
1578.726074	2098.732666
1577.870605	2112.984863
1577.015137	2057.103516
1576.159424	2062.593262
1575.303467	2071.001953
1574.447510	2064.805176
1573.591309	2044.010376
1572.734985	2055.337402
1571.878540	2104.607422
1571.021973	2124.675293
1570.165161	2124.310059
1569.308350	2088.935059
1568.451294	2208.173340
1567.594116	2166.962646
1566.736694	2125.766113
1565.879272	2110.823242
1565.021606	2209.570313
1564.163818	2203.361328
1563.305908	2109.734619
1562.447876	2170.555420
1561.589600	2123.574219
1560.731201	2161.071533
1559.872681	2178.171631
1559.014038	2186.531494
1558.155273	2194.888428
1557.296265	2142.122070
1556.437134	2098.103760
1555.577881	2202.484375
1554.718506	2077.018799
1553.859009	2105.746338
1552.999268	2192.623779
1552.139404	2145.726563
1551.279419	2180.241211
1550.419312	2037.448120
1549.558960	2103.935059
1548.698608	2068.707031
1547.838013	2187.455566
1546.977173	2105.753174
1546.116333	2253.494141
1545.255249	2163.097900
1544.394165	2142.404541
1543.532837	2156.548096
1542.671265	2185.196533
1541.809692	2118.086182
1540.947876	2201.849854
1540.085938	2137.659912
1539.223877	2143.091797
1538.361694	2110.828125
1537.499268	2058.282715
1536.636841	2092.709961
1535.774170	2214.064941
1534.911377	2173.118652
1534.048340	2158.259033
1533.185303	2085.474854
1532.322021	2189.371338
1531.458618	2194.784912
1530.594971	2130.716553
1529.731323	2170.872314
1528.867432	2263.105957
1528.003418	2094.892822
1527.139282	2207.358643
1526.275024	2143.343018
1525.410522	2122.729492
1524.545898	2232.240479
1523.681152	2191.381592
1522.816284	2202.565674
1521.951172	2259.985840
1521.086060	2164.242188
1520.220703	2140.756836
1519.355225	2068.174561
1518.489502	2269.978760
1517.623779	2133.873779
1516.757813	2156.601807
1515.891724	2069.634033
1515.025513	2216.463867
1514.159058	2106.431641
1513.292480	2137.803223
1512.425781	2223.969971
1511.558960	2252.426514
1510.692017	2153.997559
1509.824829	2214.169434
1508.957520	2118.663330
1508.090088	2222.051025
1507.222534	2115.050293
1506.354736	2146.376465
1505.486938	2223.780518
1504.618896	2194.595947
1503.750610	2228.771484
1502.882324	2205.354004
1502.013794	2104.223633
1501.145142	2207.470215
1500.276367	2232.986816
1499.407471	2249.863525
1498.538330	2186.190186
1497.669067	2194.440674
1496.799683	2205.563721
1495.930176	2176.431885
1495.060547	2170.306396
1494.190674	2210.168457
1493.320679	2209.786377
1492.450562	2192.165771
1491.580200	2200.404541
1490.709717	2225.873047
1489.839233	2116.367432
1488.968384	2276.783203
1488.097534	2270.648193
1487.226440	2158.321289
1486.355347	2264.123535
1485.483887	2278.077637
1484.612427	2231.785645
1483.740845	2271.553223
1482.869019	2397.335693
1481.997070	2333.844238
1481.124878	2273.240967
1480.252686	2298.642822
1479.380249	2252.394775
1478.507690	2312.173096
1477.635010	2225.833496
1476.762207	2311.372803
1475.889160	2290.927002
1475.015991	2370.699219
1474.142700	2396.052734
1473.269165	2455.743408
1472.395630	2458.179932
1471.521851	2477.782471
1470.647949	2371.508057
1469.773804	2536.988525
1468.899658	2513.671631
1468.025269	2541.828125
1467.150757	2635.725098
1466.276001	2658.134277
1465.401245	2763.409180
1464.526245	2797.217041
1463.651123	2911.001221
1462.775879	2961.908936
1461.900391	3089.903809
1461.024780	3066.526367
1460.149048	3208.732178
1459.273193	3248.135498
1458.397217	3290.378906
1457.520996	3198.504150
1456.644653	3197.949707
1455.768188	3325.747559
1454.891479	3216.803467
1454.014648	3010.953369
1453.137695	3084.551758
1452.260620	3072.615723
1451.383423	3123.379150
1450.505981	2920.536865
1449.628418	2905.786377
1448.750732	2876.799072
1447.872803	2742.452393
1446.994873	2756.213379
1446.116699	2735.807373
1445.238403	2709.715576
1444.359863	2749.087158
1443.481201	2870.960449
1442.602417	2853.393066
1441.723511	2653.792236
1440.844482	2730.116211
1439.965210	2849.064209
1439.085815	2959.442139
1438.206299	2944.716309
1437.326538	2958.414551
1436.446777	2957.900879
1435.566772	2994.319092
1434.686646	2954.033447
1433.806274	2882.522217
1432.925781	2904.737061
1432.045166	2779.319336
1431.164429	2710.714111
1430.283569	2690.377441
1429.402466	2491.288086
1428.521240	2479.507324
1427.639893	2368.454346
1426.758301	2518.349609
1425.876709	2370.466797
1424.994873	2341.704834
1424.112793	2449.009033
1423.230713	2281.376709
1422.348389	2263.979248
1421.465942	2388.238770
1420.583374	2342.502930
1419.700562	2350.592041
1418.817627	2429.466553
1417.934570	2352.605713
1417.051392	2428.621826
1416.167969	2459.330322
1415.284546	2453.243408
1414.400757	2317.020752
1413.516968	2279.845947
1412.633057	2293.589844
1411.748901	2315.811768
1410.864624	2304.100586
1409.980103	2266.953613
1409.095459	2340.038574
1408.210815	2226.605713
1407.325806	2288.371582
1406.440796	2296.447266
1405.555542	2205.674316
1404.670166	2174.229980
1403.784668	2235.961670
1402.899048	2229.927002
1402.013184	2280.338379
1401.127197	2237.615723
1400.241089	2282.365723
1399.354736	2270.685547
1398.468262	2242.087646
1397.581665	2233.238037
1396.694946	2331.522949
1395.807983	2240.916504
1394.920898	2378.621582
1394.033691	2324.669434
1393.146362	2298.908691
1392.258789	2177.385986
1391.371094	2238.965332
1390.483276	2266.733398
1389.595337	2252.261719
1388.707153	2254.684082
1387.818848	2257.105713
1386.930420	2220.132080
1386.041748	2228.185303
1385.152954	2309.370361
1384.264038	2348.341064
1383.375000	2404.169678
1382.485718	2285.671387
1381.596313	2324.625732
1380.706787	2391.670654
1379.817139	2433.402588
1378.927246	2337.457031
1378.037231	2373.565918
1377.147095	2274.855713
1376.256714	2339.042236
1375.366333	2420.051270
1374.475586	2301.735352
1373.584839	2368.689941
1372.693970	2385.112793
1371.802856	2306.141846
1370.911499	2496.481934
1370.020142	2409.105225
1369.128540	2520.847168
1368.236816	2352.193115
1367.344971	2514.361084
1366.453003	2410.226318
1365.560791	2348.159424
1364.668457	2546.663818
1363.775879	2369.748535
1362.883301	2554.176514
1361.990479	2469.726318
1361.097534	2528.087646
1360.204346	2513.650391
1359.311035	2574.782227
1358.417603	2619.103516
1357.524048	2545.905762
1356.630249	2671.335693
1355.736450	2547.813232
1354.842285	2508.220703
1353.948120	2586.063477
1353.053711	2403.919922
1352.159180	2409.089355
1351.264526	2453.376709
1350.369751	2377.515625
1349.474731	2405.033203
1348.579590	2345.963623
1347.684204	2317.630371
1346.788818	2417.731445
1345.893188	2414.517334
1344.997314	2366.650391
1344.101440	2542.030273
1343.205322	2449.519531
1342.309082	2518.825928
1341.412720	2378.939941
1340.516113	2445.446045
1339.619385	2531.444336
1338.722534	2517.064209
1337.825439	2505.476074
1336.928223	2468.813721
1336.030884	2504.599365
1335.133423	2490.233643
1334.235718	2654.113525
1333.337891	2595.174072
1332.439941	2717.217529
1331.541870	2883.754639
1330.643555	2835.937988
1329.745117	3030.221680
1328.846436	3001.870361
1327.947754	3087.574219
1327.048828	3073.128174
1326.149780	2894.630127
1325.250488	2663.371826
1324.351074	2682.363037
1323.451538	2726.359863
1322.551880	2695.316895
1321.651978	2511.484131
1320.751953	2577.709229
1319.851807	2535.599365
1318.951416	2607.350098
1318.050903	2448.647461
1317.150269	2437.115479
1316.249512	2569.901367
1315.348511	2377.990723
1314.447388	2591.195068
1313.546021	2496.431396
1312.644653	2593.060303
1311.743042	2556.558838
1310.841309	2506.208252
1309.939331	2583.381104
1309.037231	2574.614014
1308.135010	2596.329834
1307.232666	2640.201172
1306.330078	2686.826904
1305.427368	2702.972412
1304.524536	2630.505615
1303.621460	2630.044189
1302.718262	2535.471436
1301.814941	2579.306641
1300.911499	2695.068604
1300.007813	2619.899658
1299.104004	2583.481445
1298.199951	2674.291260
1297.295898	2729.123535
1296.391602	2822.640381
1295.487061	2852.550049
1294.582520	3039.975098
1293.677734	3050.494141
1292.772827	2983.655029
1291.867676	2817.401855
1290.962402	2645.683350
1290.057007	2490.592285
1289.151489	2556.411865
1288.245728	2423.472412
1287.339844	2367.852295
1286.433838	2397.788086
1285.527588	2317.362793
1284.621216	2305.922607
1283.714722	2288.970703
1282.808105	2412.647705
1281.901245	2312.978027
1280.994263	2271.226563
1280.087036	2265.315674
1279.179810	2350.334229
1278.272217	2292.068604
1277.364624	2321.964111
1276.456787	2351.849121
1275.548828	2299.120605
1274.640747	2342.763672
1273.732544	2347.856689
1272.824097	2399.731689
1271.915405	2258.983154
1271.006714	2316.357422
1270.097778	2280.193115
1269.188721	2183.540283
1268.279541	2262.893799
1267.370117	2289.986572
1266.460571	2267.594971
1265.550781	2228.722412
1264.640991	2261.302002
1263.730957	2238.927002
1262.820679	2244.026367
1261.910400	2290.316650
1260.999878	2265.202393
1260.089233	2311.472412
1259.178345	2165.594727
1258.267334	2266.750977
1257.356201	2356.896240
1256.444824	2348.251465
1255.533447	2350.580811
1254.621704	2372.105713
1253.709961	2497.812500
1252.797974	2382.235840
1251.885864	2291.367676
1250.973633	2255.339111
1250.061157	2271.381348
1249.148560	2323.030273
1248.235840	2336.315918
1247.322876	2251.012207
1246.409790	2204.070068
1245.496582	2203.681641
1244.583130	2258.033691
1243.669556	2339.731689
1242.755859	2243.557861
1241.841919	2322.493652
1240.927856	2286.528320
1240.013672	2368.163330
1239.099365	2179.091797
1238.184814	2167.773193
1237.270142	2293.116211
1236.355225	2180.672363
1235.440186	2196.680908
1234.525024	2199.025391
1233.609741	2269.649414
1232.694214	2198.250000
1231.778564	2241.546387
1230.862671	2219.312744
1229.946777	2210.733398
1229.030640	2234.902832
1228.114258	2286.347168
1227.197876	2253.209473
1226.281128	2247.357178
1225.364380	2285.137207
1224.447388	2243.837646
1223.530273	2390.642090
1222.613037	2384.769287
1221.695557	2441.572754
1220.777954	2432.968262
1219.860229	2312.682617
1218.942261	2429.385986
1218.024170	2477.971924
1217.105957	2409.470215
1216.187500	2381.823975
1215.268921	2332.414551
1214.350220	2302.070313
1213.431274	2255.412842
1212.512207	2358.380615
1211.593018	2281.812988
1210.673706	2194.395508
1209.754150	2155.945801
1208.834351	2378.460693
1207.914551	2301.943115
1206.994507	2247.190918
1206.074219	2301.129639
1205.153931	2303.439453
1204.233398	2235.136230
1203.312744	2340.640381
1202.391846	2258.780273
1201.470825	2266.524170
1200.549683	2230.842529
1199.628296	2249.442139
1198.706787	2208.350098
1197.785156	2240.509521
1196.863281	2299.777344
1195.941284	2269.543945
1195.019165	2252.876221
1194.096802	2160.318604
1193.174438	2271.050049
1192.251709	2202.908203
1191.328979	2191.681885
1190.406006	2277.970947
1189.482788	2180.073975
1188.559570	2193.226563
1187.636108	2190.131348
1186.712402	2141.022705
1185.788696	2205.593750
1184.864746	2264.730225
1183.940552	2250.802979
1183.016357	2220.651611
1182.091919	2252.710449
1181.167236	2138.749756
1180.242554	2373.564941
1179.317505	2210.970703
1178.392456	2186.257568
1177.467163	2275.034424
1176.541748	2247.616943
1175.616211	2271.527588
1174.690430	2330.536377
1173.764526	2438.124756
1172.838501	2437.692871
1171.912231	2491.242432
1170.985840	2558.265869
1170.059204	2679.227539
1169.132446	2835.215820
1168.205566	3010.028564
1167.278564	2844.997803
1166.351318	2909.202393
1165.423828	2827.814941
1164.496338	2813.837402
1163.568604	2713.632324
1162.640747	2707.762695
1161.712646	2693.813477
1160.784424	2518.269043
1159.856079	2655.158203
1158.927490	2595.455078
1157.998779	2506.161865
1157.069946	2605.300049
1156.140869	2623.674561
1155.211670	2566.709473
1154.282349	2593.154053
1153.352783	2630.347168
1152.423096	2632.569580
1151.493164	2685.873779
1150.563232	2607.442627
1149.632935	2633.855957
1148.702637	2641.449951
1147.772095	2630.234619
1146.841431	2543.810059
1145.910522	2516.501465
1144.979492	2376.423096
1144.048340	2367.947021
1143.116943	2324.578125
1142.185425	2431.517090
1141.253784	2280.819580
1140.321899	2283.097412
1139.389893	2301.468506
1138.457764	2325.196777
1137.525391	2319.420898
1136.592896	2361.903809
1135.660278	2256.946533
1134.727417	2339.625000
1133.794434	2317.773193
1132.861206	2263.780762
1131.927856	2333.020996
1130.994385	2410.270508
1130.060669	2514.268799
1129.126831	2470.987793
1128.192871	2534.788330
1127.258667	2520.956787
1126.324341	2549.941406
1125.389893	2479.932129
1124.455200	2479.491211
1123.520386	2348.010986
1122.585327	2395.721924
1121.650146	2387.275879
1120.714844	2309.338623
1119.779297	2266.170166
1118.843628	2239.048096
1117.907837	2318.792236
1116.971802	2219.554932
1116.035645	2181.773438
1115.099365	2248.135010
1114.162842	2290.447266
1113.226196	2180.608887
1112.289307	2129.518066
1111.352417	2219.854248
1110.415161	2219.459229
1109.477905	2237.734131
1108.540405	2184.002441
1107.602661	2172.948975
1106.664917	2284.522217
1105.726807	2350.746582
1104.788696	2283.708740
1103.850342	2211.366211
1102.911865	2338.835693
1101.973145	2306.458984
1101.034302	2258.116455
1100.095337	2153.880615
1099.156128	2228.031006
1098.216797	2246.264160
1097.277344	2205.949219
1096.337646	2240.142822
1095.397827	2250.383789
1094.457764	2300.514160
1093.517700	2300.104248
1092.577271	2180.057129
1091.636841	2203.591797
1090.696167	2197.883545
1089.755249	2277.207275
1088.814209	2290.084961
1087.873047	2271.083008
1086.931763	2212.251221
1085.990234	2344.621338
1085.048584	2330.928955
1084.106689	2240.265625
1083.164673	2351.328613
1082.222412	2284.574463
1081.280151	2209.885010
1080.337524	2297.021729
1079.394897	2307.219727
1078.452026	2298.853516
1077.509033	2253.375977
1076.565796	2255.624268
1075.622437	2279.072510
1074.678955	2262.768311
1073.735229	2272.960938
1072.791382	2224.879150
1071.847290	2274.797607
1070.903076	2361.766357
1069.958740	2318.988770
1069.014160	2352.982910
1068.069458	2315.514404
1067.124512	2235.726074
1066.179565	2375.530762
1065.234253	2443.873535
1064.288940	2483.103271
1063.343384	2440.356689
1062.397583	2529.798584
1061.451660	2579.563721
1060.505615	2478.686768
1059.559448	2570.715820
1058.613037	2417.044922
1057.666382	2448.306152
1056.719727	2278.868164
1055.772827	2286.381348
1054.825684	2238.458252
1053.878418	2362.101318
1052.931030	2308.904297
1051.983398	2290.023438
1051.035645	2242.133545
1050.087769	2231.183350
1049.139648	2272.974121
1048.191406	2314.750000
1047.242920	2353.874756
1046.294312	2371.901855
1045.345581	2337.222900
1044.396606	2476.433594
1043.447510	2341.655029
1042.498291	2412.342285
1041.548828	2317.119385
1040.599121	2364.091797
1039.649414	2284.704346
1038.699341	2360.614258
1037.749268	2423.340820
1036.798950	2493.936768
1035.848511	2411.952148
1034.897827	2377.333252
1033.947021	2382.166260
1032.996094	2358.080078
1032.044922	2391.826904
1031.093506	2404.538086
1030.142090	2341.049072
1029.190430	2343.256836
1028.238525	2300.813232
1027.286499	2261.010742
1026.334351	2368.253662
1025.381958	2265.450928
1024.429443	2259.795898
1023.476807	2204.283936
1022.523926	2300.965088
1021.570923	2248.088623
1020.617737	2205.721924
1019.664368	2265.638916
1018.710815	2165.604492
1017.757080	2319.874512
1016.803223	2379.738525
1015.849121	2353.108154
1014.894897	2229.550049
1013.940491	2218.672607
1012.985962	2223.512695
1012.031189	2191.691895
1011.076294	2293.402344
1010.121216	2340.107422
1009.165955	2245.472168
1008.210510	2239.836182
1007.254944	2302.222168
1006.299133	2330.581787
1005.343201	2340.624512
1004.387085	2358.508057
1003.430786	2303.184814
1002.474365	2258.336670
1001.517700	2237.024658
1000.560913	2278.429199
999.603943	2359.004883
998.646790	2374.253174
997.689514	2394.718750
996.731995	2318.569824
995.774353	2396.469482
994.816528	2341.227783
993.858521	2319.930664
992.900330	2332.559814
991.942017	2287.793701
990.983459	2308.248291
990.024780	2289.579834
989.065918	2255.274170
988.106873	2291.364014
987.147705	2225.794434
986.188293	2327.022705
985.228760	2251.048584
984.269043	2250.644043
983.309143	2242.426270
982.349060	2239.419434
981.388794	2197.360840
980.428406	2321.911865
979.467834	2368.340820
978.507019	2240.411865
977.546082	2398.708984
976.585022	2549.145508
975.623718	2582.496338
974.662292	2673.040039
973.700623	2893.539551
972.738831	2887.820557
971.776855	2884.702393
970.814758	2720.486572
969.852417	2652.451904
968.889954	2553.272461
967.927246	2441.143799
966.964417	2508.213379
966.001404	2344.212402
965.038208	2372.341797
964.074890	2343.368896
963.111328	2329.973877
962.147644	2280.265625
961.183777	2256.511963
960.219727	2271.665039
959.255493	2232.364746
958.291077	2333.062256
957.326538	2296.356689
956.361755	2288.168945
955.396851	2264.438965
954.431763	2230.355713
953.466492	2201.464355
952.501038	2333.132080
951.535461	2275.753174
950.569641	2324.525879
949.603699	2233.523926
948.637573	2292.636963
947.671265	2250.829346
946.704773	2260.770508
945.738098	2304.328857
944.771240	2254.784180
943.804260	2396.569092
942.837097	2313.422607
941.869751	2323.343018
940.902222	2418.528320
939.934509	2420.675781
938.966614	2327.252441
937.998535	2339.745361
937.030334	2321.249268
936.061951	2271.780762
935.093323	2214.586914
934.124573	2307.090332
933.155640	2283.452637
932.186584	2290.780029
931.217285	2290.366699
930.247864	2184.223633
929.278198	2160.624756
928.308411	2304.594238
927.338440	2337.684326
926.368286	2205.839844
925.397949	2254.394287
924.427429	2308.083008
923.456787	2243.278320
922.485901	2284.074463
921.514893	2250.192383
920.543701	2141.672852
919.572327	2275.116455
918.600769	2315.876709
917.629028	2199.685547
916.657104	2173.565674
915.685059	2216.893799
914.712769	2203.636719
913.740356	2241.801758
912.767761	2166.854980
911.794983	2217.862305
910.822021	2256.003906
909.848877	2191.370850
908.875549	2283.442627
907.902039	2229.100098
906.928406	2292.887939
905.954590	2300.175049
904.980530	2248.425293
904.006348	2304.476074
903.031982	2324.585449
902.057434	2290.816162
901.082703	2400.690186
900.107849	2261.779785
899.132751	2374.182861
898.157532	2250.708008
897.182068	2227.234131
896.206482	2290.894287
895.230713	2344.283203
894.254761	2233.710449
893.278625	2264.040039
892.302307	2286.676270
891.325806	2247.859619
890.349182	2193.698242
889.372314	2200.979004
888.395325	2198.021973
887.418091	2195.065674
886.440735	2225.363037
885.463196	2247.977051
884.485474	2252.684082
883.507568	2323.858154
882.529480	2210.971924
881.551270	2259.127441
880.572815	2194.840576
879.594238	2294.074463
878.615417	2222.141602
877.636475	2369.855225
876.657349	2282.614990
875.677979	2320.493408
874.698486	2238.398438
873.718811	2329.860352
872.739014	2354.952148
871.758972	2492.276611
870.778748	2425.512451
869.798401	2346.022217
868.817810	2325.200439
867.837097	2189.676758
866.856140	2273.384766
865.875061	2308.647217
864.893799	2348.991943
863.912354	2328.188232
862.930725	2391.435791
861.948914	2388.455811
860.966919	2380.385010
859.984741	2354.499268
859.002441	2382.066650
858.019897	2414.712646
857.037231	2373.570313
856.054321	2334.986328
855.071289	2352.364502
854.088074	2407.875732
853.104614	2326.089111
852.121033	2323.125244
851.137268	2398.941162
850.153320	2441.699219
849.169189	2461.578613
848.184937	2430.653564
847.200439	2460.685059
846.215759	2460.238281
845.230896	2584.177490
844.245911	2611.626465
843.260681	2809.082275
842.275330	2996.317627
841.289795	3041.432861
840.304016	3048.489014
839.318115	3068.221191
838.332031	2786.250000
837.345764	2727.443359
836.359314	2643.314697
835.372681	2503.471191
834.385864	2609.419922
833.398865	2538.022949
832.411743	2514.769043
831.424377	2494.055664
830.436829	2529.044434
829.449158	2495.680176
828.461243	2553.431641
827.473206	2540.316406
826.484924	2486.730225
825.496521	2509.041504
824.507935	2432.720703
823.519104	2394.353027
822.530151	2404.029053
821.541016	2401.064453
820.551697	2516.868652
819.562195	2443.141846
818.572510	2548.791748
817.582642	2502.867188
816.592590	2623.618652
815.602356	2549.925537
814.611938	2549.461426
813.621399	2834.182373
812.630615	2987.587891
811.639648	3188.871338
810.648560	3448.096191
809.657227	3523.126221
808.665771	3731.766357
807.674072	3761.338867
806.682251	3357.366699
805.690186	3064.425293
804.697998	2917.728760
803.705566	2778.643066
802.713013	2559.009277
801.720276	2588.762207
800.727356	2492.614502
799.734253	2517.333740
798.740906	2406.132568
797.747437	2556.679199
796.753784	2528.537842
795.759949	2515.499512
794.765930	2411.924316
793.771729	2444.174316
792.777344	2416.073486
791.782776	2372.900879
790.788025	2297.072021
789.793091	2392.137695
788.798035	2313.820557
787.802734	2280.744873
786.807251	2270.283447
785.811584	2249.781982
784.815796	2279.497314
783.819763	2319.241455
782.823547	2273.646729
781.827148	2142.759521
780.830627	2262.782715
779.833862	2292.467773
778.836975	2312.111328
777.839844	2233.964355
776.842529	2198.461670
775.845093	2228.136475
774.847412	2227.729736
773.849609	2297.475098
772.851563	2251.966309
771.853394	2183.933350
770.854980	2298.721191
769.856445	2265.754639
768.857666	2305.391113
767.858765	2297.462158
766.859680	2322.064941
765.860352	2321.640869
764.860901	2361.237793
763.861206	2338.298828
762.861389	2285.363281
761.861389	2277.445801
760.861145	2257.033936
759.860779	2204.141846
758.860168	2313.676270
757.859436	2215.827148
756.858521	2332.812012
755.857361	2264.961182
754.856079	2262.050537
753.854614	2254.147949
752.852905	2296.165039
751.851074	2283.268555
750.848999	2330.254395
749.846802	2327.333984
748.844421	2429.162598
747.841797	2338.950439
746.839050	2228.826660
745.836121	2191.029297
744.832947	2150.753662
743.829651	2227.603760
742.826111	2167.405762
741.822449	2201.880615
740.818604	2273.697998
739.814514	2310.630615
738.810303	2322.655029
737.805847	2200.269287
736.801270	2207.332031
735.796448	2231.808838
734.791504	2313.491943
733.786316	2397.632324
732.781006	2354.919189
731.775452	2361.946777
730.769775	2306.826416
729.763855	2279.065186
728.757751	2318.406250
727.751526	2350.279297
726.745056	2315.072998
725.738403	2327.066650
724.731628	2269.529541
723.724609	2236.839600
722.717407	2323.305664
721.710083	2248.428711
720.702515	2305.085449
719.694763	2364.202148
718.686829	2403.454346
717.678711	2281.499268
716.670410	2246.368896
715.661987	2288.099854
714.653320	2267.852295
713.644470	2299.651367
712.635437	2242.244385
711.626221	2251.741943
710.616821	2248.852295
709.607178	2223.677246
708.597412	2292.591797
707.587463	2212.960205
706.577332	2259.577393
705.567017	2325.972656
704.556458	2323.072021
703.545776	2250.913330
702.534912	2319.746338
701.523804	2242.669434
700.512573	2343.616699
699.501099	2370.375488
698.489502	2310.630127
697.477661	2369.505371
696.465698	2393.773926
695.453491	2326.647217
694.441101	2242.258789
693.428589	2343.075684
692.415833	2345.114014
691.402893	2364.427979
690.389771	2317.108887
689.376465	2294.478516
688.362976	2237.322266
687.349304	2231.978760
686.335449	2219.239746
685.321411	2243.485596
684.307190	2238.143555
683.292725	2235.267822
682.278137	2274.281250
681.263367	2303.426025
680.248352	2238.961914
679.233215	2285.340576
678.217834	2304.618164
677.202332	2326.350098
676.186584	2296.386963
675.170654	2310.729736
674.154541	2298.002930
673.138306	2292.660400
672.121826	2267.644043
671.105164	2294.276367
670.088318	2350.401611
669.071289	2266.393066
668.054016	2224.195557
667.036621	2233.615234
666.019043	2297.080322
665.001282	2286.832275
663.983276	2188.177002
662.965149	2266.347412
661.946777	2251.200684
660.928223	2297.421875
659.909546	2274.912598
658.890625	2262.225830
657.871521	2347.669678
656.852234	2307.994141
655.832764	2332.091797
654.813110	2304.692383
653.793274	2301.816650
652.773254	2294.040039
651.752991	2269.113037
650.732605	2332.395020
649.711975	2241.332275
648.691223	2292.350342
647.670227	2279.684814
646.649048	2369.847656
645.627747	2313.113037
644.606201	2288.213867
643.584473	2395.453125
642.562561	2402.350586
641.540466	2330.975830
640.518127	2274.300049
639.495667	2242.095215
638.473022	2356.577148
637.450134	2351.254395
636.427063	2353.264648
635.403870	2325.955078
634.380432	2359.725098
633.356812	2383.713135
632.333008	2290.482178
631.309021	2268.086670
630.284851	2257.904541
629.260498	2342.906250
628.235901	2364.434814
627.211182	2361.558838
626.186218	2334.292236
625.161133	2289.964355
624.135803	2294.418213
623.110291	2362.253906
622.084595	2439.813965
621.058716	2288.274170
620.032654	2448.659180
619.006409	2472.567139
617.979919	2369.816406
616.953308	2379.119385
615.926453	2451.720459
614.899414	2434.228027
613.872253	2514.093018
612.844849	2501.461914
611.817261	2522.895752
610.789490	2498.105469
609.761475	2487.916016
608.733337	2475.298584
607.705017	2370.304688
606.676453	2382.020020
605.647705	2366.998535
604.618774	2349.552979
603.589722	2380.699463
602.560425	2331.682617
601.530884	2299.682617
600.501221	2372.095459
599.471375	2310.969727
598.441284	2414.905029
597.411011	2373.206543
596.380615	2297.557129
595.349976	2277.726563
594.319153	2253.052979
593.288147	2313.256104
592.256897	2346.769043
591.225525	2326.943604
590.193970	2285.314453
589.162170	2294.583496
588.130188	2306.271729
587.098022	2368.819824
586.065674	2305.418213
585.033142	2258.988525
584.000427	2246.466553
582.967468	2289.616455
581.934387	2279.512939
580.901062	2298.446289
579.867554	2319.791504
578.833862	2428.195313
577.799988	2357.621582
576.765930	2316.085205
575.731628	2402.674805
574.697205	2223.391602
573.662537	2394.535889
572.627747	2415.834717
571.592712	2376.740967
570.557434	2323.171875
569.522034	2223.747314
568.486450	2218.507080
567.450623	2295.331055
566.414673	2263.534668
565.378479	2282.416748
564.342102	2212.038086
563.305542	2315.335938
562.268799	2430.651855
561.231812	2451.899414
560.194702	2391.183105
559.157349	2316.029053
558.119812	2368.610107
557.082092	2450.081055
556.044189	2391.818359
555.006042	2432.314697
553.967773	2417.416748
552.929260	2339.933350
551.890625	2370.788818
550.851746	2416.071533
549.812683	2292.917236
548.773376	2306.924805
547.733948	2342.573242
546.694275	2383.017822
545.654419	2262.364746
544.614441	2329.250244
543.574158	2343.237793
542.533752	2366.831299
541.493164	2294.319092
540.452332	2353.942627
539.411316	2480.786865
538.370178	2362.672607
537.328735	2347.830078
536.287170	2419.399902
535.245422	2447.747314
534.203430	2473.685059
533.161255	2473.225342
532.118896	2388.821289
531.076355	2429.142822
530.033630	2375.946045
528.990723	2329.959961
527.947571	2370.269531
526.904236	2362.640381
525.860718	2235.227051
524.817017	2265.950195
523.773132	2320.610596
522.729004	2289.051758
521.684692	2307.777832
520.640198	2319.316162
519.595520	2426.572998
518.550659	2473.974121
517.505615	2406.532959
516.460327	2425.219238
515.414856	2379.333496
514.369202	2335.855713
513.323364	2376.057861
512.277283	2280.017334
511.231079	2322.604248
510.184631	2243.333008
509.138000	2269.190186
508.091187	2259.215088
507.044159	2196.713623
505.996948	2205.853760
504.949554	2300.916748
503.901947	2197.873291
502.854126	2245.183105
501.806152	2206.596680
500.757965	2292.048096
499.709564	2258.236572
