#Wave		#Intensity
3200.600830	50.518227
3200.007080	4.209852
3199.413086	16.836864
3198.819092	-12.625739
3198.224854	0.000000
3197.630615	29.451153
3197.036377	29.446701
3196.442139	21.030178
3195.847656	33.643200
3195.252930	16.819057
3194.658447	50.449543
3194.063721	8.406985
3193.468750	37.825714
3192.873779	0.000000
3192.278809	29.411104
3191.683838	37.808559
3191.088623	42.003155
3190.493164	8.399361
3189.897949	8.398090
3189.302490	16.793640
3188.706787	20.988874
3188.111328	33.577118
3187.515381	-8.393010
3186.919678	20.979351
3186.323730	25.171412
3185.727783	-8.389201
3185.131592	20.969830
3184.535400	-8.386662
3183.939209	4.192697
3183.342773	41.920624
3182.746338	0.000000
3182.149902	33.526348
3181.553223	41.901596
3180.956543	41.895252
3180.359619	8.377783
3179.762695	12.564772
3179.165771	29.313362
3178.568604	33.495914
3177.971436	71.168037
3177.374268	29.300051
3176.776855	8.370175
3176.179443	0.000000
3175.581787	4.183821
3174.984131	37.648682
3174.386475	16.730215
3173.788574	8.363840
3173.190674	-4.181287
3172.592773	12.541961
3171.994629	20.900103
3171.396484	0.000000
3170.798340	12.536263
3170.199951	25.068727
3169.601563	16.709953
3169.002930	25.061132
3168.404297	-4.176223
3167.805664	45.931488
3167.206787	29.224701
3166.607910	8.348649
3166.008789	33.389538
3165.409912	41.730595
3164.810547	12.517282
3164.211426	12.515385
3163.612061	20.855812
3163.012695	12.511591
3162.413086	8.339796
3161.813477	0.000000
3161.213623	16.674536
3160.614014	8.336004
3160.013916	12.502110
3159.414063	29.167170
3158.813965	8.332213
3158.213867	12.496426
3157.613525	-4.164844
3157.013184	45.806332
3156.412598	24.981483
3155.812256	49.955387
3155.211426	12.486953
3154.610840	0.000000
3154.010010	41.610550
3153.409180	8.320848
3152.808105	12.479379
3152.207031	-4.159162
3151.605957	37.426777
3151.004639	20.789501
3150.403320	12.471807
3149.801758	33.253109
3149.200195	20.780039
3148.598633	12.466131
3147.996826	24.928480
3147.395020	16.616465
3146.793213	-8.306972
3146.191162	16.611422
3145.589111	-4.152225
3144.986816	33.212757
3144.384766	37.358681
3143.782227	24.902008
3143.179932	29.047932
3142.577393	-4.149075
3141.974609	16.593779
3141.371826	29.034704
3140.769043	4.147185
3140.166260	33.172443
3139.563232	16.583702
3138.960205	24.871777
3138.356934	4.144667
3137.753662	45.584408
3137.150391	33.147263
3136.546875	0.000000
3135.943359	16.568598
3135.339600	0.000000
3134.735840	16.563564
3134.132080	28.981833
3133.528076	28.977430
3132.924072	41.390041
3132.320068	41.383751
3131.715820	8.275493
3131.111572	12.411353
3130.507080	12.409467
3129.902588	37.222744
3129.298096	-4.135232
3128.693604	16.538414
3128.088867	24.803850
3127.483887	28.933428
3126.878906	24.796310
3126.273926	24.792542
3125.668945	-16.525848
3125.063721	24.785004
3124.458252	28.911442
3123.853027	16.518312
3123.247559	24.773701
3122.641846	37.154903
3122.036133	20.638474
3121.430420	12.381201
3120.824707	-16.505758
3120.218750	4.125812
3119.612549	-16.500738
3119.006592	20.622786
3118.400391	16.495718
3117.793945	0.000000
3117.187500	-12.368026
3116.581055	20.610241
3115.974609	57.699894
3115.367920	20.603970
3114.760986	41.201672
3114.154297	37.075859
3113.547363	45.308044
3112.940186	37.064579
3112.333008	0.000000
3111.725830	16.468132
3111.118408	24.698441
3110.510986	16.463121
3109.903564	16.460615
3109.295898	28.801691
3108.688232	16.455605
3108.080566	8.226550
3107.472656	16.450594
3106.864746	28.784159
3106.256592	8.222793
3105.648438	8.221541
3105.040039	24.660868
3104.431885	8.219038
3103.823486	0.000000
3103.214844	-4.108267
3102.606201	4.107642
3101.997559	-16.428064
3101.388672	12.319172
3100.779785	20.528826
3100.170898	24.630838
3099.561768	0.000000
3098.952637	8.207778
3098.343262	16.413055
3097.733887	8.205277
3097.124512	-8.204027
3096.514893	20.506945
3095.905273	-4.100764
3095.295410	16.400557
3094.685791	12.298543
3094.075684	24.593336
3093.465820	0.000000
3092.855713	45.074043
3092.245361	45.067173
3091.635254	36.867519
3091.024658	12.287300
3090.414307	36.856281
3089.803711	24.567108
3089.193115	49.126728
3088.582275	12.279809
3087.971436	4.092646
3087.360596	28.644152
3086.749512	24.548386
3086.138428	40.907738
3085.527100	36.811352
3084.915771	4.089526
3084.304443	8.177805
3083.692871	12.264837
3083.081299	40.876553
3082.469482	16.348127
3081.857910	12.259226
3081.245850	12.257356
3080.634033	16.340647
3080.021973	36.760849
3079.409668	4.083915
3078.797607	16.333170
3078.185059	-8.165339
3077.572754	4.082047
3076.960205	24.488541
3076.347656	4.080801
3075.734863	4.080178
3075.122070	24.477329
3074.509033	8.157865
3073.895996	28.548168
3073.282959	28.543810
3072.669922	24.462389
3072.056641	16.305769
3071.443115	12.227460
3070.829834	12.225594
3070.216064	-24.447454
3069.602539	16.295815
3068.988770	4.073331
3068.375000	-20.363546
3067.760986	28.504612
3067.146973	44.786121
3066.532715	48.850124
3065.918701	36.632000
3065.304199	16.278402
3064.689941	20.344894
3064.075439	36.615215
3063.460693	20.338678
3062.846191	40.671143
3062.231445	16.265972
3061.616455	16.263487
3061.001465	28.456753
3060.386475	0.000000
3059.771240	44.704090
3059.156006	8.126774
3058.540771	32.502129
3057.925293	36.559307
3057.309814	-8.123049
3056.694092	36.548134
3056.078369	8.120565
3055.462646	16.238649
3054.846680	36.531376
3054.230713	12.175263
3053.614502	28.404606
3052.998291	12.171541
3052.382080	-4.056560
3051.765625	8.111879
3051.149170	-4.055320
3050.532715	12.164099
3049.916016	4.054080
3049.299316	40.534595
3048.682373	-12.158519
3048.065430	12.156659
3047.448486	12.154799
3046.831299	4.050980
3046.214111	24.302162
3045.596680	20.248703
3044.979248	44.540333
3044.361816	24.291010
3043.744141	12.143647
3043.126465	20.236315
3042.508545	52.606369
3041.890869	12.138073
3041.272705	20.227026
3040.654785	32.358288
3040.036621	20.220837
3039.418213	36.391933
3038.799805	8.085858
3038.181396	32.338482
3037.562988	12.125075
3036.944336	4.041073
3036.325439	20.202272
3035.706543	-4.039836
3035.087646	0.000000
3034.468750	48.463184
3033.849609	36.341824
3033.230469	48.448345
3032.611084	28.257206
3031.991699	32.289005
3031.372070	44.390583
3030.752441	4.034889
3030.132813	16.137085
3029.513184	36.302883
3028.893066	-4.033036
3028.273193	20.162088
3027.653076	24.190800
3027.032959	32.249458
3026.412598	20.152824
3025.792480	12.089842
3025.171875	28.205309
3024.551270	24.172274
3023.930664	24.168570
3023.310059	24.164865
3022.689209	28.188023
3022.068115	32.209946
3021.447266	16.102505
3020.826172	36.225082
3020.204834	4.024392
3019.583496	32.190201
3018.962158	40.231583
3018.340576	4.022542
3017.718994	0.000000
3017.097412	48.255699
3016.475586	48.248302
3015.853760	40.200752
3015.231689	60.291882
3014.609619	32.150738
3013.987549	72.328072
3013.365234	8.035219
3012.742920	12.050981
3012.120361	40.163773
3011.497803	4.015761
3010.875244	16.060581
3010.252441	20.072647
3009.629639	28.097395
3009.006836	8.026595
3008.383789	40.126820
3007.760498	32.096531
3007.137451	8.022902
3006.514160	4.010835
3005.890625	56.143074
3005.267090	56.134457
3004.643555	12.026966
3004.019775	4.008373
3003.395996	32.062065
3002.772217	12.021429
3002.148193	60.097919
3001.524170	40.059128
3000.899902	-4.005298
3000.275635	16.018732
2999.651367	52.052887
2999.026855	40.034534
2998.402344	40.028385
2997.777588	12.006672
2997.152832	40.016094
2996.528076	28.006964
2995.903076	28.002663
2995.278076	0.000000
2994.653076	19.995758
2994.027832	11.995612
2993.402344	51.973000
2992.777100	47.967709
2992.151367	43.963642
2991.525879	43.956890
2990.900146	27.968267
2990.274414	43.943382
2989.648438	35.948154
2989.022461	43.929878
2988.396240	47.916142
2987.770264	55.893574
2987.143799	43.909630
2986.517578	15.964684
2985.891113	55.867805
2985.264404	31.919554
2984.637695	43.882641
2984.010986	39.887177
2983.384033	59.821568
2982.757080	39.874912
2982.130127	59.803173
2981.502930	43.848915
2980.875732	51.813480
2980.248291	59.775589
2979.620850	7.968853
2978.993408	63.741020
2978.365723	35.848808
2977.738037	71.686592
2977.110107	51.765686
2976.482178	27.869545
2975.854248	75.634270
2975.226074	59.702080
2974.597900	75.611000
2973.969482	79.578285
2973.341309	87.522644
2972.712646	63.643036
2972.083984	95.449867
2971.455322	95.435181
2970.826660	87.468788
2970.197754	131.182983
2969.568604	131.162796
2968.939697	91.402428
2968.310547	107.281982
2967.681152	83.428703
2967.051758	99.304596
2966.422363	139.005035
2965.792725	103.244980
2965.163086	123.080833
2964.533203	142.910583
2963.903564	158.765076
2963.273438	182.551727
2962.643311	182.523621
2962.013184	170.593628
2961.383057	166.600677
2960.752686	138.812515
2960.122314	226.031281
2959.491699	249.785568
2958.861084	206.140457
2958.230225	182.326935
2957.599609	206.076950
2956.968506	206.045212
2956.337646	206.013458
2955.706299	237.671219
2955.075195	198.028839
2954.443848	273.237671
2953.812500	233.602020
2953.180908	277.112213
2952.549316	265.195099
2951.917725	269.111755
2951.285889	280.941040
2950.653809	308.591888
2950.021973	348.101288
2949.389893	340.137451
2948.757568	276.813385
2948.125244	296.540039
2947.492920	280.681305
2946.860352	288.543304
2946.227783	304.306976
2945.595215	264.745758
2944.962402	233.098389
2944.329590	221.211807
2943.696533	181.681671
2943.063477	173.755661
2942.430420	189.522400
2941.797119	181.597626
2941.163574	185.516785
2940.530273	173.648483
2939.896729	138.108170
2939.262939	145.977539
2938.629150	126.231369
2937.995361	173.541351
2937.361328	173.514587
2936.727295	157.716187
2936.093262	145.864960
2935.458984	165.550888
2934.824707	137.937790
2934.190186	197.023575
2933.555664	141.835083
2932.921143	216.659027
2932.286377	185.116409
2931.651367	192.963913
2931.016602	224.433578
2930.381592	224.398926
2929.746338	259.790222
2929.111084	283.363770
2928.475830	267.580017
2927.840332	279.341858
2927.204834	318.636597
2926.569336	283.188782
2925.933594	361.796448
2925.297607	334.216827
2924.661865	361.684692
2924.025879	353.767334
2923.389648	357.642822
2922.753418	392.953400
2922.117188	333.958801
2921.480713	365.333740
2920.844238	384.915863
2920.207764	306.314270
2919.571045	349.458435
2918.934082	384.737488
2918.297363	357.201019
2917.660156	329.673065
2917.023193	361.014709
2916.385986	313.877319
2915.748779	349.134552
2915.111328	329.469299
2914.473877	349.026611
2913.836182	309.762268
2913.198486	309.714355
2912.560791	309.666473
2911.922852	325.295502
2911.284912	309.570740
2910.646729	333.030945
2910.008545	407.410156
2909.370361	411.263947
2908.731934	360.289825
2908.093506	426.799103
2907.455078	414.988159
2906.816406	465.810852
2906.177490	481.393890
2905.538574	512.624756
2904.899658	524.283142
2904.260498	551.585754
2903.621338	578.879822
2902.982178	633.540710
2902.342773	578.700745
2901.703369	586.430237
2901.063721	570.703796
2900.424072	547.165527
2899.784424	531.449951
2899.144531	531.367737
2898.504639	535.192017
2897.864502	535.109131
2897.224365	480.352112
2896.583984	449.040192
2895.943848	511.436157
2895.303223	530.874390
2894.662842	464.443207
2894.021973	460.469025
2893.381348	460.397705
2892.740479	487.633942
2892.099609	546.065430
2891.458496	491.382782
2890.817383	386.026672
2890.176025	499.027893
2889.534668	498.950623
2888.893311	518.360596
2888.251709	514.383423
2887.610107	545.473694
2886.968262	584.345520
2886.326416	603.730164
2885.684570	669.841980
2885.042480	599.649292
2884.400391	638.488647
2883.758057	720.134705
2883.115723	684.994995
2882.473389	673.214600
2881.830811	739.254028
2881.188232	739.139465
2880.545410	669.012024
2879.902588	649.463318
2879.259766	731.019043
2878.616699	660.925354
2877.973633	699.694824
2877.330322	687.926575
2876.687012	738.337769
2876.043457	633.317871
2875.399902	586.602295
2874.756348	629.237305
2874.112549	516.515991
2873.468750	516.435852
2872.824707	430.943542
2872.180664	473.576202
2871.536621	454.096893
2870.892334	508.354401
2870.248047	508.275543
2869.603760	492.679260
2868.958984	434.421387
2868.314453	473.135590
2867.669678	558.368469
2867.024902	515.635315
2866.379883	480.668121
2865.734863	507.723816
2865.089844	492.144409
2864.444580	519.189880
2863.799316	515.235352
2863.153809	526.775452
2862.508301	503.457184
2861.862549	484.018311
2861.216797	429.741547
2860.571045	452.900513
2859.925049	359.941956
2859.279053	328.928131
2858.632813	290.185638
2857.986572	294.009125
2857.340332	290.095520
2856.693848	274.581116
2856.047363	232.004349
2855.400635	162.377823
2854.753906	228.066757
2854.107178	200.976761
2853.460205	181.623856
2852.813232	181.595657
2852.166016	131.346664
2851.518799	158.364014
2850.871338	181.511032
2850.223877	162.176147
2849.576416	173.733154
2848.928711	177.566299
2848.281006	216.134079
2847.633301	227.677307
2846.985352	181.341873
2846.337158	189.029160
2845.688965	215.999756
2845.040771	215.966187
2844.392578	227.500427
2843.743896	262.163147
2843.095459	254.412903
2842.446777	296.768890
2841.798096	331.404633
2841.149170	327.500183
2840.500244	319.744568
2839.851074	362.064056
2839.202148	365.858887
2838.552734	446.663483
2837.903320	388.844788
2837.253906	454.223267
2836.604492	404.118866
2835.954834	454.082001
2835.304932	415.535828
2834.655029	411.624237
2834.005127	392.328400
2833.354980	423.033447
2832.704834	299.922485
2832.054688	303.720398
2831.404297	253.701599
2830.753906	215.228470
2830.103271	207.509445
2829.452637	165.213287
2828.801758	169.029144
2828.150879	226.617447
2827.500000	176.657288
2826.848877	165.110458
2826.197754	122.853775
2825.546387	99.803154
2824.895020	115.139557
2824.243408	122.796402
2823.591797	115.103706
2822.940186	99.741013
2822.288330	95.889885
2821.636475	103.544952
2820.984619	99.694427
2820.332520	76.676079
2819.680176	103.496582
2819.028076	42.158707
2818.375488	53.648178
2817.723145	65.134071
2817.070557	88.108841
2816.417725	61.283554
2815.764893	76.592514
2815.112061	72.751549
2814.458984	49.769619
2813.805908	53.589703
2813.152832	61.235828
2812.499512	72.706215
2811.845947	72.694885
2811.192383	76.509003
2810.538818	61.197666
2809.885010	65.012383
2809.231201	61.178589
2808.577393	76.461319
2807.923340	42.047169
2807.269287	68.793732
2806.614990	61.140450
2805.960693	64.951599
2805.306152	57.301300
2804.651611	68.750839
2803.997070	49.645638
2803.342285	53.456196
2802.687500	49.630157
2802.032471	53.439526
2801.377441	22.899082
2800.722412	34.343266
2800.067139	41.968555
2799.411621	41.962006
2798.756348	45.769592
2798.100586	41.948914
2797.445068	87.697685
2796.789307	22.874086
2796.133301	49.552788
2795.477539	34.300423
2794.821289	22.863380
2794.165283	41.909657
2793.509033	30.474995
2792.852539	34.279018
2792.196045	72.355522
2791.539551	57.113861
2790.882813	26.648975
2790.226074	76.128044
2789.569092	38.058079
2788.912109	57.078205
2788.255127	41.850815
2787.597900	34.236229
2786.940430	26.624022
2786.283203	76.056755
2785.625488	53.231411
2784.968018	30.413200
2784.310303	53.214787
2783.652588	38.004627
2782.994629	30.398951
2782.336426	37.992752
2781.678467	30.389456
2781.020264	56.971325
2780.361816	53.164932
2779.703369	56.953526
2779.044922	34.166775
2778.386230	37.957153
2777.727539	45.541466
2777.068604	64.506996
2776.409668	37.939362
2775.750732	37.933434
2775.091553	53.098503
2774.432373	30.337259
2773.772949	37.915646
2773.113525	53.073608
2772.453857	37.903793
2771.794189	68.216164
2771.134521	15.156777
2770.474609	45.463223
2769.814697	37.880096
2769.154541	53.023842
2768.494385	34.081425
2767.833984	26.503630
2767.173584	68.141533
2766.513184	45.420582
2765.852539	34.060108
2765.191895	22.703188
2764.531006	41.615997
2763.870117	45.392170
2763.209229	30.256712
2762.548096	26.470482
2761.886719	49.151775
2761.225586	22.681885
2760.563965	37.797226
2759.902588	37.791309
2759.240967	41.563938
2758.579102	11.333845
2757.917236	49.105640
2757.255371	56.651489
2756.593262	49.090271
2755.931152	67.960503
2755.269043	79.274841
2754.606689	60.390427
2753.944092	64.154785
2753.281494	64.144737
2752.618896	33.953663
2751.956055	52.808537
2751.293213	26.400133
2750.630371	22.625143
2749.967285	52.783730
2749.303955	60.314816
2748.640625	86.688972
2747.977295	56.527428
2747.313721	56.518574
2746.650146	52.742405
2745.986572	52.734142
2745.322754	64.024284
2744.658691	41.420990
2743.994873	67.769180
2743.330566	75.287292
2742.666504	86.566818
2742.002197	75.263695
2741.337646	60.201519
2740.673096	90.288132
2740.008545	67.705482
2739.343750	75.216522
2738.678955	78.964973
2738.013916	60.154354
2737.348877	56.385868
2736.683594	33.826218
2736.018311	71.399704
2735.353027	41.330193
2734.687500	56.350513
2734.021973	56.341679
2733.356201	52.577320
2732.690430	86.363480
2732.024658	45.052139
2731.358643	63.813854
2730.692383	93.829185
2730.026367	67.546417
2729.359863	52.527863
2728.693604	78.779434
2728.027100	101.271950
2727.360352	71.254265
2726.693604	101.240173
2726.026855	82.479050
2725.359863	116.202248
2724.692871	112.436142
2724.025635	142.396759
2723.358398	116.147545
2722.691162	112.383209
2722.023682	134.838684
2721.355957	149.797241
2720.688477	127.307671
2720.020508	119.800179
2719.352783	119.781372
2718.684814	112.277405
2718.016602	127.227745
2717.348389	101.017937
2716.680176	108.483704
2716.011719	119.687363
2715.343262	104.709999
2714.674561	112.171661
2714.005859	97.200172
2713.337158	100.922791
2712.668213	74.745880
2711.999023	89.680962
2711.329834	85.930756
2710.660645	104.594925
2709.991455	97.108597
2709.321777	63.484108
2708.652344	70.941673
2707.982666	97.062828
2707.312988	89.582382
2706.643066	82.104279
2705.972900	108.211357
2705.302979	70.885956
2704.632813	85.795822
2703.962402	74.593338
2703.291992	85.768852
2702.621582	123.040314
2701.950928	52.190716
2701.280273	74.546448
2700.609375	85.714935
2699.938477	37.261501
2699.267334	67.060158
2698.596191	85.674507
2697.925049	55.865891
2697.253662	100.542793
2696.582031	74.464424
2695.910645	67.007446
2695.239014	44.664604
2694.567139	85.593689
2693.895264	85.580223
2693.223145	44.643528
2692.551270	55.795631
2691.878906	33.472111
2691.206543	59.496613
2690.534180	40.897484
2689.861816	63.195259
2689.189209	59.468533
2688.516357	74.323967
2687.843506	55.734200
2687.170654	63.155487
2686.497559	44.573326
2685.824463	40.852451
2685.151123	44.559296
2684.477783	51.977661
2683.804199	51.969479
2683.130615	22.269127
2682.457031	70.507797
2681.783203	29.682819
2681.109375	70.485596
2680.435303	59.346943
2679.761230	77.880592
2679.086914	48.204205
2678.412598	66.733772
2677.738281	70.430107
2677.063721	66.712746
2676.389160	74.113602
2675.714355	37.050964
2675.039551	70.385742
2674.364502	44.447147
2673.689453	18.516727
2673.014404	33.324856
2672.339111	44.426140
2671.663574	37.015949
2670.988037	85.123268
2670.312500	70.308136
2669.636719	25.898916
2668.960938	62.887451
2668.285156	66.576218
2667.609131	48.075245
2666.932861	33.277615
2666.256592	55.453949
2665.580322	55.445206
2664.903809	55.436462
2664.227295	25.866270
2663.550781	48.029785
2662.874023	44.328194
2662.197021	48.014637
2661.520020	77.549873
2660.843018	51.691761
2660.165771	51.683609
2659.488525	55.366558
2658.811035	59.048347
2658.133545	73.798790
2657.455811	70.097786
2656.778076	95.908157
2656.100342	51.634705
2655.422363	47.938946
2654.744385	58.992470
2654.066162	55.296715
2653.387939	88.460777
2652.709473	44.223408
2652.031006	62.639942
2651.352539	69.998299
2650.673828	58.936630
2649.994873	62.610283
2649.316162	44.188519
2648.636963	62.590515
2647.958008	73.624275
2647.278809	51.528854
2646.599365	77.281082
2645.919922	69.909935
2645.240479	69.898895
2644.560791	84.601089
2643.880859	80.910004
2643.201172	44.125759
2642.520996	58.825050
2641.841064	55.139774
2641.160889	51.455658
2640.480469	44.097885
2639.800049	47.765160
2639.119629	22.041975
2638.438965	80.807808
2637.758301	58.760029
2637.077393	40.391136
2636.396484	55.070118
2635.715332	62.402935
2635.034180	55.052711
2634.353027	84.400818
2633.671631	33.021187
2632.989990	58.695053
2632.308350	51.350052
2631.626709	58.676495
2630.944824	58.667217
2630.262939	43.993458
2629.581055	47.652042
2628.898926	62.304359
2628.216553	43.972591
2627.534180	32.974228
2626.851807	29.305790
2626.169189	21.975866
2625.486572	65.917175
2624.803711	73.229721
2624.120850	43.930882
2623.437988	54.904915
2622.754883	36.597485
2622.071533	32.932526
2621.388184	43.903088
2620.704834	54.870174
2620.021240	58.518925
2619.337646	47.539104
2618.653809	29.250204
2617.969971	32.901272
2617.286133	36.551182
2616.602051	54.818096
2615.917725	47.501495
2615.233398	21.920298
2614.549072	65.750481
2613.864502	62.087845
2613.179932	65.729668
2612.495117	80.323540
2611.810303	58.407867
2611.125488	62.048534
2610.440430	29.194685
2609.755127	32.838821
2609.069824	32.833618
2608.384521	51.066429
2607.698975	51.058342
2607.013428	47.403809
2606.327637	40.104561
2605.641846	40.098206
2604.956055	47.381283
2604.270020	32.797230
2603.583740	40.079151
2602.897461	29.143856
2602.211182	47.351261
2601.524658	21.850965
2600.838135	40.053753
2600.151367	36.406734
2599.464600	32.760868
2598.777832	65.511345
2598.090820	50.945194
2597.403564	43.660385
2596.716309	54.566833
2596.029053	43.646545
2595.341553	36.366356
2594.654053	50.904823
2593.966309	50.896751
2593.278564	43.618870
2592.590820	32.708965
2591.902832	61.773804
2591.214600	61.764004
2590.526367	54.489006
2589.838135	54.480366
2589.149658	32.683033
2588.461182	0.000000
2587.772461	58.084740
2587.083740	36.297203
2586.394775	29.033155
2585.705811	76.199936
2585.016846	25.395950
2584.327637	76.175758
2583.638184	58.029465
2582.948975	61.646519
2582.259277	39.882595
2581.569824	32.626034
2580.879883	47.119015
2580.190186	43.487568
2579.500244	47.104053
2578.810059	21.736881
2578.119873	28.977907
2577.429688	25.351645
2576.739258	39.831970
2576.048584	65.169243
2575.358154	61.538952
2574.667236	61.529182
2573.976563	14.475155
2573.285645	50.654995
2572.594482	68.735146
2571.903320	54.255970
2571.212158	79.562782
2570.520752	83.166061
2569.829102	50.614777
2569.137451	39.762436
2568.445801	57.827080
2567.753906	39.749802
2567.062012	25.291307
2566.370117	36.124699
2565.677979	68.626022
2564.985596	57.781147
2564.293213	79.436455
2563.600830	50.542435
2562.908203	10.828800
2562.215332	46.917343
2561.522705	57.735241
2560.829590	32.470909
2560.136719	75.753410
2559.443604	46.887512
2558.750244	50.486214
2558.056885	32.450264
2557.363525	82.915260
2556.669922	50.462132
2555.976074	21.623190
2555.282227	36.032917
2554.588379	64.848930
2553.894287	32.419308
2553.200195	46.820442
2552.505859	75.620987
2551.811523	43.205120
2551.117188	32.398685
2550.422607	50.389935
2549.727783	39.585793
2549.032959	50.373898
2548.338135	50.365883
2547.643066	68.342819
2546.947998	39.560596
2546.252686	17.979227
2545.557373	50.333824
2544.861816	53.920513
2544.166260	64.694313
2543.470703	43.122677
2542.774902	28.743876
2542.078857	35.924122
2541.382813	64.653130
2540.686768	25.138878
2539.990479	53.860447
2539.294189	46.671619
2538.597656	39.485081
2537.901123	43.067776
2537.204346	57.414555
2536.507568	57.405407
2535.810791	50.221729
2535.113770	43.040340
2534.416504	78.894722
2533.719238	53.783283
2533.021973	46.604752
2532.324463	50.181736
2531.626953	43.006062
2530.929199	32.249409
2530.231445	17.913483
2529.533447	46.567631
2528.835449	50.141762
2528.137451	21.485901
2527.439209	39.384541
2526.740723	60.857315
2526.042236	57.268341
2525.343750	75.152718
2524.645020	42.937561
2523.946289	57.240955
2523.247314	17.884945
2522.548340	35.764187
2521.849121	75.092819
2521.149902	57.204449
2520.450684	64.344742
2519.751221	46.463791
2519.051514	39.309242
2518.351807	64.313957
2517.652100	46.441559
2516.952148	39.290436
2516.252197	60.711891
2515.552002	35.707180
2514.851807	53.552223
2514.151367	39.265366
2513.450928	82.087204
2512.750244	57.095032
2512.049561	28.542959
2511.348877	49.942207
2510.647949	17.833654
2509.946777	64.190910
2509.245605	24.959146
2508.544434	64.170418
2507.843018	53.466812
2507.141602	39.202736
2506.439941	53.449738
2505.738281	42.752964
2505.036377	60.557026
2504.334473	39.177700
2503.632568	53.415604
2502.930420	35.604717
2502.228027	60.518349
2501.525635	42.712013
2500.823242	64.057785
2500.120605	56.931156
2499.417969	17.788143
2498.715088	56.912968
2498.012207	28.451937
2497.309082	53.338856
2496.605957	63.996403
2495.902588	56.876598
2495.199219	49.759071
2494.495605	60.412071
2493.791992	24.871584
2493.088379	78.155342
2492.384521	46.175320
2491.680664	17.756899
2490.976563	35.508121
2490.272461	49.703423
2489.568115	60.344505
2488.863770	88.727730
2488.159180	60.325211
2487.454590	60.315563
2486.749756	67.400734
2486.044922	49.655754
2485.339844	42.555267
2484.634766	63.822693
2483.929688	60.267345
2483.224365	42.534851
2482.519043	60.248066
2481.813477	49.608116
2481.107666	49.600178
2480.402100	53.134548
2479.696045	53.126045
2478.990234	49.576374
2478.284180	31.865427
2477.577881	74.340759
2476.871582	67.249924
2476.165039	60.161354
2475.458496	74.305077
2474.751953	31.839933
2474.045166	63.669674
2473.338379	70.732758
2472.631348	56.577145
2471.924072	56.568089
2471.217041	38.884335
2470.509521	45.946854
2469.802246	49.473305
2469.094482	45.932140
2468.386963	35.326756
2467.679199	35.321098
2466.971191	38.846985
2466.263184	81.212502
2465.554932	45.895367
2464.846680	56.477558
2464.138428	77.644196
2463.429932	88.217911
2462.721436	24.697056
2462.012695	42.331028
2461.303955	74.067429
2460.594971	56.423283
2459.885986	38.784790
2459.176758	52.879875
2458.467529	74.019958
2457.758057	70.483902
2457.048584	59.901711
2456.338867	63.415173
2455.629150	42.270004
2454.919434	42.263229
2454.209473	70.427422
2453.499512	52.812096
2452.789307	45.763142
2452.078857	63.354191
2451.368408	63.344032
2450.657959	31.666937
2449.947266	38.697826
2449.236572	56.278717
2448.525879	49.235981
2447.814697	56.260666
2447.103760	80.861732
2446.392578	59.757778
2445.681152	73.806587
2444.969727	38.654392
2444.258301	49.188602
2443.546631	52.693619
2442.834717	49.172817
2442.122803	66.723831
2441.410889	24.578518
2440.698730	42.127838
2439.986572	66.691704
2439.274170	31.585737
2438.561768	49.125481
2437.849121	35.083996
2437.136475	59.633217
2436.423584	70.145462
2435.710693	66.627487
2434.997803	45.579910
2434.284424	59.594925
2433.571289	45.565273
2432.857910	52.566872
2432.144287	28.031160
2431.430908	38.536655
2430.717041	87.569237
2430.003174	52.533104
2429.289307	35.016441
2428.575195	52.516228
2427.861084	66.509865
2427.146729	34.999569
2426.432373	45.492126
2425.717773	55.981312
2425.003174	66.467125
2424.288330	48.967907
2423.573486	80.434341
2422.858643	52.448750
2422.143555	55.936340
2421.428223	38.450054
2420.712891	66.403053
2419.997559	41.932026
2419.281982	48.912830
2418.566162	94.316727
2417.850586	55.882404
2417.134521	13.968354
2416.418457	76.813599
2415.702393	17.454828
2414.986084	55.846466
2414.269775	41.878113
2413.553223	41.871376
2412.836670	59.308243
2412.120117	20.928953
2411.403076	66.264359
2410.686279	45.331474
2409.969238	59.270084
2409.251953	45.316891
2408.534668	45.309597
2407.817383	41.817513
2407.099854	41.810783
2406.382080	59.222412
2405.664307	31.347996
2404.946533	17.412750
2404.228516	62.675808
2403.510498	34.814289
2402.792236	76.579102
2402.073975	45.244003
2401.355469	73.074699
2400.636963	73.062935
2399.918213	76.529793
2399.199463	45.214870
2398.480469	45.207588
2397.761475	45.200306
2397.042480	31.287481
2396.323242	76.468193
2395.603760	34.752670
2394.884277	55.595314
2394.164795	76.431244
2393.445068	76.418930
2392.725098	52.095421
2392.005127	62.504433
2391.285156	62.494358
2390.564941	48.598892
2389.844727	59.003429
2389.124268	41.642769
2388.403809	41.636055
2387.683105	34.691120
2386.962402	45.091187
2386.241455	72.827873
2385.520508	34.674347
2384.799316	27.735006
2384.078125	38.129486
2383.356689	58.917885
2382.635254	48.512787
2381.913818	31.181763
2381.192139	48.497143
2380.470215	48.489323
2379.748291	62.333359
2379.026367	34.624058
2378.304199	48.465862
2377.581787	55.380623
2376.859375	38.068035
2376.136963	62.283100
2375.414307	55.353825
2374.691650	31.131502
2373.968750	58.794460
2373.245850	51.869095
2372.522705	51.860722
2371.799316	48.395531
2371.076172	62.212780
2370.352783	69.114159
2369.629150	34.551498
2368.905518	44.909698
2368.181641	44.902451
2367.457764	58.709110
2366.733643	62.152550
2366.009521	65.594879
2365.285400	86.295113
2364.561035	44.866215
2363.836426	41.408279
2363.111816	72.452782
2362.387207	51.743629
2361.662354	37.939201
2360.937256	55.175377
2360.212158	65.510178
2359.487061	65.499596
2358.761719	44.808273
2358.036377	58.585968
2357.310791	20.674059
2356.584961	58.567036
2355.859375	20.667379
2355.133301	58.548111
2354.407471	41.321400
2353.681152	89.515228
2352.955078	61.962067
2352.228516	44.743149
2351.502197	30.971018
2350.775635	48.169350
2350.048828	51.601677
2349.322021	51.593334
2348.594971	55.023991
2347.867920	75.645752
2347.140869	10.313663
2346.413330	37.810646
2345.686035	34.367756
2344.958496	68.724396
2344.230713	82.455940
2343.502930	48.091518
2342.775146	54.952843
2342.047119	51.509956
2341.319092	44.634743
2340.590820	48.060406
2339.862305	58.349621
2339.133789	51.476631
2338.405273	54.899521
2337.676514	65.182632
2336.947754	72.032303
2336.218750	48.013763
2335.489746	75.437988
2334.760498	44.569778
2334.031250	44.562565
2333.301758	58.264690
2332.572266	68.535599
2331.842529	58.245827
2331.112793	41.108044
2330.382813	82.202774
2329.652832	61.642097
2328.922607	61.632118
2328.192383	61.622135
2327.462158	51.343464
2326.731689	78.713898
2326.000977	88.966515
2325.270264	27.369877
2324.539307	51.310207
2323.808350	37.621391
2323.077393	85.489304
2322.346191	51.285275
2321.614746	92.298538
2320.883301	37.597015
2320.151855	54.677704
2319.420166	51.252041
2318.688232	30.746241
2317.956299	61.482513
2317.224365	47.811985
2316.492188	54.633411
2315.760010	23.898243
2315.027588	54.615700
2314.295166	85.323196
2313.562500	47.773243
2312.829590	40.941853
2312.096924	61.402824
2311.363770	78.446442
2310.630615	47.742264
2309.897461	78.420998
2309.164063	47.726780
2308.430664	54.536045
2307.697021	37.487450
2306.963379	54.518353
2306.229492	64.730042
2305.495605	54.500664
2304.761719	27.245911
2304.027344	47.672607
2303.293213	40.855606
2302.558838	27.232651
2301.824219	71.474106
2301.089600	30.626789
2300.354736	64.646065
2299.619873	74.841187
2298.885010	34.013199
2298.149658	54.412285
2297.414551	54.403450
2296.679199	64.593613
2295.943604	84.977791
2295.208008	54.376957
2294.472412	61.164143
2293.736572	47.564388
2293.000488	30.572140
2292.264404	47.548939
2291.528320	57.728622
2290.791992	54.323994
2290.055420	50.920471
2289.318848	37.335613
2288.582275	50.903931
2287.845459	61.074791
2287.108398	57.672379
2286.371582	54.271065
2285.634277	84.784760
2284.896973	57.644268
2284.159668	54.244614
2283.422119	67.794746
2282.684570	61.005356
2281.946777	37.274990
2281.208740	57.597443
2280.470703	64.363144
2279.732666	60.965698
2278.994385	33.864326
2278.256104	50.788231
2277.517578	67.706635
2276.779053	71.080406
2276.040283	57.531921
2275.301514	40.604164
2274.562500	30.448172
2273.823486	71.034180
2273.084229	33.820297
2272.344971	60.866634
2271.605469	54.094872
2270.865967	74.368347
2270.126221	54.077274
2269.386475	77.723434
2268.646484	50.680950
2267.906494	77.698143
2267.166260	67.552605
2266.426025	70.918694
2265.685547	67.530624
2264.945068	54.015705
2264.204346	64.133209
2263.463623	91.121834
2262.722656	53.989334
2261.981689	50.606762
2261.240723	40.478817
2260.499268	64.081024
2259.758057	60.698456
2259.016602	64.060158
2258.274902	77.533882
2257.533203	70.780273
2256.791260	60.658928
2256.049316	53.910267
2255.307129	33.688427
2254.564941	67.365883
2253.822754	70.722656
2253.080322	67.343933
2252.337646	57.233017
2251.594971	60.589794
2250.852051	70.676575
2250.109131	60.570049
2249.366211	60.560181
2248.623047	90.825470
2247.879639	50.450371
2247.136230	70.619003
2246.392578	67.245232
2245.648926	36.978851
2244.905273	50.417484
2244.161377	84.015442
2243.417236	77.281609
2242.673096	90.707092
2241.928955	40.307690
2241.184570	43.659546
2240.439941	53.726063
2239.695313	63.789295
2238.950439	67.135674
2238.205566	46.987309
2237.460693	67.113777
2236.715576	26.841131
2235.970215	23.482159
2235.224854	60.372845
2234.479492	70.423492
2233.733887	73.764954
2232.988037	56.990891
2232.242188	40.222301
2231.496338	63.674915
2230.750244	70.366058
2230.003906	67.004356
2229.257568	33.496708
2228.511230	60.284233
2227.764648	63.622971
2227.017822	110.485016
2226.270996	73.644653
2225.523926	53.551003
2224.776855	50.195869
2224.029785	86.991966
2223.282471	50.179478
2222.534912	86.963554
2221.787354	60.195709
2221.039795	43.467579
2220.291992	53.489819
2219.543945	66.851357
2218.795898	53.472347
2218.047852	66.829514
2217.299561	43.432087
2216.551025	60.126911
2215.802490	93.515472
2215.053955	83.482315
2214.305176	66.774940
2213.556152	66.764023
2212.807129	70.090767
2212.058105	30.033993
2211.308838	66.731293
2210.559326	40.032234
2209.809814	73.380432
2209.060303	60.028717
2208.310547	33.343838
2207.560547	53.341415
2206.810547	56.665989
2206.060303	89.984207
2205.310059	56.647457
2204.559814	43.311562
2203.809326	46.635590
2203.058594	23.313982
2202.307861	63.270454
2201.557129	39.953751
2200.806152	59.920826
2200.054932	69.896194
2199.303711	53.245529
2198.552246	26.618408
2197.800781	39.921082
2197.049316	49.893185
2196.297607	46.559353
2195.545654	89.778343
2194.793701	33.245796
2194.041504	56.508602
2193.289307	49.852371
2192.537109	49.844212
2191.784668	49.836052
2191.031982	79.724632
2190.279297	59.783684
2189.526367	63.094666
2188.773438	39.842739
2188.020508	43.155899
2187.267090	76.340240
2186.513916	53.097557
2185.760498	76.315239
2185.006836	79.620247
2184.253174	69.656311
2183.499268	53.062778
2182.745361	63.001728
2181.991211	43.099384
2181.237061	33.147942
2180.482666	56.342266
2179.728271	69.587868
2178.973877	62.950134
2178.218994	76.190308
2177.464355	62.929504
2176.709229	52.984581
2175.954346	76.152847
2175.198975	52.967213
2174.443848	46.338715
2173.688232	56.259212
2172.932861	62.867638
2172.177002	66.165611
2171.421387	56.231548
2170.665283	46.300739
2169.909424	66.133072
2169.153076	69.428337
2168.396729	33.055691
2167.640381	42.965347
2166.883789	62.785210
2166.127197	36.343369
2165.370361	69.371414
2164.613525	72.662895
2163.856445	52.837070
2163.099365	59.431953
2162.342041	52.819733
2161.584473	75.915909
2160.826904	42.901951
2160.069336	72.591385
2159.311523	49.486004
2158.553711	102.254288
2157.795654	82.449600
2157.037354	65.948853
2156.279053	82.422539
2155.520752	69.223564
2154.762207	65.916382
2154.003662	56.019726
2153.244873	46.126316
2152.485840	75.766502
2151.726807	52.698479
2150.967773	55.982937
2150.208252	49.388596
2149.448975	69.132683
2148.689453	59.246849
2147.929688	55.946167
2147.169922	26.323282
2146.410156	69.087265
2145.650146	75.654572
2144.889893	52.620621
2144.129639	62.476719
2143.369141	59.178745
2142.608643	75.604858
2141.847900	55.872669
2141.087158	52.577400
2140.326416	68.996490
2139.565186	62.415138
2138.804199	59.120411
2138.042725	68.962471
2137.281494	72.234520
2136.519775	29.545628
2135.758301	55.799232
2134.996338	68.917130
2134.234619	75.468254
2133.472412	42.648956
2132.710449	65.602989
2131.947998	62.312588
2131.185547	39.348846
2130.423096	59.013557
2129.660400	68.837822
2128.897705	75.381409
2128.134766	62.261353
2127.371826	72.080231
2126.608643	55.689194
2125.845215	58.955326
2125.081787	78.594170
2124.318359	72.032799
2123.554688	78.568298
2122.790771	42.550823
2122.026855	45.816422
2121.262939	75.257446
2120.498779	39.258289
2119.734375	94.858582
2118.969971	91.572517
2118.205322	55.588448
2117.440674	71.926147
2116.676025	39.225983
2115.911133	84.975632
2115.145996	78.426125
2114.380859	94.749298
2113.615479	68.600258
2112.850098	58.790535
2112.084473	71.843262
2111.318848	78.361557
2110.552979	81.613174
2109.787109	88.127708
2109.020996	81.586281
2108.254883	91.361580
2107.488525	78.297020
2106.722168	81.545959
2105.955566	84.793816
2105.188965	48.911446
2104.422119	84.765869
2103.655029	45.635635
2102.887939	55.405567
2102.120850	81.465340
2101.353516	97.742294
2100.585938	52.120628
2099.818359	68.397041
2099.050781	45.590511
2098.282959	65.118561
2097.514893	61.852428
2096.746826	91.135918
2095.978760	74.849297
2095.210449	58.568047
2094.441895	74.824608
2093.673340	74.812263
2092.904541	78.052094
2092.135742	68.284309
2091.366699	84.528534
2090.597656	52.008972
2089.828369	68.250511
2089.059082	94.235153
2088.289551	74.725891
2087.520020	64.968315
2086.750244	45.470314
2085.980469	55.204838
2085.210449	74.676567
2084.440186	64.925423
2083.670166	61.668972
2082.899658	81.129982
2082.129150	81.116592
2081.358643	81.103195
2080.587891	68.115433
2079.816895	87.562523
2079.045898	81.063019
2078.274902	32.419853
2077.503662	74.553345
2076.732178	81.022858
2075.960693	90.730606
2075.188965	64.796867
2074.417236	80.982704
2073.645264	80.969322
2072.873291	90.670662
2072.101074	80.942566
2071.328857	67.980522
2070.556396	58.259388
2069.783936	84.138542
2069.011230	77.653511
2068.238525	61.465530
2067.465576	84.096825
2066.692627	64.679169
2065.919434	48.501358
2065.145996	45.260448
2064.372559	64.647095
2063.599121	64.636406
2062.825439	77.550858
2062.051514	83.999535
2061.277588	71.064774
2060.503662	77.512383
2059.729248	67.812119
2058.955078	67.800903
2058.180664	74.245850
2057.406006	58.095833
2056.631348	77.448296
2055.856445	93.567871
2055.081543	93.552391
2054.306396	64.508209
2053.531250	80.621918
2052.755859	67.711205
2051.980225	64.476189
2051.204590	93.474998
2050.428955	93.459526
2049.653076	80.555222
2048.877197	80.541885
2048.101074	51.538273
2047.324707	77.294609
2046.548340	77.281807
2045.771851	61.171303
2044.995239	61.161171
2044.218506	64.369514
2043.441528	74.012688
2042.664551	64.348198
2041.887329	90.072556
2041.110107	73.975914
2040.332642	51.452980
2039.555176	102.888908
2038.777466	93.227623
2037.999634	73.926903
2037.221802	38.564167
2036.443726	80.328697
2035.665527	77.102768
2034.887207	105.998741
2034.108765	51.384811
2033.330200	83.486473
2032.551514	77.051666
2031.772705	96.298615
2030.993774	67.397858
2030.214600	102.684464
2029.435425	77.000580
2028.656128	86.611290
2027.876587	57.731285
2027.097046	102.616379
2026.317261	105.805588
2025.537476	121.816528
2024.757446	96.154991
2023.977295	102.548317
2023.197021	96.123093
2022.416626	86.496437
2021.636230	92.888168
2020.855591	80.062721
2020.074707	102.463272
2019.293823	83.237595
2018.512817	73.621040
2017.731689	83.209969
2016.950439	92.795723
2016.168945	86.381676
2015.387451	105.560081
2014.605713	111.939072
2013.823975	105.525032
2013.041992	111.901909
2012.260010	92.703331
2011.477783	73.511124
2010.695435	108.650574
2009.912964	95.852234
2009.130371	121.392670
2008.347656	95.820404
2007.564819	98.997971
2006.781860	108.560387
2005.998779	92.580238
2005.215576	102.140533
2004.432129	105.314926
2003.648682	82.961617
2002.864990	89.328430
2002.081299	86.123817
2001.297363	79.731026
2000.513428	111.604881
1999.729248	105.209976
1998.944946	92.441887
1998.160522	108.362129
1997.375977	95.597748
1996.591309	98.767921
1995.806519	98.751495
1995.021606	114.660095
1994.236572	108.272087
1993.451416	85.966476
1992.666016	136.886810
1991.880615	95.486542
1991.094971	127.294220
1990.309326	117.727570
1989.523438	114.526688
1988.737549	98.603806
1987.951416	79.505966
1987.165161	82.672455
1986.378784	117.629684
1985.592285	101.716858
1984.805664	114.412422
1984.018921	63.551880
1983.232056	88.957825
1982.444946	123.884926
1981.657837	85.752213
1980.870605	88.913422
1980.083130	104.773376
1979.295654	111.104774
1978.507935	98.390709
1977.720093	92.027596
1976.932129	107.876457
1976.144165	104.686188
1975.355957	117.355881
1974.567627	88.795067
1973.779053	104.633904
1972.990479	104.616478
1972.201782	117.277725
1971.412964	104.581635
1970.623901	110.901436
1969.834839	123.555298
1969.045532	91.859146
1968.256226	120.347107
1967.466675	107.661049
1966.677002	98.145187
1965.887207	107.625175
1965.097290	101.277405
1964.307251	123.411263
1963.517090	113.899101
1962.726807	101.226776
1961.936401	117.023949
1961.145874	123.329002
1960.355103	98.014404
1959.564331	91.675606
1958.773315	104.303123
1957.982178	104.285736
1957.191040	88.470116
1956.399658	123.205681
1955.608154	104.233574
1954.816528	120.006523
1954.024780	110.513885
1953.232910	145.222595
1952.440918	126.259453
1951.648682	123.082436
1950.856445	123.061897
1950.063965	107.266830
1949.271484	116.712074
1948.478760	94.615623
1947.685913	104.059822
1946.893066	110.348053
1946.099976	126.091019
1945.306763	148.132217
1944.513428	119.746483
1943.719971	132.329285
1942.926270	129.157028
1942.132568	94.489365
1941.338745	132.263016
1940.544678	147.983902
1939.750610	94.442039
1938.956299	151.082031
1938.161865	113.292603
1937.367310	106.980698
1936.572632	144.714417
1935.777832	141.544815
1934.982910	141.521164
1934.187866	119.486801
1933.392700	144.617752
1932.597290	100.586845
1931.801880	160.283493
1931.006226	122.549255
1930.210571	150.804642
1929.414673	131.932022
1928.618652	125.628540
1927.822510	119.327171
1927.026245	113.027893
1926.229858	125.565559
1925.433350	141.237640
1924.636719	153.766388
1923.839844	138.052856
1923.042969	116.070496
1922.245850	159.962311
1921.448730	112.895691
1920.651367	131.689606
1919.853882	134.802536
1919.056274	169.258591
1918.258545	134.757446
1917.460693	147.268387
1916.662720	128.446671
1915.864624	150.351440
1915.066284	122.140106
1914.267944	131.513489
1913.469360	169.060486
1912.670776	153.381073
1911.871948	150.225693
1911.072998	153.329742
1910.273926	156.432724
1909.474731	140.765900
1908.675415	162.635590
1907.875977	143.845856
1907.076294	150.074890
1906.276611	178.184097
1905.476807	143.773621
1904.676758	131.249588
1903.876587	115.605278
1903.076294	146.825363
1902.275879	149.924194
1901.475342	162.390671
1900.674683	156.118729
1899.873901	177.945541
1899.072998	143.581116
1898.271851	149.798676
1897.470703	171.615555
1896.669312	180.946091
1895.867920	168.438828
1895.066284	134.104736
1894.264526	134.082260
1893.462646	174.589493
1892.660645	121.568741
1891.858521	158.947861
1891.056152	158.921219
1890.253784	196.281540
1889.451172	168.213120
1888.648560	161.955841
1887.845703	168.156723
1887.042725	140.107101
1886.239624	143.196579
1885.436401	149.397461
1884.633057	136.924713
1883.829590	158.681564
1883.025879	143.100555
1882.222168	146.186905
1881.418213	155.491898
1880.614258	136.809921
1879.810059	146.113358
1879.005737	161.630203
1878.201294	155.387589
1877.396729	149.147049
1876.592041	167.762268
1875.787231	183.265060
1874.982178	142.860641
1874.177124	189.413834
1873.371826	173.858932
1872.566406	148.996933
1871.760986	158.282654
1870.955322	152.049973
1870.149536	148.921906
1869.343506	161.304977
1868.537476	176.785370
1867.731323	195.361557
1866.924927	151.922363
1866.118530	154.996780
1865.311890	161.169586
1864.505127	167.340302
1863.698242	198.295929
1862.891235	170.381943
1862.084106	188.937317
1861.276855	161.034256
1860.469482	185.777542
1859.661865	176.459015
1858.854126	148.572098
1858.046387	154.736588
1857.238403	176.370071
1856.430298	160.871964
1855.622070	222.708359
1854.813721	163.910538
1854.005249	166.975128
1853.196533	219.504456
1852.387817	170.010071
1851.578857	176.162643
1850.769775	163.772812
1849.960693	185.372009
1849.151367	169.895767
1848.341919	191.486649
1847.532227	176.014572
1846.722534	191.422241
1845.912720	206.824722
1845.102661	179.012177
1844.292603	188.239761
1843.482300	169.695816
1842.671875	188.176422
1841.861328	166.554382
1841.050659	203.532211
1840.239868	191.164749
1839.428833	221.960419
1838.617798	234.252121
1837.806519	187.986511
1836.995117	172.548721
1836.183716	175.600388
1835.372070	237.174637
1834.560303	178.620941
1833.748291	215.540710
1832.936279	187.796707
1832.124146	187.765076
1831.311768	190.811066
1830.499390	190.778931
1829.686768	184.593674
1828.874023	227.627182
1828.061157	218.362274
1827.248169	209.100464
1826.434937	178.320358
1825.621704	209.030014
1824.808228	169.039917
1823.994751	202.813721
1823.181030	215.069214
1822.367188	199.673477
1821.553223	214.996735
1820.739136	214.960495
1819.924927	181.150452
1819.110474	202.608719
1818.296021	196.435944
1817.481323	193.334045
1816.666626	202.506271
1815.851685	184.065582
1815.036621	184.034546
1814.221436	174.803329
1813.406006	156.376602
1812.590576	217.664063
1811.774902	205.366653
1810.959229	177.750107
1810.143311	214.489792
1809.327271	193.008255
1808.511108	214.417435
1807.694824	251.132339
1806.878418	186.786438
1806.061768	205.124268
1805.245117	180.601334
1804.428223	241.781326
1803.611206	198.900421
1802.794067	198.866852
1801.976807	208.010208
1801.159424	189.624359
1800.341919	210.997940
1799.524170	220.134598
1798.706421	210.926697
1797.888428	213.947479
1797.070313	210.855484
1796.252075	183.321640
1795.433716	201.619736
1794.615234	204.640030
1793.796509	213.766907
1792.977783	213.730789
1792.158813	232.011383
1791.339844	216.710861
1790.520630	219.725998
1789.701294	213.586411
1788.881714	210.499603
1788.062134	189.112610
1787.242432	219.577545
1786.422485	198.196228
1785.602417	228.649307
1784.782349	210.321808
1783.962036	198.095749
1783.141479	225.486282
1782.320923	179.749207
1781.500244	228.456131
1780.679321	194.916275
1779.858398	222.288788
1779.037231	219.206665
1778.215942	188.729370
1777.394531	222.176041
1776.572998	264.740356
1775.751221	222.100891
1774.929443	228.147263
1774.107422	243.315918
1773.285278	209.824478
1772.463013	221.950653
1771.640625	218.873199
1770.818115	212.757385
1769.995483	194.488129
1769.172607	215.723755
1768.349731	215.687256
1767.526611	206.538742
1766.703369	230.798355
1765.880005	218.614059
1765.056519	218.577057
1764.232910	233.716461
1763.409058	224.572601
1762.585083	236.671585
1761.761108	273.036346
1760.936890	221.425323
1760.112549	212.289703
1759.288086	236.511322
1758.463379	218.281174
1757.638672	221.275375
1756.813721	269.728394
1755.988647	242.411407
1755.163574	245.399979
1754.338257	230.212830
1753.512695	242.288239
1752.687134	245.275269
1751.861328	227.068253
1751.035522	224.002716
1750.209473	208.832001
1749.383301	266.291321
1748.557007	257.169617
1747.730591	235.950943
1746.903931	220.788452
1746.077271	235.870956
1745.250366	229.784027
1744.423340	232.768036
1743.596313	241.795914
1742.768921	232.689102
1741.941528	247.756760
1741.114014	247.714752
1740.286255	253.713531
1739.458374	241.590958
1738.630493	229.472488
1737.802368	226.414688
1736.973999	232.412994
1736.145630	205.213013
1735.317139	247.420761
1734.488403	241.345154
1733.659546	220.190094
1732.830566	292.531708
1732.001465	280.420929
1731.172241	250.225677
1730.342896	232.097672
1729.513306	280.278198
1728.683594	229.005661
1727.853882	268.132141
1727.023926	247.001160
1726.193726	237.924133
1725.363525	246.917297
1724.533203	249.886047
1723.702637	291.985901
1722.871948	261.839783
1722.041138	234.713058
1721.210205	270.776764
1720.379150	297.803833
1719.547974	246.623901
1718.716553	258.610413
1717.885010	249.546707
1717.053467	231.467850
1716.221558	252.467484
1715.389648	255.429626
1714.557617	249.377136
1713.725342	285.383148
1712.893066	273.320557
1712.060547	249.250015
1711.227905	276.230164
1710.395142	291.193176
1709.562256	273.134766
1708.729126	255.082520
1707.895874	234.035919
1707.062622	281.995331
1706.229126	284.946808
1705.395508	263.905853
1704.561646	266.859406
1703.727783	236.834900
1702.893677	245.786819
1702.059570	299.689056
1701.225220	272.670624
1700.390747	290.599487
1699.556030	305.526855
1698.721313	227.608719
1697.886353	251.524719
1697.051392	245.494263
1696.216187	296.338959
1695.380859	251.396332
1694.545410	248.361252
1693.709717	278.236908
1692.874023	263.233124
1692.038086	284.123749
1691.202026	272.114319
1690.365845	284.027008
1689.529541	272.021667
1688.692993	292.896515
1687.856445	283.881958
1687.019653	259.931824
1686.182739	280.798065
1685.345703	277.763519
1684.508545	241.881866
1683.671143	259.754791
1682.833740	256.725372
1681.996094	283.543671
1681.158325	310.352814
1680.320435	271.512421
1679.482422	283.398743
1678.644287	298.263641
1677.805908	256.463013
1676.967407	259.400940
1676.128784	271.281158
1675.290039	244.409485
1674.451172	268.208588
1673.612183	297.958740
1672.772949	280.033478
1671.933594	274.028564
1671.094116	279.937988
1670.254517	273.935150
1669.414795	303.658905
1668.574829	318.489807
1667.734863	279.747070
1666.894653	258.870697
1666.054321	261.801544
1665.213867	300.425507
1664.373169	249.816223
1663.532471	285.455536
1662.691528	270.541901
1661.850464	297.248077
1661.009277	306.113251
1660.167969	264.460480
1659.326538	261.444397
1658.484863	273.281586
1657.643066	329.663910
1656.801147	273.188293
1655.959106	264.234863
1655.116943	270.126617
1654.274658	255.240906
1653.432129	275.969208
1652.589478	281.855896
1651.746704	302.572540
1650.903809	317.350311
1650.060791	237.230743
1649.217529	272.768768
1648.374146	284.579651
1647.530640	284.531036
1646.687012	296.335876
1645.843262	278.508148
1644.999390	319.933411
1644.155273	287.298492
1643.311035	260.597382
1642.466675	272.396179
1641.622192	263.468658
1640.777588	295.981598
1639.932739	290.012390
1639.087769	284.045227
1638.242798	266.246857
1637.397461	275.074738
1636.552124	272.070404
1635.706665	260.196777
1634.860962	295.627594
1634.015137	286.709717
1633.169189	274.839630
1632.323120	298.430725
1631.476929	324.967957
1630.630493	262.883636
1629.783936	271.698425
1628.937256	292.321106
1628.090454	327.697906
1627.243530	265.655548
1626.396484	309.878448
1625.549194	280.318237
1624.701782	289.120911
1623.854248	294.970825
1623.006592	286.072754
1622.158691	288.972473
1621.310791	288.923035
1620.462646	300.664307
1619.614380	300.612854
1618.765991	282.881317
1617.917358	285.779053
1617.068726	297.512787
1616.219849	291.571533
1615.370850	303.300232
1614.521729	323.857422
1613.672363	279.647125
1612.822998	323.746490
1611.973389	288.379272
1611.123657	300.098450
1610.273804	241.214279
1609.423828	305.877899
1608.573608	255.834793
1607.723389	267.551453
1606.872925	270.445221
1606.022339	326.242126
1605.171509	267.413940
1604.320679	302.625427
1603.469604	302.573547
1602.618408	287.836182
1601.767090	278.977020
1600.915649	264.248718
1600.064087	278.881378
1599.212280	270.028290
1598.360352	314.000793
1597.508301	302.210602
1596.656128	278.690155
1595.803833	302.106964
1594.951294	296.190002
1594.098633	293.207123
1593.245850	260.909576
1592.392944	304.830811
1591.539795	316.500763
1590.686646	313.516388
1589.833252	278.307922
1588.979736	284.118256
1588.126099	307.497925
1587.272217	286.948822
1586.418335	283.972015
1585.564209	310.266663
1584.709961	321.919586
1583.855591	280.899780
1583.000977	277.925995
1582.146362	310.053680
1581.291504	301.226837
1580.436523	292.403015
1579.581421	309.893982
1578.726074	289.379578
1577.870605	353.625427
1577.015137	286.358185
1576.159424	286.308990
1575.303467	315.470001
1574.447510	294.972168
1573.591309	289.081482
1572.734985	326.985474
1571.878540	286.063141
1571.021973	309.362061
1570.165161	265.538757
1569.308350	297.585724
1568.451294	312.119598
1567.594116	300.399933
1566.736694	312.012299
1565.879272	320.705170
1565.021606	323.565033
1564.163818	276.877441
1563.305908	297.227814
1562.447876	300.090210
1561.589600	369.950500
1560.731201	323.286957
1559.872681	317.407379
1559.014038	264.945892
1558.155273	302.743225
1557.296265	323.064606
1556.437134	299.729095
1555.577881	325.862946
1554.718506	334.533844
1553.859009	337.384796
1552.999268	305.338837
1552.139404	345.991150
1551.279419	305.233765
1550.419312	331.339630
1549.558960	252.820938
1548.698608	316.698151
1547.838013	319.548615
1546.977173	328.207062
1546.116333	304.918671
1545.255249	301.962677
1544.394165	319.328613
1543.532837	301.858704
1542.671265	345.336517
1541.809692	264.035400
1540.947876	322.009674
1540.085938	313.252747
1539.223877	321.898743
1538.361694	345.039215
1537.499268	333.383820
1536.636841	330.427887
1535.774170	347.758911
1534.911377	315.826569
1534.048340	338.948090
1533.185303	307.028259
1532.322021	312.767334
1531.458618	266.385498
1530.594971	321.344482
1529.731323	315.500122
1528.867432	280.717743
1528.003418	289.349854
1527.139282	286.406952
1526.275024	318.175079
1525.410522	283.416199
1524.545898	306.499359
1523.681152	280.427460
1522.816284	317.955658
1521.951172	303.450775
1521.086060	306.287933
1520.220703	314.902130
1519.355225	300.405243
1518.489502	314.793488
1517.623779	340.726807
1516.757813	282.927673
1515.891724	381.020508
1515.025513	323.234344
1514.159058	346.262726
1513.292480	297.157532
1512.425781	308.644348
1511.558960	325.895264
1510.692017	308.537811
1509.824829	291.186340
1508.957520	328.609009
1508.090088	357.372650
1507.222534	282.390900
1506.354736	299.628387
1505.486938	299.576660
1504.618896	290.884766
1503.750610	322.509583
1502.882324	302.300507
1502.013794	342.548035
1501.145142	319.464417
1500.276367	342.429688
1499.407471	345.247589
1498.538330	330.805115
1497.669067	330.747925
1496.799683	301.935059
1495.930176	322.008392
1495.060547	330.576477
1494.190674	293.156281
1493.320679	356.324463
1492.450562	336.151245
1491.580200	336.093140
1490.709717	310.186188
1489.839233	338.848511
1488.968384	335.918823
1488.097534	338.731323
1487.226440	367.373840
1486.355347	324.266113
1485.483887	315.602692
1484.612427	332.759796
1483.740845	352.779114
1482.869019	326.909424
1481.997070	332.587128
1481.124878	352.596008
1480.252686	329.605896
1479.380249	381.130432
1478.507690	375.334167
1477.635010	389.592468
1476.762207	423.894897
1475.889160	392.321259
1475.015991	403.705994
1474.142700	432.262787
1473.269165	440.774475
1472.395630	392.049652
1471.521851	437.760651
1470.647949	506.341309
1469.773804	509.113800
1468.899658	537.622559
1468.025269	546.107056
1467.150757	608.903992
1466.276001	674.537292
1465.401245	720.143860
1464.526245	737.162415
1463.651123	882.727600
1462.775879	956.836609
1461.900391	1096.601685
1461.024780	1196.345093
1460.149048	1190.428223
1459.273193	1292.974854
1458.397217	1238.529419
1457.520996	1275.407104
1456.644653	1317.977539
1455.768188	1200.805908
1454.891479	1200.597778
1454.014648	1103.446045
1453.137695	1069.045166
1452.260620	986.201355
1451.383423	917.635132
1450.505981	980.160706
1449.628418	840.398987
1448.750732	823.163330
1447.872803	777.455383
1446.994873	745.999878
1446.116699	677.546448
1445.238403	640.426453
1444.359863	597.627686
1443.481201	588.987915
1442.602417	554.747375
1441.723511	563.184204
1440.844482	571.618042
1439.965210	608.482727
1439.085815	633.963074
1438.206299	611.113892
1437.326538	633.742981
1436.446777	627.950134
1435.566772	715.909302
1434.686646	764.072083
1433.806274	732.700256
1432.925781	689.981567
1432.045166	624.566162
1431.164429	590.396362
1430.283569	516.507080
1429.402466	436.968536
1428.521240	451.077454
1427.639893	380.087280
1426.758301	416.888947
1425.876709	382.790680
1424.994873	354.374237
1424.112793	371.319641
1423.230713	345.749023
1422.348389	354.189484
1421.465942	334.296753
1420.583374	342.736237
1419.700562	311.524231
1418.817627	345.448639
1417.934570	339.726440
1417.051392	348.159058
1416.167969	362.248871
1415.284546	359.356293
1414.400757	373.439240
1413.516968	350.745544
1412.633057	347.856415
1411.748901	291.243744
1410.864624	367.525238
1409.980103	356.154785
1409.095459	361.745087
1408.210815	339.077026
1407.325806	341.843170
1406.440796	364.380951
1405.555542	347.372528
1404.670166	386.843506
1403.784668	341.605255
1402.899048	338.723083
1402.013184	335.841919
1401.127197	321.674896
1400.241089	332.903778
1399.354736	346.949463
1398.468262	344.068787
1397.581665	329.910156
1396.694946	327.033447
1395.807983	329.795258
1394.920898	318.464722
1394.033691	349.404846
1393.146362	346.526703
1392.258789	391.535126
1391.371094	346.405975
1390.483276	377.319611
1389.595337	357.546570
1388.707153	351.854584
1387.818848	334.907196
1386.930420	317.965698
1386.041748	351.670654
1385.152954	388.176727
1384.264038	427.482452
1383.375000	371.170044
1382.485718	331.745667
1381.596313	373.851532
1380.706787	413.132294
1379.817139	368.101318
1378.927246	401.750427
1378.037231	449.432587
1377.147095	429.694946
1376.256714	438.043915
1375.366333	466.042358
1374.475586	474.382050
1373.584839	471.492767
1372.693970	471.410522
1371.802856	482.550354
1370.911499	504.906433
1370.020142	502.013794
1369.128540	521.554565
1368.236816	501.838562
1367.344971	524.175598
1366.453003	445.611633
1365.560791	459.544342
1364.668457	493.083435
1363.775879	507.002960
1362.883301	548.923889
1361.990479	574.029358
1361.097534	599.125977
1360.204346	627.013000
1359.311035	666.084961
1358.417603	674.363220
1357.524048	654.661499
1356.630249	682.519226
1355.736450	573.327881
1354.842285	578.820190
1353.948120	503.233948
1353.053711	511.531799
1352.159180	455.547058
1351.264526	466.644562
1350.369751	458.181641
1349.474731	413.408722
1348.579590	466.399933
1347.684204	441.187469
1346.788818	429.942993
1345.893188	452.198608
1344.997314	457.701263
1344.101440	443.669373
1343.205322	435.222137
1342.309082	404.462646
1341.412720	482.481384
1340.516113	507.492798
1339.619385	451.645355
1338.722534	504.527832
1337.825439	546.243958
1336.928223	574.013123
1336.030884	537.694885
1335.133423	579.383240
1334.235718	609.916992
1333.337891	704.483948
1332.439941	824.074158
1331.541870	999.293396
1330.643555	1024.166016
1329.745117	1188.158569
1328.846436	1154.565552
1327.947754	1229.466553
1327.048828	1173.629028
1326.149780	1076.101685
1325.250488	995.289246
1324.351074	845.013855
1323.451538	722.582642
1322.551880	636.317078
1321.651978	636.205627
1320.751953	591.650940
1319.851807	527.671265
1318.951416	460.937317
1318.050903	469.185272
1317.150269	441.345490
1316.249512	460.695068
1315.348511	438.416046
1314.447388	405.047638
1313.546021	416.071899
1312.644653	360.532440
1311.743042	388.197632
1310.841309	368.723114
1309.939331	385.289673
1309.037231	354.736938
1308.135010	360.216522
1307.232666	401.709503
1306.330078	379.479675
1305.427368	398.799194
1304.524536	359.963898
1303.621460	390.353912
1302.718262	359.837646
1301.814941	395.751984
1300.911499	365.245422
1300.007813	340.282623
1299.104004	381.713531
1298.199951	370.584320
1297.295898	378.814514
1296.391602	398.100098
1295.487061	414.614838
1294.582520	378.615082
1293.677734	414.469299
1292.772827	370.194244
1291.867676	375.653564
1290.962402	397.681030
1290.057007	364.476929
1289.151489	339.566589
1288.245728	303.624115
1287.339844	295.291595
1286.433838	306.276733
1285.527588	295.187866
1284.621216	281.344635
1283.714722	286.810791
1282.808105	308.818909
1281.901245	267.412231
1280.994263	237.045486
1280.087036	292.121002
1279.179810	270.026672
1278.272217	250.694992
1277.364624	280.949402
1276.456787	242.345123
1275.548828	253.316269
1274.640747	272.542419
1273.732544	302.771667
1272.824097	283.454559
1271.915405	261.392700
1271.006714	233.836548
1270.097778	258.550232
1269.188721	264.004883
1268.279541	263.958435
1267.370117	233.672104
1266.460571	250.122604
1265.550781	255.574829
1264.640991	291.249115
1263.730957	241.749176
1262.820679	247.199966
1261.910400	271.872131
1260.999878	252.604385
1260.089233	304.719055
1259.178345	247.026016
1258.267334	285.402039
1257.356201	301.814423
1256.444824	263.355316
1255.533447	287.994171
1254.621704	304.397369
1253.709961	257.732574
1252.797974	285.100708
1251.885864	287.791382
1250.973633	279.519531
1250.061157	287.690033
1249.148560	271.202820
1248.235840	251.982483
1247.322876	238.245804
1246.409790	262.845612
1245.496582	257.324310
1244.583130	249.067947
1243.669556	268.179779
1242.755859	262.660431
1241.841919	254.407440
1240.927856	257.097687
1240.013672	248.848572
1239.099365	235.134125
1238.184814	251.494492
1237.270142	221.385468
1236.355225	254.138504
1235.440186	229.503983
1234.525024	259.512299
1233.609741	223.960602
1232.694214	240.305573
1231.778564	245.723724
1230.862671	256.599518
1229.946777	226.531952
1229.030640	245.593735
1228.114258	270.105438
1227.197876	261.874237
1226.281128	275.464905
1225.364380	283.596985
1224.447388	346.254425
1223.530273	359.822998
1222.613037	346.132233
1221.695557	435.995148
1220.777954	487.683472
1219.860229	484.873383
1218.942261	550.152405
1218.024170	506.486572
1217.105957	498.229462
1216.187500	432.811462
1215.268921	435.456635
1214.350220	400.005127
1213.431274	418.978973
1212.512207	326.419464
1211.593018	296.445313
1210.673706	285.516144
1209.754150	293.621887
1208.834351	260.951111
1207.914551	260.904999
1206.994507	263.576202
1206.074219	225.494415
1205.153931	268.915680
1204.233398	277.015686
1203.312744	206.367355
1202.391846	230.764801
1201.470825	263.296814
1200.549683	246.966751
1199.628296	249.636536
1198.706787	208.897980
1197.785156	219.710968
1196.863281	235.944138
1195.941284	235.902405
1195.019165	219.594437
1194.096802	214.134476
1193.174438	233.067184
1192.251709	205.929916
1191.328979	249.239487
1190.406006	222.108932
1189.482788	227.485962
1188.559570	251.814896
1187.636108	254.477554
1186.712402	221.951767
1185.788696	232.737488
1184.864746	216.461670
1183.940552	219.128662
1183.016357	229.909119
1182.091919	219.051086
1181.167236	251.458572
1180.242554	221.676910
1179.317505	254.072433
1178.392456	235.110504
1177.467163	286.405762
1176.541748	264.743317
1175.616211	264.696442
1174.690430	340.263733
1173.764526	297.003021
1172.838501	326.645447
1171.912231	385.967133
1170.985840	426.377625
1170.059204	450.585114
1169.132446	544.922546
1168.205566	547.523132
1167.278564	574.392883
1166.351318	544.632874
1165.423828	571.493591
1164.496338	522.877869
1163.568604	509.311310
1162.640747	487.666687
1161.712646	474.111176
1160.784424	439.013733
1159.856079	449.707336
1158.927490	511.552338
1157.998779	506.077789
1157.069946	516.753723
1156.140869	589.317688
1155.211670	608.046448
1154.282349	677.878418
1153.352783	788.028320
1152.423096	887.382996
1151.493164	940.996765
1150.563232	970.398743
1149.632935	889.598328
1148.702637	889.440430
1147.772095	706.590088
1146.841431	666.171997
1145.910522	566.682800
1144.979492	507.507294
1144.048340	467.145996
1143.116943	381.166412
1142.185425	343.525604
1141.253784	327.364716
1140.321899	319.258057
1139.389893	252.142242
1138.457764	262.825012
1137.525391	227.919983
1136.592896	276.136322
1135.660278	233.199921
1134.727417	257.278351
1133.794434	243.835098
1132.861206	217.001465
1131.927856	216.962906
1130.994385	219.602432
1130.060669	211.530594
1129.126831	214.170120
1128.192871	219.485352
1127.258667	216.770172
1126.324341	248.840027
1125.389893	208.667435
1124.455200	235.377808
1123.520386	189.873322
1122.585327	200.534744
1121.650146	200.499084
1120.714844	208.481964
1119.779297	184.393555
1118.843628	208.407806
1117.907837	189.670807
1116.971802	184.295166
1116.035645	184.262390
1115.099365	202.919556
1114.162842	213.561523
1113.226196	218.861618
1112.289307	216.154099
1111.352417	200.107056
1110.415161	237.418121
1109.477905	216.038696
1108.540405	194.666885
1107.602661	223.960373
1106.664917	183.934692
1105.726807	210.554398
1104.788696	271.806641
1103.850342	245.115280
1102.911865	237.080154
1101.973145	263.671417
1101.034302	268.950195
1100.095337	250.265503
1099.156128	204.968201
1098.216797	223.561844
1097.277344	252.792740
1096.337646	194.216660
1095.397827	188.862000
1094.457764	178.190125
1093.517700	191.453766
1092.577271	199.395462
1091.636841	199.359924
1090.696167	209.955017
1089.755249	196.631668
1088.814209	156.745956
1087.873047	193.905334
1086.931763	191.214996
1085.990234	169.938568
1085.048584	177.872726
1084.106689	161.914932
1083.164673	199.040237
1082.222412	164.510574
1081.280151	167.134155
1080.337524	156.494553
1079.394897	185.638367
1078.452026	174.999237
1077.509033	174.968018
1076.565796	177.587341
1075.622437	177.555649
1074.678955	177.523972
1073.735229	182.790558
1072.791382	190.703934
1071.847290	182.725311
1070.903076	206.522171
1069.958740	211.779800
1069.014160	193.214569
1068.069458	156.131836
1067.124512	169.333099
1066.179565	169.302856
1065.234253	193.076584
1064.288940	158.664749
1063.343384	195.651566
1062.397583	200.903549
1061.451660	203.510651
1060.505615	208.759338
1059.559448	214.006149
1058.613037	187.552109
1057.666382	182.236389
1056.719727	216.532074
1055.772827	203.292557
1054.825684	187.418076
1053.878418	216.415985
1052.931030	232.209793
1051.983398	221.615173
1051.035645	250.591400
1050.087769	269.007935
1049.139648	250.501801
1048.191406	232.002274
1047.242920	329.489746
1046.294312	281.992798
1045.345581	316.197021
1044.396606	366.196045
1043.447510	392.470856
1042.498291	418.736267
1041.548828	352.834076
1040.599121	392.260254
1039.649414	365.868561
1038.699341	397.383209
1037.749268	426.255371
1036.798950	415.656128
1035.848511	499.750183
1034.897827	470.733002
1033.947021	397.027710
1032.996094	410.100891
1032.044922	336.432800
1031.093506	323.233002
1030.142090	286.390961
1029.190430	283.712708
1028.238525	254.770401
1027.286499	262.602875
1026.334351	238.925797
1025.381958	236.257919
1024.429443	215.218643
1023.476807	228.300827
1022.523926	223.012573
1021.570923	212.479782
1020.617737	204.573502
1019.664368	204.536835
1018.710815	201.878387
1017.757080	201.842194
1016.803223	212.289444
1015.849121	212.251389
1014.894897	233.172684
1013.940491	222.653091
1012.985962	209.518280
1012.031189	193.769653
1011.076294	219.915298
1010.121216	214.640717
1009.165955	232.921936
1008.210510	240.730042
1007.254944	230.222214
1006.299133	272.031982
1005.343201	271.983185
1004.387085	274.549164
1003.430786	311.099884
1002.474365	331.954590
1001.517700	392.001984
1000.560913	478.156586
999.603943	587.791931
998.646790	650.372986
997.689514	613.695618
996.731995	610.974487
995.774353	545.601440
994.816528	480.251892
993.858521	414.925751
992.900330	388.759979
991.942017	349.560272
990.983459	297.333679
990.024780	302.495728
989.065918	255.510834
988.106873	216.363159
987.147705	231.962189
986.188293	211.073730
985.228760	216.246567
984.269043	218.812622
983.309143	237.004410
982.349060	182.278320
981.388794	244.729752
980.428406	255.097931
979.467834	239.436646
978.507019	307.048309
977.546082	351.220947
976.585022	371.967133
975.623718	436.917786
974.662292	509.645782
973.700623	590.146851
972.738831	574.444946
971.776855	597.731079
970.814758	563.844849
969.852417	462.425507
968.889954	415.588593
967.927246	324.620178
966.964417	350.526733
966.001404	272.582825
965.038208	277.724915
964.074890	243.938721
963.111328	215.353943
962.147644	269.792511
961.183777	248.994415
960.219727	220.424118
959.255493	199.642380
958.291077	217.752472
957.326538	194.386841
956.361755	215.082703
955.396851	209.862198
954.431763	196.872284
953.466492	181.297073
952.501038	199.390854
951.535461	186.409821
950.569641	191.553360
949.603699	235.516418
948.637573	232.886368
947.671265	191.449844
946.704773	217.282288
945.738098	245.691635
944.771240	266.333435
943.804260	268.870758
942.837097	273.991943
941.869751	310.123657
940.902222	330.738922
939.934509	351.346741
938.966614	346.117462
937.998535	358.967560
937.030334	307.262146
936.061951	289.135742
935.093323	227.137115
934.124573	242.579971
933.155640	219.314667
932.186584	216.695404
931.217285	226.973282
930.247864	211.459671
929.278198	183.060089
928.308411	170.137833
927.338440	188.148804
926.368286	185.537933
925.397949	198.386688
924.427429	185.470963
923.456787	231.796844
922.485901	195.704224
921.514893	203.392670
920.543701	185.337067
919.572327	213.613876
918.600769	229.014481
917.629028	208.391281
916.657104	167.197357
915.685059	172.310776
914.712769	192.850357
913.740356	200.528137
912.767761	213.343964
911.794983	167.046417
910.822021	197.849991
909.848877	215.797363
908.875549	215.758362
907.902039	210.583191
906.928406	187.436523
905.954590	202.805603
904.980530	223.302521
904.006348	241.225769
903.031982	251.445236
902.057434	292.444641
901.082703	307.780792
900.107849	323.111389
899.132751	315.361237
898.157532	287.106262
897.182068	317.810150
896.206482	299.815033
895.230713	281.826385
894.254761	253.597870
893.278625	243.307465
892.302307	220.217438
891.325806	217.617386
890.349182	197.100067
889.372314	194.505127
888.395325	194.469925
887.418091	186.759674
886.440735	212.304749
885.463196	219.938599
884.485474	209.670929
883.507568	191.737473
882.529480	219.819168
881.551270	184.001328
880.572815	217.184448
879.594238	217.145126
878.615417	201.780685
877.636475	199.190414
876.657349	211.920639
875.677979	199.118256
874.698486	211.843857
873.718811	219.461105
872.739014	250.038269
871.758972	232.136322
870.778748	260.149597
869.798401	249.902359
868.817810	188.667572
867.837097	198.829788
866.856140	219.182846
865.875061	229.335815
864.893799	226.746521
863.912354	224.158157
862.930725	224.117508
861.948914	226.623199
860.966919	254.586624
859.984741	244.358841
859.002441	246.859467
858.019897	254.448135
857.037231	284.930206
856.054321	267.073608
855.071289	297.542328
854.088074	282.232513
853.104614	284.723480
852.121033	317.714081
851.137268	330.362671
850.153320	332.843506
849.169189	378.509003
848.184937	398.759247
847.200439	462.172028
846.215759	540.795410
845.230896	594.005432
844.245911	769.021240
843.260681	1022.637878
842.275330	1347.201172
841.289795	1509.301636
840.304016	1582.576660
839.318115	1376.895874
838.332031	1052.132568
837.345764	821.274780
836.359314	663.996582
835.372681	590.393494
834.385864	524.417358
833.398865	493.926605
832.411743	460.914368
831.424377	435.510254
830.436829	407.583740
829.449158	415.102997
828.461243	402.374268
827.473206	404.831299
826.484924	394.638763
825.496521	371.803528
824.507935	343.918945
823.519104	356.498169
822.530151	376.656525
821.541016	333.621582
820.551697	361.357635
819.562195	348.659332
818.572510	351.121948
817.582642	373.788452
816.592590	383.821014
815.602356	421.621338
814.611938	466.980560
813.621399	593.083557
812.630615	658.581421
811.639648	824.969116
810.648560	1099.758545
809.657227	1336.619141
808.665771	1394.369385
807.674072	1399.157593
806.682251	1242.629028
805.690186	980.313721
804.697998	748.329407
803.705566	622.234680
802.713013	503.742004
801.720276	387.810669
800.727356	410.400177
799.734253	390.186737
798.740906	349.845642
797.747437	342.232635
796.753784	352.234131
795.759949	321.983948
794.765930	304.319977
793.771729	286.662415
792.777344	263.983063
791.782776	268.962280
790.788025	276.452850
789.793091	258.813202
788.798035	233.643112
787.802734	253.695175
786.807251	283.785431
785.811584	258.624481
784.815796	210.878601
783.819763	225.900146
782.823547	210.801682
781.827148	223.308655
780.830627	233.302429
779.833862	225.735352
778.836975	178.047623
777.839844	218.131210
776.842529	188.009827
775.845093	213.038925
774.847412	205.482391
773.849609	200.434036
772.851563	202.902420
771.853394	260.469116
770.854980	197.820236
769.856445	190.273331
768.857666	212.766830
767.858765	235.252121
766.859680	230.204712
765.860352	227.660889
764.860901	240.125870
763.861206	217.574326
762.861389	217.534576
761.861389	229.994537
760.861145	222.454056
759.860779	154.939682
758.860168	184.894211
757.859436	207.343460
756.858521	182.328979
755.857361	237.234085
754.856079	202.236298
753.854614	199.703033
752.852905	214.641525
751.851074	202.125397
750.848999	232.027481
749.846802	244.457367
748.844421	241.918655
747.841797	229.406662
746.839050	214.406128
745.836121	219.352188
744.832947	204.358978
743.829651	204.321594
742.826111	226.705643
741.822449	219.191727
740.818604	191.757660
739.814514	236.540848
738.810303	214.092529
737.805847	224.009308
736.801270	211.525620
735.796448	191.582260
734.791504	223.886322
733.786316	243.742691
732.781006	253.644928
731.775452	213.818329
730.769775	246.094635
729.763855	243.564224
728.757751	241.034729
727.751526	233.537262
726.745056	221.074570
725.738403	228.484650
724.731628	220.993576
723.724609	228.400955
722.717407	210.983948
721.710083	223.353836
720.702515	218.350403
719.694763	225.752792
718.686829	225.711411
717.678711	215.750473
716.670410	210.752060
715.661987	233.024261
714.653320	218.110382
713.644470	210.636169
712.635437	180.866135
711.626221	230.376236
710.616821	225.380569
709.607178	210.481705
708.597412	230.249512
707.587463	225.256577
706.577332	222.740372
705.567017	220.225067
704.556458	247.398499
703.545776	242.406052
702.534912	190.426941
701.523804	212.645615
700.512573	202.717911
699.501099	259.530151
698.489502	214.999802
697.477661	244.610046
696.465698	197.628403
695.453491	209.941620
694.441101	212.372528
693.428589	217.271515
692.415833	204.888916
691.402893	234.468338
690.389771	254.166351
689.376465	226.980682
688.362976	192.404785
687.349304	226.897293
686.335449	229.321426
685.321411	246.536880
684.307190	199.658188
683.292725	251.375214
682.278137	241.472977
681.263367	258.673492
680.248352	216.753189
679.233215	251.190460
678.217834	243.757690
677.202332	253.559860
676.186584	194.442200
675.170654	223.936539
674.154541	243.578476
673.138306	228.774063
672.121826	241.029404
671.105164	221.312836
670.088318	250.775070
669.071289	238.438309
668.054016	218.733047
667.036621	258.008362
666.019043	250.590576
665.001282	228.437607
663.983276	228.395569
662.965149	220.987289
661.946777	235.676407
660.928223	260.178131
659.909546	235.589645
658.890625	225.731857
657.871521	250.221848
656.852234	247.723068
655.832764	269.747742
654.813110	230.469254
653.793274	252.488953
652.773254	262.246033
651.752991	245.044617
650.732605	230.299515
649.711975	237.605713
648.691223	242.460129
647.670227	262.004578
646.649048	247.267166
645.627747	237.430649
644.606201	244.728760
643.584473	259.364685
642.562561	251.977722
641.540466	264.160950
640.518127	261.666779
639.495667	256.728455
638.473022	266.459473
637.450134	261.522064
636.427063	246.811768
635.403870	251.652710
634.380432	239.392410
633.356812	254.002228
632.333008	261.281006
631.309021	278.322815
630.284851	261.184631
629.260498	266.017487
628.235901	290.369171
627.211182	268.358978
626.186218	265.870270
625.161133	282.892303
624.135803	268.210419
623.110291	280.350037
622.084595	233.988144
621.058716	299.741974
620.032654	280.194824
619.006409	287.451172
617.979919	299.575989
616.953308	309.261169
615.926453	304.334686
614.899414	292.107361
613.872253	313.957397
612.844849	350.399353
611.817261	377.096283
610.789490	345.405029
609.761475	286.973694
608.733337	313.667511
607.705017	320.902802
606.676453	313.551605
605.647705	284.331451
604.618774	279.419434
603.589722	303.660645
602.560425	313.319855
601.530884	325.403870
600.501221	291.352570
599.471375	344.703461
598.441284	344.639709
597.411011	271.778259
596.380615	320.250854
595.349976	259.549255
594.319153	264.351746
593.288147	290.975616
592.256897	269.102661
591.225525	281.172363
590.193970	278.696899
589.162170	310.144348
588.130188	283.438873
587.098022	307.607483
586.065674	285.755615
585.033142	254.227005
584.000427	275.966797
582.967468	271.075073
581.934387	275.864624
580.901062	254.038803
579.867554	283.019409
578.833862	302.315155
577.799988	326.439911
576.765930	287.697449
575.731628	299.730042
574.697205	294.841064
573.662537	253.709641
572.627747	294.731842
571.592712	323.661865
570.557434	277.718048
569.522034	258.350647
568.486450	333.138153
567.450623	267.909302
566.414673	320.948944
565.378479	262.984589
564.342102	255.699066
563.305542	284.593353
562.268799	320.711029
561.231812	313.418823
560.194702	303.718842
559.157349	301.252472
558.119812	310.834900
557.082092	327.641144
556.044189	339.623749
555.006042	356.418396
553.967773	334.682190
552.929260	310.546722
551.890625	303.268433
550.851746	389.844208
549.812683	329.621887
548.773376	368.049530
547.733948	348.740387
546.694275	319.819733
545.654419	353.419373
544.614441	367.776337
543.574158	319.641663
542.533752	319.582306
541.493164	350.754547
540.452332	312.257690
539.411316	386.647308
538.370178	388.976593
537.328735	364.897919
536.287170	393.632507
535.245422	417.556915
534.203430	427.076569
533.161255	458.182404
532.118896	424.519470
531.076355	431.634491
530.033630	474.709686
528.990723	524.960083
527.947571	536.845703
526.904236	493.614532
525.860718	467.169617
524.817017	467.082764
523.773132	457.416534
522.729004	452.542664
521.684692	442.882660
520.640198	466.735474
519.595520	382.891205
518.550659	401.960999
517.505615	418.631470
516.460327	380.285858
515.414856	401.736725
514.369202	411.225342
513.323364	370.512024
512.277283	372.833038
511.231079	372.763672
510.184631	355.970825
509.138000	343.961456
508.091187	360.614685
507.044159	336.670227
505.996948	360.480438
504.949554	319.836975
503.901947	357.959808
502.854126	338.805511
501.806152	343.513458
500.757965	369.685181
499.709564	376.770203
