#Wave		#Intensity
3200.600830	42.098522
3200.007080	29.468966
3199.413086	50.510593
3198.819092	37.877220
3198.224854	54.703270
3197.630615	58.902306
3197.036377	58.893402
3196.442139	67.296570
3195.847656	29.437799
3195.252930	25.228584
3194.658447	33.633026
3194.063721	50.441914
3193.468750	63.042858
3192.873779	50.426659
3192.278809	84.031723
3191.683838	42.009510
3191.088623	46.203472
3190.493164	58.795525
3189.897949	25.194271
3189.302490	29.388870
3188.706787	62.966625
3188.111328	37.774258
3187.515381	46.161556
3186.919678	54.546310
3186.323730	41.952354
3185.727783	71.308212
3185.131592	75.491386
3184.535400	62.899971
3183.939209	33.541576
3183.342773	71.265060
3182.746338	67.062851
3182.149902	37.717144
3181.553223	62.852394
3180.956543	58.653355
3180.359619	62.833366
3179.762695	37.694313
3179.165771	37.688606
3178.568604	41.869892
3177.971436	46.049908
3177.374268	79.528709
3176.776855	71.146492
3176.179443	46.028996
3175.581787	41.838207
3174.984131	75.297363
3174.386475	71.103409
3173.788574	37.637283
3173.190674	54.356728
3172.592773	66.890457
3171.994629	66.880325
3171.396484	66.870193
3170.798340	12.536263
3170.199951	62.671818
3169.601563	62.662323
3169.002930	71.006538
3168.404297	70.995781
3167.805664	75.160614
3167.206787	58.449402
3166.607910	50.091896
3166.008789	75.126457
3165.409912	66.768951
3164.810547	45.896698
3164.211426	50.061539
3163.612061	41.711624
3163.012695	83.410606
3162.413086	70.888268
3161.813477	54.200459
3161.213623	37.517708
3160.614014	50.016026
3160.013916	50.008442
3159.414063	75.001289
3158.813965	45.827175
3158.213867	54.151176
3157.613525	54.142963
3157.013184	58.298965
3156.412598	41.635803
3155.812256	62.444237
3155.211426	62.434765
3154.610840	74.910355
3154.010010	83.221100
3153.409180	33.283394
3152.808105	54.077309
3152.207031	58.228268
3151.605957	49.902370
3151.004639	54.052700
3150.403320	66.516312
3149.801758	33.253109
3149.200195	45.716087
3148.598633	33.243019
3147.996826	70.630692
3147.395020	62.311741
3146.793213	58.148800
3146.191162	62.292831
3145.589111	74.740051
3144.986816	70.577110
3144.384766	45.660610
3143.782227	62.255016
3143.179932	78.844383
3142.577393	82.981491
3141.974609	62.226669
3141.371826	74.660667
3140.769043	70.502144
3140.166260	41.465553
3139.563232	70.480736
3138.960205	70.470032
3138.356934	70.459335
3137.753662	99.456894
3137.150391	70.437935
3136.546875	57.998898
3135.943359	74.558685
3135.339600	53.839760
3134.735840	91.099602
3134.132080	82.805237
3133.528076	70.373756
3132.924072	99.336098
3132.320068	78.629128
3131.715820	70.341690
3131.111572	66.193886
3130.507080	74.456802
3129.902588	70.309624
3129.298096	66.163712
3128.693604	78.557465
3128.088867	86.813477
3127.483887	66.133545
3126.878906	78.521652
3126.273926	107.434349
3125.668945	57.840469
3125.063721	82.616684
3124.458252	57.822884
3123.853027	90.850716
3123.247559	70.192154
3122.641846	61.924835
3122.036133	66.043114
3121.430420	53.651871
3120.824707	74.275909
3120.218750	61.887180
3119.612549	86.628876
3119.006592	78.366585
3118.400391	70.106804
3117.793945	74.219444
3117.187500	82.453506
3116.581055	98.929153
3115.974609	65.942734
3115.367920	74.174294
3114.760986	82.403343
3114.154297	70.032181
3113.547363	65.902611
3112.940186	78.247444
3112.333008	86.470856
3111.725830	57.638466
3111.118408	82.328133
3110.510986	61.736702
3109.903564	98.763687
3109.295898	74.061493
3108.688232	69.936317
3108.080566	53.472572
3107.472656	49.351784
3106.864746	78.128426
3106.256592	82.227928
3105.648438	82.215408
3105.040039	78.092751
3104.431885	78.080856
3103.823486	90.395645
3103.214844	98.598419
3102.606201	82.152832
3101.997559	98.568382
3101.388672	49.276688
3100.779785	94.432594
3100.170898	65.682236
3099.561768	65.672234
3098.952637	77.973892
3098.343262	73.858749
3097.733887	65.642220
3097.124512	65.632217
3096.514893	94.331940
3095.905273	114.821388
3095.295410	65.602226
3094.685791	69.691742
3094.075684	102.472237
3093.465820	98.358353
3092.855713	73.757523
3092.245361	102.425392
3091.635254	90.120605
3091.024658	86.011101
3090.414307	98.283417
3089.803711	61.417774
3089.193115	73.690094
3088.582275	110.518288
3087.971436	69.574974
3087.360596	98.208519
3086.749512	85.919350
3086.138428	85.906250
3085.527100	102.253754
3084.915771	77.700996
3084.304443	73.600250
3083.692871	53.147625
3083.081299	89.928421
3082.469482	53.131416
3081.857910	89.900986
3081.245850	85.801491
3080.634033	89.873558
3080.021973	73.521698
3079.409668	98.013969
3078.797607	73.499260
3078.185059	102.066734
3077.572754	93.887062
3076.960205	81.628464
3076.347656	106.100815
3075.734863	97.924263
3075.122070	77.511543
3074.509033	97.894379
3073.895996	114.192673
3073.282959	93.786804
3072.669922	81.541298
3072.056641	77.452408
3071.443115	81.516403
3070.829834	105.955147
3070.216064	89.640663
3069.602539	85.553024
3068.988770	85.539963
3068.375000	81.454185
3067.760986	81.441750
3067.146973	93.643707
3066.532715	73.275185
3065.918701	89.544884
3065.304199	89.531204
3064.689941	118.000381
3064.075439	77.298790
3063.460693	101.693390
3062.846191	101.677856
3062.231445	97.595833
3061.616455	69.119820
3061.001465	117.892265
3060.386475	73.163330
3059.771240	93.472191
3059.156006	101.584679
3058.540771	101.569153
3057.925293	117.802216
3057.309814	93.415062
3056.694092	69.035362
3056.078369	105.567360
3055.462646	101.491554
3054.846680	89.298920
3054.230713	113.635796
3053.614502	68.982613
3052.998291	113.601051
3052.382080	68.961517
3051.765625	68.950974
3051.149170	125.714905
3050.532715	72.984589
3049.916016	93.243828
3049.299316	113.496864
3048.682373	101.320984
3048.065430	85.096611
3047.448486	121.547997
3046.831299	133.682343
3046.214111	93.158287
3045.596680	105.293259
3044.979248	76.933304
3044.361816	125.503555
3043.744141	113.340706
3043.126465	101.181572
3042.508545	93.072807
3041.890869	153.748932
3041.272705	117.316757
3040.654785	105.164444
3040.036621	121.325012
3039.418213	101.088707
3038.799805	125.330811
3038.181396	109.142380
3037.562988	80.833832
3036.944336	121.232193
3036.325439	96.970901
3035.706543	113.115402
3035.087646	96.941216
3034.468750	92.887772
3033.849609	133.253357
3033.230469	104.971413
3032.611084	125.139061
3031.991699	133.192139
3031.372070	112.994209
3030.752441	96.837349
3030.132813	112.959602
3029.513184	116.975952
3028.893066	120.991066
3028.273193	100.810448
3027.653076	145.144806
3027.032959	92.717194
3026.412598	104.794685
3025.792480	84.628891
3025.171875	124.909225
3024.551270	112.803947
3023.930664	124.870941
3023.310059	120.824333
3022.689209	100.671509
3022.068115	124.813545
3021.447266	120.768784
3020.826172	112.700256
3020.204834	96.585411
3019.583496	92.546829
3018.962158	128.741074
3018.340576	128.721329
3017.718994	132.723526
3017.097412	112.596634
3016.475586	128.662140
3015.853760	112.562103
3015.231689	116.564301
3014.609619	104.489899
3013.987549	140.637909
3013.365234	124.545906
3012.742920	112.475822
3012.120361	100.409439
3011.497803	128.504364
3010.875244	108.408928
3010.252441	120.435883
3009.629639	128.445236
3009.006836	132.438828
3008.383789	116.367775
3007.760498	116.349922
3007.137451	140.400772
3006.514160	104.281715
3005.890625	96.245270
3005.267090	132.316940
3004.643555	124.278656
3004.019775	124.259575
3003.395996	116.224991
3002.772217	124.221436
3002.148193	124.202370
3001.524170	96.141907
3000.899902	132.174835
3000.275635	104.121758
2999.651367	132.134247
2999.026855	148.127777
2998.402344	152.107864
2997.777588	96.053375
2997.152832	152.061157
2996.528076	108.026863
2995.903076	108.010269
2995.278076	123.992744
2994.653076	107.977097
2994.027832	147.945877
2993.402344	147.923157
2992.777100	135.908508
2992.151367	115.904152
2991.525879	139.862823
2990.900146	151.827744
2990.274414	103.866180
2989.648438	139.798370
2989.022461	99.840637
2988.396240	131.769394
2987.770264	131.749130
2987.143799	123.745316
2986.517578	143.682159
2985.891113	127.697838
2985.264404	147.627930
2984.637695	127.658585
2984.010986	151.571274
2983.384033	135.595551
2982.757080	143.549683
2982.130127	131.566986
2981.502930	123.574219
2980.875732	127.540871
2980.248291	143.461411
2979.620850	143.439362
2978.993408	159.352554
2978.365723	139.412033
2977.738037	151.338364
2977.110107	171.224960
2976.482178	147.310455
2975.854248	163.210800
2975.226074	159.205551
2974.597900	139.283417
2973.969482	131.304169
2973.341309	147.197174
2972.712646	151.152222
2972.083984	143.174805
2971.455322	123.270439
2970.826660	202.768555
2970.197754	159.009689
2969.568604	111.289650
2968.939697	147.038681
2968.310547	123.175613
2967.681152	150.966217
2967.051758	127.109879
2966.422363	142.976608
2965.792725	166.780350
2965.163086	158.813980
2964.533203	150.850052
2963.903564	162.734207
2963.273438	150.803604
2962.643311	170.619904
2962.013184	150.757156
2961.383057	162.633987
2960.752686	150.710724
2960.122314	138.791138
2959.491699	162.558868
2958.861084	178.390778
2958.230225	154.581528
2957.599609	134.742630
2956.968506	142.646683
2956.337646	170.357285
2955.706299	174.292221
2955.075195	186.147095
2954.443848	154.438690
2953.812500	158.374252
2953.180908	150.432343
2952.549316	142.492889
2951.917725	166.216095
2951.285889	138.492065
2950.653809	170.121170
2950.021973	170.094940
2949.389893	142.383118
2948.757568	166.088028
2948.125244	134.431488
2947.492920	150.223785
2946.860352	166.011215
2946.227783	193.649902
2945.595215	158.057175
2944.962402	142.229523
2944.329590	161.958649
2943.696533	161.933670
2943.063477	161.908691
2942.430420	177.677246
2941.797119	130.276550
2941.163574	146.045120
2940.530273	173.648483
2939.896729	157.837906
2939.262939	197.266953
2938.629150	130.176102
2937.995361	201.150208
2937.361328	138.022964
2936.727295	169.544907
2936.093262	181.345627
2935.458984	173.434265
2934.824707	185.230743
2934.190186	197.023575
2933.555664	149.714798
2932.921143	153.630951
2932.286377	192.993713
2931.651367	141.769409
2931.016602	122.060364
2930.381592	173.220230
2929.746338	153.512405
2929.111084	149.553101
2928.475830	153.465012
2927.840332	180.982056
2927.204834	204.556824
2926.569336	184.859344
2925.933594	180.898224
2925.297607	196.598129
2924.661865	137.597443
2924.025879	165.091431
2923.389648	196.507050
2922.753418	172.899490
2922.117188	153.228149
2921.480713	172.846085
2920.844238	172.819366
2920.207764	192.428207
2919.571045	184.545471
2918.934082	184.516953
2918.297363	196.264297
2917.660156	192.309296
2917.023193	192.279572
2916.385986	172.632523
2915.748779	180.451569
2915.111328	207.879440
2914.473877	196.082367
2913.836182	129.394363
2913.198486	180.340012
2912.560791	195.991455
2911.922852	192.041916
2911.284912	203.768082
2910.646729	211.572601
2910.008545	195.870255
2909.370361	176.255981
2908.731934	199.725876
2908.093506	195.779404
2907.455078	172.259232
2906.816406	176.146957
2906.177490	156.550858
2905.538574	152.613480
2904.899658	179.977798
2904.260498	176.037994
2903.621338	183.833466
2902.982178	199.447998
2902.342773	172.046158
2901.703369	218.933960
2901.063721	203.264359
2900.424072	175.874634
2899.784424	207.109177
2899.144531	171.913086
2898.504639	199.232056
2897.864502	214.824844
2897.224365	167.927979
2896.583984	171.806671
2895.943848	195.204636
2895.303223	140.525574
2894.662842	206.852859
2894.021973	226.332230
2893.381348	191.182098
2892.740479	159.943924
2892.099609	198.923828
2891.458496	202.792892
2890.817383	171.567413
2890.176025	187.135468
2889.534668	206.596741
2888.893311	214.359634
2888.251709	175.357986
2887.610107	190.915787
2886.968262	210.364395
2886.326416	210.331802
2885.684570	218.088089
2885.042480	221.948120
2884.400391	167.408600
2883.758057	225.771957
2883.115723	210.168915
2882.473389	217.919174
2881.830811	182.868103
2881.188232	221.741837
2880.545410	225.597076
2879.902588	198.339096
2879.259766	206.085144
2878.616699	171.063034
2877.973633	221.570038
2877.330322	155.463638
2876.687012	194.299423
2876.043457	170.956970
2875.399902	198.123947
2874.756348	221.398315
2874.112549	213.596832
2873.468750	229.095612
2872.824707	213.530579
2872.180664	213.497467
2871.536621	194.058502
2870.892334	221.192383
2870.248047	182.358414
2869.603760	213.365036
2868.958984	217.210693
2868.314453	193.908035
2867.669678	213.265747
2867.024902	209.355698
2866.379883	217.075928
2865.734863	244.172516
2865.089844	209.258255
2864.444580	247.971283
2863.799316	259.554657
2863.153809	209.160843
2862.508301	209.128372
2861.862549	216.840210
2861.216797	251.650452
2860.571045	236.127609
2859.925049	216.739243
2859.279053	208.966095
2858.632813	220.541077
2857.986572	201.164139
2857.340332	220.472595
2856.693848	228.173050
2856.047363	197.203690
2855.400635	247.432877
2854.753906	216.470139
2854.107178	231.896271
2853.460205	255.046280
2852.813232	243.415451
2852.166016	231.788223
2851.518799	216.302063
2850.871338	196.958786
2850.223877	243.264221
2849.576416	227.783478
2848.928711	274.069733
2848.281006	231.572235
2847.633301	223.818375
2846.985352	223.783585
2846.337158	262.326202
2845.688965	235.285446
2845.040771	231.392334
2844.392578	212.076675
2843.743896	246.741776
2843.095459	231.284454
2842.446777	231.248489
2841.798096	258.187347
2841.149170	235.029541
2840.500244	281.221130
2839.851074	265.770416
2839.202148	296.538269
2838.552734	234.883392
2837.903320	219.447067
2837.253906	242.509033
2836.604492	250.168823
2835.954834	230.889145
2835.304932	234.700790
2834.655029	269.286865
2834.005127	246.166840
2833.354980	265.357330
2832.704834	249.935410
2832.054688	249.896530
2831.404297	226.793854
2830.753906	226.758575
2830.103271	257.465424
2829.452637	268.951874
2828.801758	242.019012
2828.150879	307.277893
2827.500000	268.826294
2826.848877	230.386688
2826.197754	241.868362
2825.546387	245.669296
2824.895020	268.658966
2824.243408	226.405869
2823.591797	264.738525
2822.940186	291.550659
2822.288330	253.149292
2821.636475	249.274887
2820.984619	287.580078
2820.332520	256.864868
2819.680176	279.824097
2819.028076	249.119629
2818.375488	245.248810
2817.723145	272.030518
2817.070557	302.634705
2816.417725	275.776001
2815.764893	287.221924
2815.112061	264.203003
2814.458984	248.848099
2813.805908	267.948517
2813.152832	252.597794
2812.499512	267.864990
2811.845947	283.127441
2811.192383	298.385132
2810.538818	260.090088
2809.885010	263.873810
2809.231201	279.127319
2808.577393	267.614594
2807.923340	294.330170
2807.269287	252.243683
2806.614990	263.668182
2805.960693	286.551178
2805.306152	263.585968
2804.651611	240.627930
2803.997070	271.141571
2803.342285	267.280975
2802.687500	297.780945
2802.032471	278.648956
2801.377441	255.706406
2800.722412	293.825714
2800.067139	286.149231
2799.411621	305.178223
2798.756348	259.361023
2798.100586	278.388245
2797.445068	297.409546
2796.789307	270.676697
2796.133301	263.010956
2795.477539	293.459198
2794.821289	270.550018
2794.165283	300.987549
2793.509033	236.181198
2792.852539	297.084808
2792.196045	312.271179
2791.539551	270.338959
2790.882813	335.015686
2790.226074	319.737762
2789.569092	304.464630
2788.912109	327.248383
2788.255127	304.369568
2787.597900	304.322052
2786.940430	308.077942
2786.283203	266.198639
2785.625488	281.366028
2784.968018	266.115509
2784.310303	292.681335
2783.652588	277.433777
2782.994629	292.589905
2782.336426	281.146362
2781.678467	338.082672
2781.020264	341.827972
2780.361816	330.382080
2779.703369	292.361420
2779.044922	254.352676
2778.386230	288.474365
2777.727539	273.248810
2777.068604	314.945923
2776.409668	307.308838
2775.750732	269.327362
2775.091553	288.249023
2774.432373	299.580444
2773.772949	284.367340
2773.113525	299.486786
2772.453857	310.811096
2771.794189	295.603363
2771.134521	352.395081
2770.474609	310.665344
2769.814697	272.736694
2769.154541	356.017212
2768.494385	325.666931
2767.833984	287.753693
2767.173584	329.350739
2766.513184	302.803894
2765.852539	298.972046
2765.191895	317.844604
2764.531006	351.844360
2763.870117	310.179810
2763.209229	279.874573
2762.548096	328.990265
2761.886719	306.253357
2761.225586	317.546387
2760.563965	343.954742
2759.902588	317.447021
2759.240967	332.511505
2758.579102	302.235870
2757.917236	305.965912
2757.255371	305.918030
2756.593262	317.198669
2755.931152	302.046692
2755.269043	332.199341
2754.606689	317.049744
2753.944092	301.904846
2753.281494	358.455872
2752.618896	324.446106
2751.956055	320.623260
2751.293213	313.030151
2750.630371	316.751984
2749.967285	339.323975
2749.303955	294.034729
2748.640625	331.679535
2747.977295	354.238556
2747.313721	308.968201
2746.650146	297.617859
2745.986572	282.504333
2745.322754	327.653687
2744.658691	323.836823
2743.994873	357.670654
2743.330566	338.792816
2742.666504	346.267273
2742.002197	308.581146
2741.337646	312.295380
2740.673096	334.818481
2740.008545	300.913269
2739.343750	345.996002
2738.678955	387.304382
2738.013916	357.166473
2737.348877	338.315216
2736.683594	330.745239
2736.018311	334.451263
2735.353027	349.427979
2734.687500	315.562866
2734.021973	356.830627
2733.356201	341.752594
2732.690430	349.208862
2732.024658	322.873688
2731.358643	349.099335
2730.692383	371.563568
2730.026367	348.989838
2729.359863	330.175140
2728.693604	322.620544
2728.027100	363.828857
2727.360352	393.773590
2726.693604	322.468719
2726.026855	352.410492
2725.359863	326.115967
2724.692871	386.030731
2724.025635	337.255493
2723.358398	389.656281
2722.691162	359.626282
2722.023682	370.806396
2721.355957	337.043793
2720.688477	333.246552
2720.020508	400.581848
2719.352783	393.032623
2718.684814	344.317383
2718.016602	355.489288
2717.348389	347.950653
2716.680176	362.859283
2716.011719	325.400024
2715.343262	366.484985
2714.674561	325.297821
2714.005859	336.462128
2713.337158	366.312347
2712.668213	336.356445
2711.999023	332.566895
2711.329834	388.556458
2710.660645	317.520294
2709.991455	347.349976
2709.321777	373.435913
2708.652344	358.442169
2707.982666	358.385834
2707.312988	362.062103
2706.643066	350.809174
2705.972900	436.576843
2705.302979	373.083954
2704.632813	339.453033
2703.962402	384.155701
2703.291992	387.824402
2702.621582	410.134399
2701.950928	354.151276
2701.280273	357.822937
2700.609375	368.946899
2699.938477	331.627380
2699.267334	376.282013
2698.596191	368.772888
2697.925049	376.163666
2697.253662	398.447357
2696.582031	383.491791
2695.910645	323.869324
2695.239014	394.537323
2694.567139	405.639648
2693.895264	375.808807
2693.223145	398.071472
2692.551270	375.690582
2691.878906	397.946228
2691.206543	423.913361
2690.534180	394.103058
2689.861816	397.758392
2689.189209	375.395111
2688.516357	390.200806
2687.843506	375.276947
2687.170654	408.653137
2686.497559	382.587708
2685.824463	375.099792
2685.151123	375.040741
2684.477783	389.832458
2683.804199	341.513702
2683.130615	371.152100
2682.457031	404.492096
2681.783203	371.035248
2681.109375	389.525665
2680.435303	396.882690
2679.761230	381.985779
2679.086914	411.589752
2678.412598	407.817474
2677.738281	392.925873
2677.063721	370.626373
2676.389160	426.153198
2675.714355	366.804535
2675.039551	411.200897
2674.364502	377.800751
2673.689453	362.927826
2673.014404	366.573425
2672.339111	388.728729
2671.663574	403.473846
2670.988037	362.699127
2670.312500	421.848816
2669.636719	414.382660
2668.960938	377.324707
2668.285156	395.758636
2667.609131	395.696259
2666.932861	425.213959
2666.256592	432.540802
2665.580322	399.205475
2664.903809	402.838287
2664.227295	384.298859
2663.550781	454.435638
2662.874023	410.035797
2662.197021	450.598907
2661.520020	406.213623
2660.843018	402.457275
2660.165771	443.002350
2659.488525	439.241364
2658.811035	394.885834
2658.133545	394.823517
2657.455811	439.033539
2656.778076	394.698944
2656.100342	379.883911
2655.422363	431.450531
2654.744385	398.199188
2654.066162	412.882141
2653.387939	427.560425
2652.709473	361.157837
2652.031006	431.110199
2651.352539	442.094513
2650.673828	453.075348
2649.994873	449.320862
2649.316162	441.885162
2648.636963	386.588470
2647.958008	404.933533
2647.278809	437.995270
2646.599365	456.326385
2645.919922	441.536438
2645.240479	400.998932
2644.560791	404.613922
2643.880859	386.161377
2643.201172	408.163269
2642.520996	404.422211
2641.841064	422.738281
2641.160889	415.320679
2640.480469	407.905426
2639.800049	444.583405
2639.119629	451.860504
2638.438965	488.519928
2637.758301	403.975189
2637.077393	414.927124
2636.396484	422.204224
2635.715332	436.820557
2635.034180	469.783142
2634.353027	433.012878
2633.671631	480.641724
2632.989990	473.228851
2632.308350	429.139709
2631.626709	418.070038
2630.944824	443.670837
2630.262939	476.595795
2629.581055	428.868378
2628.898926	450.790344
2628.216553	421.404022
2627.534180	479.958221
2626.851807	450.576538
2626.169189	454.167908
2625.486572	395.503021
2624.803711	446.701263
2624.120850	472.256958
2623.437988	490.483887
2622.754883	420.871094
2622.071533	453.737030
2621.388184	464.640991
2620.704834	468.225494
2620.021240	420.604767
2619.337646	409.567657
2618.653809	464.346985
2617.969971	475.240570
2617.286133	460.544891
2616.602051	420.272064
2615.917725	431.167419
2615.233398	420.139038
2614.549072	405.461304
2613.864502	474.789398
2613.179932	456.455994
2612.495117	460.034790
2611.810303	459.961975
2611.125488	492.738342
2610.440430	448.868286
2609.755127	477.987274
2609.069824	488.856110
2608.384521	499.721497
2607.698975	481.407227
2607.013428	412.048492
2606.327637	473.962982
2605.641846	459.306732
2604.956055	441.010406
2604.270020	448.228821
2603.583740	455.444916
2602.897461	451.729767
2602.211182	506.294250
2601.524658	502.572205
2600.838135	458.797546
2600.151367	447.802826
2599.464600	476.852600
2598.777832	538.648865
2598.090820	447.589905
2597.403564	418.412048
2596.716309	509.290436
2596.029053	451.014313
2595.341553	490.945770
2594.654053	461.779480
2593.966309	541.686890
2593.278564	516.156616
2592.590820	501.537445
2591.902832	523.260437
2591.214600	468.679810
2590.526367	490.401062
2589.838135	457.635071
2589.149658	464.825378
2588.461182	464.751648
2587.772461	471.938507
2587.083740	482.752777
2586.394775	475.417908
2585.705811	511.628174
2585.016846	497.035004
2584.327637	486.073883
2583.638184	507.757813
2582.948975	464.162018
2582.259277	485.842499
2581.569824	438.638885
2580.879883	507.435516
2580.190186	460.243439
2579.500244	496.404266
2578.810059	470.965759
2578.119873	499.868896
2577.429688	488.924561
2576.739258	503.331268
2576.048584	477.907776
2575.358154	485.071747
2574.667236	506.710907
2573.976563	477.680115
2573.285645	448.658539
2572.594482	542.645874
2571.903320	535.325562
2571.212158	502.692139
2570.520752	556.851013
2569.829102	538.685852
2569.137451	495.223053
2568.445801	498.758575
2567.753906	495.065704
2567.062012	531.117493
2566.370117	502.133301
2565.677979	455.098877
2564.985596	534.475647
2564.293213	541.612183
2563.600830	451.271729
2562.908203	519.782410
2562.215332	519.699768
2561.522705	487.141083
2560.829590	497.887268
2560.136719	512.237366
2559.443604	544.616516
2558.750244	508.468323
2558.056885	508.387451
2557.363525	490.281555
2556.669922	486.599152
2555.976074	490.125610
2555.282227	482.841095
2554.588379	479.161560
2553.894287	457.472473
2553.200195	500.618561
2552.505859	511.341919
2551.811523	525.662292
2551.117188	511.179230
2550.422607	503.899323
2549.727783	503.819153
2549.032959	546.916626
2548.338135	568.414978
2547.643066	481.996735
2546.947998	528.673462
2546.252686	553.760193
2545.557373	506.933533
2544.861816	445.742920
2544.166260	510.366272
2543.470703	513.878601
2542.774902	517.389771
2542.078857	535.269409
2541.382813	585.469971
2540.686768	592.559265
2539.990479	570.920715
2539.294189	513.387817
2538.597656	570.738892
2537.901123	516.813293
2537.204346	509.554169
2536.507568	566.878418
2535.810791	512.979126
2535.113770	523.657471
2534.416504	537.918518
2533.719238	566.517273
2533.021973	491.142395
2532.324463	498.232941
2531.626953	512.488892
2530.929199	526.740295
2530.231445	576.814087
2529.533447	519.408203
2528.835449	504.999176
2528.137451	537.147522
2527.439209	479.775299
2526.740723	483.278687
2526.042236	554.787048
2525.343750	536.805115
2524.645020	515.250732
2523.946289	558.099304
2523.247314	540.125366
2522.548340	540.039246
2521.849121	547.104797
2521.149902	529.141174
2520.450684	557.654419
2519.751221	543.268921
2519.051514	546.755859
2518.351807	564.533630
2517.652100	568.015991
2516.952148	525.063049
2516.252197	553.549622
2515.552002	557.031982
2514.851807	553.372986
2514.151367	563.993408
2513.450928	567.472412
2512.750244	524.560608
2512.049561	574.427063
2511.348877	556.498840
2510.647949	527.876221
2509.946777	527.791931
2509.245605	584.757141
2508.544434	584.663818
2507.843018	531.103638
2507.141602	573.785461
2506.439941	563.003906
2505.738281	552.225769
2505.036377	555.699768
2504.334473	584.103882
2503.632568	523.472961
2502.930420	566.114990
2502.228027	566.024597
2501.525635	569.493469
2500.823242	483.992157
2500.120605	558.636963
2499.417969	551.432495
2498.715088	554.901428
2498.012207	593.934204
2497.309082	558.280029
2496.605957	597.299744
2495.902588	550.992065
2495.199219	597.108887
2494.495605	575.691528
2493.791992	582.705688
2493.088379	564.849976
2492.384521	522.136292
2491.680664	589.529053
2490.976563	529.070984
2490.272461	582.240051
2489.568115	596.345703
2488.863770	560.759277
2488.159180	546.475403
2487.454590	606.703613
2486.749756	652.722839
2486.044922	546.213318
2485.339844	656.060364
2484.634766	531.855774
2483.929688	584.947754
2483.224365	599.032471
2482.519043	609.568665
2481.813477	648.448975
2481.107666	510.173279
2480.402100	563.226196
2479.696045	520.635254
2478.990234	605.539978
2478.284180	616.064880
2477.577881	591.186035
2476.871582	584.012512
2476.165039	562.685608
2475.458496	612.132263
2474.751953	597.883179
2474.045166	601.324707
2473.338379	622.448242
2472.631348	604.668274
2471.924072	643.461975
2471.217041	523.171021
2470.509521	646.790344
2469.802246	618.416321
2469.094482	607.717529
2468.386963	558.162781
2467.679199	653.440308
2466.971191	593.299438
2466.263184	579.080444
2465.554932	607.231018
2464.846680	568.305420
2464.138428	645.858582
2463.429932	610.467957
2462.721436	603.313843
2462.012695	620.855103
2461.303955	557.269226
2460.594971	624.182556
2459.885986	602.927185
2459.176758	535.849365
2458.467529	567.486328
2457.758057	609.685730
2457.048584	563.780823
2456.338867	616.536377
2455.629150	662.230103
2454.919434	563.509705
2454.209473	637.368164
2453.499512	630.224365
2452.789307	616.042297
2452.078857	637.061584
2451.368408	619.363892
2450.657959	650.931458
2449.947266	668.416992
2449.236572	636.653015
2448.525879	629.517151
2447.814697	654.030212
2447.103760	675.019653
2446.392578	664.365906
2445.681152	664.259277
2444.969727	657.124634
2444.258301	635.938354
2443.546631	663.939575
2442.834717	590.073792
2442.122803	586.467346
2441.410889	642.552673
2440.698730	603.832397
2439.986572	565.124451
2439.274170	614.167114
2438.561768	635.122314
2437.849121	606.953125
2437.136475	592.824341
2436.423584	627.801880
2435.710693	620.687683
2434.997803	638.118713
2434.284424	578.421326
2433.571289	578.328430
2432.857910	616.784607
2432.144287	637.708923
2431.430908	676.143127
2430.717041	626.995789
2430.003174	633.899475
2429.289307	640.800903
2428.575195	640.697937
2427.861084	686.101746
2427.146729	622.992310
2426.432373	741.871643
2425.717773	643.785095
2425.003174	643.681641
2424.288330	640.080505
2423.573486	685.440491
2422.858643	660.854248
2422.143555	590.827576
2421.428223	615.200867
2420.712891	611.607056
2419.997559	656.935059
2419.281982	618.397949
2418.566162	642.750977
2417.850586	688.052124
2417.134521	642.544312
2416.418457	642.440979
2415.702393	677.247314
2414.986084	617.801514
2414.269775	652.600586
2413.553223	642.027771
2412.836670	617.503479
2412.120117	659.262024
2411.403076	655.668396
2410.686279	683.459167
2409.969238	665.916809
2409.251953	648.380127
2408.534668	613.422241
2407.817383	658.625854
2407.099854	634.130249
2406.382080	693.250549
2405.664307	707.071411
2404.946533	661.684509
2404.228516	675.505920
2403.510498	668.434326
2402.792236	699.654541
2402.073975	703.022217
2401.355469	688.990051
2400.636963	640.170471
2399.918213	650.503235
2399.199463	671.266907
2398.480469	674.636292
2397.761475	615.419556
2397.042480	650.084351
2396.323242	618.697144
2395.603760	667.251221
2394.884277	639.346130
2394.164795	646.191406
2393.445068	663.455261
2392.725098	663.348328
2392.005127	618.099365
2391.285156	666.606506
2390.564941	697.741211
2389.844727	635.154541
2389.124268	690.575867
2388.403809	652.298218
2387.683105	666.069519
2386.962402	669.430725
2386.241455	721.342712
2385.520508	655.345154
2384.799316	672.573914
2384.078125	682.864380
2383.356689	703.548828
2382.635254	686.109436
2381.913818	744.897644
2381.192139	678.959961
2380.470215	668.459900
2379.748291	685.666931
2379.026367	664.781921
2378.304199	733.911621
2377.581787	692.257751
2376.859375	688.685364
2376.136963	743.937012
2375.414307	695.382385
2374.691650	639.925293
2373.968750	667.490051
2373.245850	677.756165
2372.522705	708.763184
2371.799316	691.364685
2371.076172	667.059265
2370.352783	663.495911
2369.629150	701.395447
2368.905518	725.464355
2368.181641	638.996399
2367.457764	666.521057
2366.733643	669.866394
2366.009521	721.543640
2365.285400	717.975342
2364.561035	662.639465
2363.836426	710.842102
2363.111816	662.425476
2362.387207	676.116760
2361.662354	669.109558
2360.937256	710.382996
2360.212158	661.997559
2359.487061	723.942871
2358.761719	765.187439
2358.036377	672.015503
2357.310791	720.146423
2356.584961	699.359314
2355.859375	713.024597
2355.133301	688.801270
2354.407471	674.916199
2353.681152	753.993652
2352.955078	712.563782
2352.228516	695.239685
2351.502197	705.450989
2350.775635	760.387634
2350.048828	739.624023
2349.322021	698.229797
2348.594971	725.628906
2347.867920	763.334412
2347.140869	742.583679
2346.413330	766.524902
2345.686035	728.596436
2344.958496	783.458130
2344.230713	724.925110
2343.502930	690.456787
2342.775146	728.125183
2342.047119	683.365417
2341.319092	714.155884
2340.590820	720.906067
2339.862305	765.409729
2339.133789	730.968140
2338.405273	713.693787
2337.676514	758.176941
2336.947754	761.484375
2336.218750	764.790649
2335.489746	737.234863
2334.760498	726.830200
2334.031250	771.275146
2333.301758	712.885620
2332.572266	771.025452
2331.842529	764.048157
2331.112793	719.390747
2330.382813	770.651001
2329.652832	726.006958
2328.922607	715.617371
2328.192383	708.654541
2327.462158	722.231384
2326.731689	735.803772
2326.000977	773.324280
2325.270264	721.880493
2324.539307	749.129028
2323.808350	769.528442
2323.077393	724.949341
2322.346191	731.669922
2321.614746	810.176025
2320.883301	707.507446
2320.151855	714.227478
2319.420166	731.195801
2318.688232	717.412292
2317.956299	748.037292
2317.224365	730.840332
2316.492188	737.551025
2315.760010	740.845520
2315.027588	764.619751
2314.295166	747.431152
2313.562500	696.124390
2312.829590	699.423340
2312.096924	709.543701
2311.363770	781.053711
2310.630615	784.337158
2309.897461	753.523499
2309.164063	760.219421
2308.430664	753.279114
2307.697021	722.485352
2306.963379	790.516113
2306.229492	800.608398
2305.495605	732.352661
2304.761719	745.856812
2304.027344	800.218811
2303.293213	725.187012
2302.558838	755.706055
2301.824219	758.986938
2301.089600	752.057800
2300.354736	768.947876
2299.619873	751.813721
2298.885010	734.685120
2298.149658	768.573486
2297.414551	731.046387
2296.679199	815.919250
2295.943604	734.208130
2295.208008	812.255798
2294.472412	778.143799
2293.736572	727.055603
2293.000488	747.318970
2292.264404	743.801270
2291.528320	757.263672
2290.791992	814.859924
2290.055420	811.332886
2289.318848	770.471313
2288.582275	800.888489
2287.845459	807.544495
2287.108398	753.133423
2286.371582	800.498230
2285.634277	813.933716
2284.896973	796.847229
2284.159668	806.888611
2283.422119	850.824097
2282.684570	782.902039
2281.946777	782.774841
2281.208740	799.588013
2280.470703	748.645020
2279.732666	812.875977
2278.994385	799.198120
2278.256104	782.138794
2277.517578	805.708923
2276.779053	758.190979
2276.040283	768.220398
2275.301514	829.001709
2274.562500	893.146362
2273.823486	808.436584
2273.084229	750.810608
2272.344971	723.636658
2271.605469	787.756592
2270.865967	780.867676
2270.126221	801.019592
2269.386475	841.440674
2268.646484	804.137695
2267.906494	800.628662
2267.166260	803.876038
2266.426025	844.270203
2265.685547	769.849121
2264.945068	796.731689
2264.204346	776.349365
2263.463623	830.221130
2262.722656	853.706360
2261.981689	806.334351
2261.240723	823.069275
2260.499268	795.953796
2259.758057	748.614258
2259.016602	849.640015
2258.274902	771.967773
2257.533203	822.399414
2256.791260	818.895508
2256.049316	832.239746
2255.307129	747.883118
2254.564941	862.283264
2253.822754	831.833130
2253.080322	804.760010
2252.337646	818.095520
2251.594971	824.694397
2250.852051	858.215576
2250.109131	824.425659
2249.366211	901.673767
2248.623047	861.159973
2247.879639	830.749390
2247.136230	837.339661
2246.392578	817.029602
2245.648926	796.726135
2244.905273	823.485596
2244.161377	843.515015
2243.417236	887.058411
2242.673096	782.768616
2241.928955	869.974304
2241.184570	809.380798
2240.439941	876.406372
2239.695313	772.186157
2238.950439	822.411987
2238.205566	825.634094
2237.460693	808.721008
2236.715576	832.075073
2235.970215	848.712280
2235.224854	841.865784
2234.479492	945.686890
2233.733887	858.355835
2232.988037	895.092224
2232.242188	864.779480
2231.496338	861.287048
2230.750244	774.026611
2230.003906	827.503784
2229.257568	857.515747
2228.511230	894.216125
2227.764648	830.447205
2227.017822	883.880127
2226.270996	840.218567
2225.523926	893.632385
2224.776855	823.212280
2224.029785	796.311096
2223.282471	832.979309
2222.534912	883.014587
2221.787354	839.395691
2221.039795	802.478333
2220.291992	852.494019
2219.543945	822.271667
2218.795898	822.137329
2218.047852	855.417786
2217.299561	865.300842
2216.551025	885.201782
2215.802490	885.057129
2215.053955	938.341187
2214.305176	811.315491
2213.556152	904.652527
2212.807129	907.842346
2212.058105	864.311523
2211.308838	890.862793
2210.559326	874.037109
2209.809814	917.255371
2209.060303	913.770508
2208.310547	916.955505
2207.560547	893.468689
2206.810547	886.656067
2206.060303	879.845581
2205.310059	906.359314
2204.559814	862.899536
2203.809326	869.420654
2203.058594	869.278442
2202.307861	855.816162
2201.557129	892.300476
2200.806152	908.799194
2200.054932	892.008545
2199.303711	888.534790
2198.552246	878.407471
2197.800781	888.244019
2197.049316	904.729736
2196.297607	814.788696
2195.545654	861.207092
2194.793701	874.364441
2194.041504	874.221313
2193.289307	874.078247
2192.537109	890.549927
2191.784668	840.568054
2191.031982	966.661133
2190.279297	913.361816
2189.526367	889.966858
2188.773438	836.697510
2188.020508	899.634521
2187.267090	826.466064
2186.513916	922.570068
2185.760498	892.556519
2185.006836	905.680359
2184.253174	908.848938
2183.499268	849.004456
2182.745361	868.760681
2181.991211	885.195007
2181.237061	924.827515
2180.482666	894.847778
2179.728271	931.151917
2178.973877	884.615051
2178.218994	881.157471
2177.464355	947.254639
2176.709229	841.130188
2175.954346	840.992371
2175.198975	926.926208
2174.443848	893.675171
2173.688232	903.456787
2172.932861	939.705750
2172.177002	883.310913
2171.421387	889.781555
2170.665283	902.864441
2169.909424	849.809937
2169.153076	952.160034
2168.396729	905.725891
2167.640381	908.882385
2166.883789	964.909546
2166.127197	918.496094
2165.370361	921.648804
2164.613525	901.680481
2163.856445	941.160339
2163.099365	964.118347
2162.342041	874.826843
2161.584473	947.298523
2160.826904	980.144592
2160.069336	844.699768
2159.311523	900.645264
2158.553711	996.154724
2157.795654	979.501282
2157.037354	900.201843
2156.279053	850.600586
2155.520752	972.426270
2154.762207	962.379150
2154.003662	955.630615
2153.244873	873.105286
2152.485840	892.727051
2151.726807	945.278931
2150.967773	958.296143
2150.208252	925.213074
2149.448975	931.645142
2148.689453	997.321960
2147.929688	914.884338
2147.169922	832.473816
2146.410156	947.482483
2145.650146	996.666748
2144.889893	963.615112
2144.129639	943.727295
2143.369141	927.133667
2142.608643	956.565857
2141.847900	946.548767
2141.087158	949.679260
2140.326416	969.236450
2139.565186	942.797058
2138.804199	945.926575
2138.042725	945.771057
2137.281494	948.898987
2136.519775	883.085999
2135.758301	961.716187
2134.996338	922.176819
2134.234619	987.649780
2133.472412	941.557678
2132.710449	961.083740
2131.947998	931.409180
2131.185547	1026.348999
2130.423096	960.609558
2129.660400	944.061584
2128.897705	894.744507
2128.134766	956.858643
2127.371826	946.872131
2126.608643	959.819641
2125.845215	943.285217
2125.081787	972.602844
2124.318359	929.877930
2123.554688	959.187988
2122.790771	903.386719
2122.026855	975.235291
2121.262939	958.714417
2120.498779	1050.159302
2119.734375	955.127808
2118.969971	964.781921
2118.205322	925.384155
2117.440674	1000.427307
2116.676025	1049.295044
2115.911133	951.073425
2115.145996	1019.539673
2114.380859	937.691284
2113.615479	1064.937378
2112.850098	996.172974
2112.084473	976.415222
2111.318848	956.664001
2110.552979	976.093567
2109.787109	953.084839
2109.020996	1018.196777
2108.254883	965.822388
2107.488525	1011.336487
2106.722168	1034.002686
2105.955566	955.561096
2105.188965	896.709839
2104.422119	1013.930176
2103.655029	1033.321167
2102.887939	984.263550
2102.120850	984.101318
2101.353516	1006.745605
2100.585938	1019.609741
2099.818359	967.329590
2099.050781	1022.530029
2098.282959	999.569885
2097.514893	1022.192749
2096.746826	999.240234
2095.978760	976.295166
2095.210449	1037.955933
2094.441895	975.973145
2093.673340	1021.350037
2092.904541	969.146790
2092.135742	1001.503235
2091.366699	985.082520
2090.597656	981.669373
2089.828369	994.507507
2089.059082	984.594910
2088.289551	1052.660400
2087.520020	1078.473999
2086.750244	1065.304443
2085.980469	1003.429077
2085.210449	1038.978271
2084.440186	1032.314209
2083.670166	1054.864014
2082.899658	944.353027
2082.129150	966.909729
2081.358643	1047.853271
2080.587891	1012.000732
2079.816895	1008.590515
2079.045898	1037.606689
2078.274902	1030.951294
2077.503662	1021.056641
2076.732178	1011.165222
2075.960693	1079.046143
2075.188965	1030.270264
2074.417236	1046.296509
2073.645264	1059.078735
2072.873291	1007.091980
2072.101074	997.212463
2071.328857	997.047668
2070.556396	1074.562012
2069.783936	1045.259521
2069.011230	1083.913574
2068.238525	1061.089233
2067.465576	1093.258667
2066.692627	1109.247803
2065.919434	1057.329590
2065.145996	1024.825928
2064.372559	1137.788818
2063.599121	1008.327881
2062.825439	1072.786865
2062.051514	1030.609741
2061.277588	1069.201782
2060.503662	1023.809448
2059.729248	1033.327515
2058.955078	1113.871948
2058.180664	1029.757568
2057.406006	1068.317749
2056.631348	1016.508850
2055.856445	1080.870239
2055.081543	1041.980103
2054.306396	1054.709229
2053.531250	1028.735718
2052.755859	1128.520142
2051.980225	1057.409546
2051.204590	1083.020630
2050.428955	1044.168457
2049.653076	1018.217957
2048.877197	1117.921387
2048.101074	1075.861450
2047.324707	1127.213013
2046.548340	1065.844971
2045.771851	1046.351196
2044.995239	1059.053955
2044.218506	1049.223145
2043.441528	1029.741699
2042.664551	1036.005981
2041.887329	1022.966858
2041.110107	1116.071411
2040.332642	1086.944214
2039.555176	993.521057
2038.777466	1109.087280
2037.999634	1034.976563
2037.221802	983.386230
2036.443726	1086.043945
2035.665527	1063.375732
2034.887207	1088.896118
2034.108765	1098.350342
2033.330200	1037.158936
2032.551514	1081.933838
2031.772705	995.085693
2030.993774	1107.250488
2030.214600	1119.902466
2029.435425	1081.216431
2028.656128	1135.570190
2027.876587	1116.138184
2027.097046	1077.471924
2026.317261	1090.118164
2025.537476	1083.526001
2024.757446	1185.911621
2023.977295	1076.757324
2023.197021	1102.211548
2022.416626	1060.382202
2021.636230	1117.860962
2020.855591	1082.447998
2020.074707	1127.096069
2019.293823	1107.700317
2018.512817	1069.105591
2017.731689	1158.538818
2016.950439	1135.947632
2016.168945	1132.559692
2015.387451	1125.974121
2014.605713	1119.390747
2013.823975	1131.995850
2013.041992	1144.596680
2012.260010	1074.079956
2011.477783	1099.470703
2010.695435	1128.048584
2009.912964	1249.274170
2009.130371	1127.673950
2008.347656	1111.516602
2007.564819	1159.234253
2006.781860	1117.533325
2005.998779	1120.540161
2005.215576	1158.656738
2004.432129	1158.464233
2003.648682	1081.691772
2002.864990	1177.221069
2002.081299	1074.952881
2001.297363	1119.423584
2000.513428	1131.992432
1999.729248	1182.815186
1998.944946	1106.114990
1998.160522	1182.421997
1997.375977	1153.546143
1996.591309	1064.144653
1995.806519	1156.348145
1995.021606	1140.230957
1994.236572	1159.148193
1993.451416	1133.483887
1992.666016	1095.094482
1991.880615	1177.667358
1991.094971	1152.012695
1990.309326	1145.457397
1989.523438	1040.284058
1988.737549	1116.449463
1987.951416	1173.508057
1987.165161	1119.257813
1986.378784	1173.117676
1985.592285	1172.922485
1984.805664	1109.164917
1984.018921	1137.578613
1983.232056	1150.097656
1982.444946	1210.260376
1981.657837	1102.074707
1980.870605	1184.453735
1980.083130	1089.008057
1979.295654	1161.838501
1978.507935	1177.514648
1977.720093	1177.318604
1976.932129	1189.813965
1976.144165	1180.098877
1975.355957	1198.933105
1974.567627	1122.623413
1973.779053	1125.607178
1972.990479	1144.440918
1972.201782	1185.455933
1971.412964	1163.074463
1970.623901	1121.688843
1969.834839	1156.350952
1969.045532	1137.152954
1968.256226	1225.640259
1967.466675	1181.105103
1966.677002	1206.236084
1965.887207	1133.229736
1965.097290	1180.514771
1964.307251	1180.317993
1963.517090	1138.991089
1962.726807	1145.127930
1961.936401	1224.007202
1961.145874	1176.369019
1960.355103	1204.628662
1959.564331	1191.782959
1958.773315	1229.512573
1957.982178	1112.381226
1957.191040	1210.144775
1956.399658	1121.487549
1955.608154	1174.996704
1954.816528	1159.010376
1954.024780	1209.337646
1953.232910	1183.879883
1952.440918	1177.369385
1951.648682	1240.292236
1950.856445	1151.733154
1950.063965	1246.188232
1949.271484	1186.046997
1948.478760	1160.618286
1947.685913	1201.417847
1946.893066	1207.523071
1946.099976	1207.321533
1945.306763	1226.030518
1944.513428	1203.767334
1943.719971	1244.525391
1942.926270	1215.966064
1942.132568	1237.810669
1941.338745	1199.814575
1940.544678	1202.762817
1939.750610	1243.486816
1938.956299	1155.148071
1938.161865	1230.483521
1937.367310	1195.666626
1936.572632	1186.029053
1935.777832	1248.739746
1934.982910	1213.937134
1934.187866	1279.766479
1933.392700	1197.812256
1932.597290	1163.035400
1931.801880	1203.697632
1931.006226	1190.927368
1930.210571	1240.996582
1929.414673	1309.896484
1928.618652	1221.737549
1927.822510	1208.972656
1927.026245	1262.144897
1926.229858	1249.377319
1925.433350	1161.287231
1924.636719	1280.340576
1923.839844	1311.502197
1923.042969	1289.323608
1922.245850	1311.063599
1921.448730	1166.588745
1920.651367	1238.509399
1919.853882	1222.627563
1919.056274	1238.095215
1918.258545	1269.227051
1917.460693	1218.880859
1916.662720	1246.872559
1915.864624	1231.002441
1915.066284	1255.850830
1914.267944	1296.347290
1913.469360	1208.469360
1912.670776	1255.220581
1911.871948	1208.064941
1911.072998	1217.250366
1910.273926	1220.175293
1909.474731	1226.227295
1908.675415	1301.084717
1907.875977	1182.037720
1907.076294	1297.522583
1906.276611	1187.894043
1905.476807	1234.577881
1904.676758	1259.371094
1903.876587	1177.924072
1903.076294	1299.560669
1902.275879	1208.763794
1901.475342	1374.074951
1900.674683	1289.540649
1899.873901	1292.446533
1899.072998	1289.108765
1898.271851	1160.939697
1897.470703	1207.549438
1896.669312	1329.017822
1895.867920	1263.291138
1895.066284	1266.198242
1894.264526	1212.976807
1893.462646	1278.244507
1892.660645	1249.975952
1891.858521	1365.081665
1891.056152	1199.699341
1890.253784	1258.694336
1889.451172	1314.554321
1888.648560	1301.875854
1887.845703	1261.175415
1887.042725	1307.666260
1886.239624	1238.961670
1885.436401	1301.002930
1884.633057	1288.337036
1883.829590	1222.781494
1883.025879	1297.237549
1882.222168	1253.474976
1881.418213	1293.692627
1880.614258	1330.787354
1879.810059	1380.304810
1879.005737	1352.098877
1878.201294	1320.794434
1877.396729	1261.535400
1876.592041	1227.150024
1875.787231	1338.766846
1874.982178	1295.062744
1874.177124	1260.688843
1873.371826	1294.628052
1872.566406	1275.786133
1871.760986	1247.639771
1870.955322	1247.430298
1870.149536	1299.964111
1869.343506	1324.562012
1868.537476	1302.629150
1867.731323	1293.107422
1866.924927	1348.698486
1866.118530	1348.472046
1865.311890	1314.151978
1864.505127	1329.425659
1863.698242	1310.612183
1862.891235	1307.294189
1862.084106	1257.517212
1861.276855	1260.402710
1860.469482	1260.191040
1859.661865	1352.852417
1858.854126	1250.481812
1858.046387	1370.966187
1857.238403	1305.757324
1856.430298	1274.600952
1855.622070	1274.386719
1854.813721	1280.357788
1854.005249	1317.248169
1853.196533	1369.584106
1852.387817	1282.803345
1851.578857	1270.225342
1850.769775	1368.893433
1849.960693	1377.931885
1849.151367	1312.830933
1848.341919	1405.264893
1847.532227	1334.005127
1846.722534	1293.643921
1845.912720	1290.339355
1845.102661	1280.863037
1844.292603	1339.279663
1843.482300	1305.115112
1842.671875	1366.592773
1841.861328	1400.290527
1841.050659	1298.288818
1840.239868	1322.736816
1839.428833	1371.838745
1838.617798	1371.607788
1837.806519	1337.477783
1836.995117	1343.415039
1836.183716	1349.350342
1835.372070	1358.363770
1834.560303	1351.975708
1833.748291	1431.806152
1832.936279	1376.149658
1832.124146	1391.308472
1831.311768	1335.677368
1830.499390	1316.989990
1829.686768	1319.844727
1828.874023	1282.709961
1828.061157	1365.533081
1827.248169	1380.678101
1826.434937	1435.786255
1825.621704	1321.807495
1824.808228	1333.878540
1823.994751	1302.924438
1823.181030	1391.805054
1822.367188	1370.067261
1821.553223	1336.051147
1820.739136	1357.322021
1819.924927	1320.249023
1819.110474	1350.724854
1818.296021	1359.705078
1817.481323	1341.063110
1816.666626	1328.563965
1815.851685	1386.627319
1815.036621	1294.376221
1814.221436	1404.560181
1813.406006	1327.668091
1812.590576	1312.115723
1811.774902	1409.979980
1810.959229	1305.543823
1810.143311	1357.414063
1809.327271	1357.185059
1808.511108	1338.577515
1807.694824	1341.414185
1806.878418	1374.870728
1806.061768	1380.761841
1805.245117	1395.833984
1804.428223	1459.869507
1803.611206	1377.002930
1802.794067	1413.484375
1801.976807	1355.125366
1801.159424	1357.955078
1800.341919	1321.030518
1799.524170	1400.300537
1798.706421	1381.722778
1797.888428	1350.925537
1797.070313	1381.256226
1796.252075	1365.746216
1795.433716	1417.447876
1794.615234	1408.045532
1793.796509	1426.130615
1792.977783	1383.143555
1792.158813	1398.173828
1791.339844	1431.512573
1790.520630	1446.529541
1789.701294	1363.901855
1788.881714	1427.736450
1788.062134	1418.344604
1787.242432	1433.353394
1786.422485	1350.783569
1785.602417	1371.895874
1784.782349	1380.808350
1783.962036	1359.241577
1783.141479	1371.200317
1782.320923	1459.319824
1781.500244	1382.921143
1780.679321	1404.006226
1779.858398	1397.678833
1779.037231	1415.709717
1778.215942	1418.514282
1777.394531	1387.839355
1776.572998	1427.163574
1775.751221	1341.732788
1774.929443	1396.261230
1774.107422	1329.113159
1773.285278	1447.484741
1772.463013	1425.957031
1771.640625	1364.917603
1770.818115	1376.844238
1769.995483	1340.144775
1769.172607	1443.222290
1768.349731	1412.599609
1767.526611	1497.405884
1766.703369	1403.011108
1765.880005	1445.281860
1765.056519	1393.428711
1764.232910	1314.275635
1763.409058	1411.165649
1762.585083	1338.104736
1761.761108	1371.249268
1760.936890	1431.681519
1760.112549	1358.654053
1759.288086	1443.325439
1758.463379	1452.176147
1757.638672	1427.680786
1756.813721	1378.948486
1755.988647	1430.227295
1755.163574	1469.370239
1754.338257	1444.888428
1753.512695	1444.643555
1752.687134	1514.044922
1751.861328	1510.760742
1751.035522	1434.828247
1750.209473	1486.036377
1749.383301	1446.446045
1748.557007	1552.094238
1747.730591	1427.805786
1746.903931	1397.318726
1746.077271	1436.393677
1745.250366	1442.197144
1744.423340	1447.998535
1743.596313	1432.640747
1742.768921	1314.542358
1741.941528	1414.026367
1741.114014	1401.703003
1740.286255	1528.322021
1739.458374	1416.327026
1738.630493	1503.648682
1737.802368	1427.921997
1736.973999	1475.973389
1736.145630	1487.794312
1735.317139	1442.281982
1734.488403	1469.188599
1733.659546	1441.792603
1732.830566	1495.832153
1732.001465	1432.257446
1731.172241	1441.058716
1730.342896	1410.671631
1729.513306	1422.487183
1728.683594	1485.523560
1727.853882	1455.144165
1727.023926	1539.239014
1726.193726	1436.579956
1725.363525	1442.358398
1724.533203	1454.156128
1723.702637	1499.061646
1722.871948	1492.787842
1722.041138	1411.287476
1721.210205	1477.237671
1720.379150	1383.734985
1719.547974	1578.994507
1718.716553	1497.534668
1717.885010	1503.293335
1717.053467	1494.019775
1716.221558	1460.704712
1715.389648	1556.618286
1714.557617	1475.231079
1713.725342	1456.956177
1712.893066	1465.719116
1712.060547	1507.512085
1711.227905	1492.243408
1710.395142	1407.933960
1709.562256	1488.734619
1708.729126	1470.475708
1707.895874	1542.236694
1707.062622	1496.975220
1706.229126	1490.721802
1705.395508	1505.462891
1704.561646	1514.202148
1703.727783	1459.982300
1702.893677	1531.671509
1702.059570	1495.448364
1701.225220	1402.306152
1700.390747	1497.935425
1699.556030	1557.587769
1698.721313	1518.389771
1697.886353	1434.289795
1697.051392	1469.971680
1696.216187	1502.648071
1695.380859	1544.291748
1694.545410	1493.159790
1693.709717	1507.864624
1692.874023	1495.642822
1692.038086	1531.277466
1691.202026	1456.260132
1690.365845	1533.745972
1689.529541	1518.538574
1688.692993	1491.381348
1687.856445	1488.139160
1687.019653	1562.578735
1686.182739	1550.363770
1685.345703	1505.299194
1684.508545	1493.098022
1683.671143	1528.671875
1682.833740	1552.292847
1681.996094	1483.380981
1681.158325	1363.761841
1680.320435	1494.810181
1679.482422	1399.094849
1678.644287	1547.988281
1677.805908	1568.599365
1676.967407	1604.111450
1676.128784	1499.499146
1675.290039	1493.282349
1674.451172	1460.246704
1673.612183	1605.997559
1672.772949	1444.853516
1671.933594	1569.707153
1671.094116	1578.373779
1670.254517	1521.531006
1669.414795	1488.524048
1668.574829	1532.918335
1667.734863	1610.033691
1666.894653	1568.101685
1666.054321	1547.009155
1665.213867	1525.923706
1664.373169	1469.157349
1663.532471	1537.296997
1662.691528	1590.548584
1661.850464	1575.414795
1661.009277	1530.566284
1660.167969	1500.590454
1659.326538	1547.869751
1658.484863	1541.664673
1657.643066	1532.491699
1656.801147	1481.749634
1655.959106	1549.782104
1655.116943	1546.549072
1654.274658	1498.798340
1653.432129	1543.053589
1652.589478	1581.359863
1651.746704	1441.669189
1650.903809	1592.683350
1650.060791	1559.792114
1649.217529	1529.876953
1648.374146	1562.223755
1647.530640	1636.053467
1646.687012	1535.019897
1645.843262	1588.088989
1644.999390	1513.758911
1644.155273	1572.737061
1643.311035	1554.700317
1642.466675	1542.591431
1641.622192	1494.962646
1640.777588	1542.064209
1639.932739	1550.678467
1639.087769	1603.671997
1638.242798	1606.356079
1637.397461	1546.925659
1636.552124	1531.874756
1635.706665	1581.878052
1634.860962	1540.219727
1634.015137	1560.646729
1633.169189	1498.319336
1632.323120	1527.610718
1631.476929	1598.251465
1630.630493	1586.163208
1629.783936	1630.190552
1628.937256	1576.762329
1628.090454	1573.540405
1627.243530	1531.946899
1626.396484	1573.001953
1625.549194	1643.550049
1624.701782	1625.567505
1623.854248	1563.345459
1623.006592	1554.230225
1622.158691	1494.990234
1621.310791	1574.335693
1620.462646	1609.438477
1619.614380	1559.060791
1618.765991	1567.633911
1617.917358	1602.719604
1617.068726	1596.553833
1616.219849	1578.609497
1615.370850	1513.556519
1614.521729	1560.403931
1613.672363	1630.784302
1612.822998	1592.244019
1611.973389	1606.684570
1611.123657	1644.657227
1610.273804	1629.667236
1609.423828	1552.918579
1608.573608	1537.949341
1607.723389	1558.266724
1606.872925	1646.188354
1606.022339	1522.463257
1605.171509	1560.404297
1604.320679	1598.332397
1603.469604	1562.807129
1602.618408	1624.218384
1601.767090	1656.242554
1600.915649	1635.406006
1600.064087	1579.349243
1599.212280	1734.638306
1598.360352	1614.022827
1597.508301	1593.207397
1596.656128	1636.937866
1595.803833	1575.062500
1594.951294	1627.578735
1594.098633	1603.843018
1593.245850	1638.746704
1592.392944	1591.568481
1591.539795	1611.809448
1590.686646	1570.512085
1589.833252	1675.706665
1588.979736	1651.986694
1588.126099	1622.417603
1587.272217	1610.427002
1586.418335	1639.426025
1585.564209	1656.706909
1584.709961	1644.716431
1583.855591	1697.102783
1583.000977	1617.821899
1582.146362	1649.719604
1581.291504	1611.417358
1580.436523	1672.545288
1579.581421	1701.493408
1578.726074	1604.741333
1577.870605	1616.155884
1577.015137	1642.176514
1576.159424	1668.188110
1575.303467	1664.980469
1574.447510	1597.522583
1573.591309	1649.808472
1572.734985	1640.766479
1571.878540	1631.727417
1571.021973	1631.447144
1570.165161	1680.772827
1569.308350	1703.824097
1568.451294	1648.108154
1567.594116	1592.411255
1566.736694	1612.549561
1565.879272	1658.920410
1565.021606	1716.935303
1564.163818	1658.350098
1563.305908	1640.580933
1562.447876	1672.347290
1561.589600	1709.928711
1560.731201	1692.159668
1559.872681	1601.596802
1559.014038	1700.312134
1558.155273	1650.532837
1557.296265	1644.427979
1556.437134	1644.145020
1555.577881	1681.685547
1554.718506	1701.759155
1553.859009	1646.205078
1552.999268	1706.989624
1552.139404	1700.880859
1551.279419	1636.634399
1550.419312	1647.978638
1549.558960	1734.874634
1548.698608	1632.884033
1547.838013	1716.847534
1546.977173	1763.023804
1546.116333	1649.464722
1545.255249	1710.153931
1544.394165	1669.217651
1543.532837	1637.002930
1542.671265	1720.878662
1541.809692	1642.242065
1540.947876	1662.266113
1540.085938	1656.178833
1539.223877	1621.093750
1538.361694	1632.412476
1537.499268	1666.919067
1536.636841	1591.271118
1535.774170	1706.916626
1534.911377	1628.390137
1534.048340	1619.418579
1533.185303	1671.276367
1532.322021	1699.948242
1531.458618	1618.581421
1530.594971	1673.307373
1529.731323	1701.963867
1528.867432	1629.320557
1528.003418	1678.229126
1527.139282	1585.363770
1526.275024	1723.930420
1525.410522	1610.845093
1524.545898	1656.831421
1523.681152	1682.564697
1522.816284	1737.194092
1521.951172	1684.874390
1521.086060	1722.147339
1520.220703	1588.955811
1519.355225	1709.999146
1518.489502	1686.599976
1517.623779	1810.472168
1516.757813	1714.888184
1515.891724	1604.904541
1515.025513	1760.472656
1514.159058	1696.687378
1513.292480	1699.279541
1512.425781	1600.912354
1511.558960	1617.940186
1510.692017	1617.660889
1509.824829	1663.510132
1508.957520	1617.102295
1508.090088	1639.879395
1507.222534	1697.227051
1506.354736	1645.075195
1505.486938	1667.835449
1504.618896	1753.948730
1503.750610	1667.259277
1502.882324	1664.092285
1502.013794	1715.618774
1501.145142	1660.639282
1500.276367	1697.760620
1499.407471	1614.032471
1498.538330	1651.148926
1497.669067	1647.987549
1496.799683	1716.716431
1495.930176	1702.044434
1495.060547	1641.384033
1494.190674	1721.574585
1493.320679	1658.058228
1492.450562	1749.710327
1491.580200	1634.504150
1490.709717	1711.768188
1489.839233	1777.518921
1488.968384	1619.301025
1488.097534	1739.586304
1487.226440	1641.701782
1486.355347	1687.331665
1485.483887	1712.861816
1484.612427	1692.485229
1483.740845	1706.533081
1482.869019	1634.547119
1481.997070	1671.536987
1481.124878	1717.114014
1480.252686	1648.029541
1479.380249	1662.072510
1478.507690	1693.301514
1477.635010	1695.873047
1476.762207	1618.247437
1475.889160	1706.740723
1475.015991	1697.855713
1474.142700	1683.248535
1473.269165	1774.546631
1472.395630	1648.325562
1471.521851	1665.207275
1470.647949	1699.247070
1469.773804	1670.350952
1468.899658	1710.097412
1468.025269	1712.660400
1467.150757	1692.352783
1466.276001	1703.492432
1465.401245	1663.189331
1464.526245	1620.042969
1463.651123	1728.317749
1462.775879	1705.168457
1461.900391	1704.873047
1461.024780	1710.288086
1460.149048	1684.298950
1459.273193	1629.776245
1458.397217	1640.908813
1457.520996	1771.874268
1456.644653	1714.511841
1455.768188	1674.282837
1454.891479	1776.656494
1454.014648	1770.645874
1453.137695	1730.427856
1452.260620	1741.528931
1451.383423	1667.132202
1450.505981	1738.075562
1449.628418	1712.134888
1448.750732	1723.231201
1447.872803	1657.432373
1446.994873	1739.717285
1446.116699	1722.334473
1445.238403	1625.260132
1444.359863	1733.120239
1443.481201	1667.376343
1442.602417	1746.743042
1441.723511	1666.797729
1440.844482	1720.541992
1439.965210	1640.628784
1439.085815	1674.458496
1438.206299	1662.798340
1437.326538	1651.142090
1436.446777	1687.793579
1435.566772	1764.205078
1434.686646	1749.696655
1433.806274	1655.675415
1432.925781	1700.818726
1432.045166	1632.388794
1431.164429	1697.389526
1430.283569	1722.636230
1429.402466	1762.061401
1428.521240	1764.592285
1427.639893	1767.122192
1426.758301	1656.211914
1425.876709	1726.811279
1424.994873	1749.191162
1424.112793	1763.059692
1423.230713	1759.919312
1422.348389	1728.444702
1421.465942	1691.314941
1420.583374	1742.006470
1419.700562	1685.062866
1418.817627	1735.737793
1417.934570	1732.604980
1417.051392	1706.828613
1416.167969	1703.701782
1415.284546	1743.019531
1414.400757	1720.083740
1413.516968	1776.356445
1412.633057	1761.906860
1411.748901	1727.669067
1410.864624	1631.246582
1409.980103	1729.894653
1409.095459	1704.158569
1408.210815	1754.723511
1407.325806	1700.740356
1406.440796	1751.288208
1405.555542	1691.675903
1404.670166	1697.028931
1403.784668	1747.550781
1402.899048	1806.523193
1402.013184	1741.298096
1401.127197	1772.033691
1400.241089	1726.585693
1399.354736	1760.133789
1398.468262	1816.232056
1397.581665	1770.799805
1396.694946	1716.925659
1395.807983	1758.908081
1394.920898	1764.238281
1394.033691	1687.850830
1393.146362	1760.806396
1392.258789	1780.217163
1391.371094	1732.029785
1390.483276	1785.228516
1389.595337	1734.241577
1388.707153	1812.754883
1387.818848	1775.852417
1386.930420	1741.776611
1386.041748	1786.486938
1385.152954	1791.801270
1384.264038	1808.363281
1383.375000	1763.057739
1382.485718	1782.430176
1381.596313	1711.846558
1380.706787	1739.652222
1379.817139	1739.348877
1378.927246	1761.521118
1378.037231	1696.608032
1377.147095	1774.949097
1376.256714	1735.327881
1375.366333	1749.062622
1374.475586	1748.757446
1373.584839	1787.743408
1372.693970	1793.043579
1371.802856	1691.731812
1370.911499	1739.122192
1370.020142	1744.427734
1369.128540	1713.278687
1368.236816	1763.443970
1367.344971	1726.696167
1366.453003	1701.171387
1365.560791	1765.322754
1364.668457	1765.014526
1363.775879	1820.728760
1362.883301	1840.015381
1361.990479	1736.088745
1361.097534	1788.979004
1360.204346	1752.277466
1359.311035	1695.997925
1358.417603	1765.656372
1357.524048	1773.740967
1356.630249	1748.256226
1355.736450	1761.934448
1354.842285	1711.294434
1353.948120	1755.727295
1353.053711	1758.215820
1352.159180	1783.061523
1351.264526	1754.807129
1350.369751	1821.551392
1349.474731	1745.813843
1348.579590	1779.022461
1347.684204	1856.896606
1346.788818	1778.400513
1345.893188	1783.672363
1344.997314	1721.961548
1344.101440	1880.711670
1343.205322	1805.055908
1342.309082	1807.529663
1341.412720	1748.646484
1340.516113	1726.033203
1339.619385	1795.429688
1338.722534	1895.463623
1337.825439	1764.145020
1336.928223	1738.758179
1336.030884	1816.461426
1335.133423	1774.361206
1334.235718	1829.750854
1333.337891	1823.861694
1332.439941	1767.861816
1331.541870	1853.842285
1330.643555	1772.809082
1329.745117	1780.846436
1328.846436	1802.791382
1327.947754	1744.062256
1327.048828	1752.100220
1326.149780	1815.747803
1325.250488	1768.167480
1324.351074	1817.891602
1323.451538	1745.314941
1322.551880	1858.935059
1321.651978	1814.158447
1320.751953	1791.619019
1319.851807	1760.755737
1318.951416	1779.884399
1318.050903	1787.901245
1317.150269	1804.242554
1316.249512	1770.623169
1315.348511	1811.934692
1314.447388	1836.585815
1313.546021	1839.037720
1312.644653	1794.342163
1311.743042	1830.074585
1310.841309	1727.176636
1309.939331	1771.223755
1309.037231	1815.255371
1308.135010	1792.769897
1307.232666	1828.470947
1306.330078	1786.601440
1305.427368	1755.824219
1304.524536	1794.281616
1303.621460	1843.799316
1302.718262	1743.828613
1301.814941	1749.057739
1300.911499	1729.381836
1300.007813	1801.008057
1299.104004	1797.926025
1298.199951	1794.844971
1297.295898	1750.288940
1296.391602	1763.804688
1295.487061	1774.551514
1294.582520	1683.040771
1293.677734	1809.849243
1292.772827	1837.158081
1291.867676	1792.640991
1290.962402	1742.616089
1290.057007	1742.310181
1289.151489	1708.875732
1288.245728	1725.136963
1287.339844	1727.593750
1286.433838	1749.364380
1285.527588	1724.228271
1284.621216	1757.024780
1283.714722	1817.387573
1282.808105	1761.922119
1281.901245	1745.071655
1280.994263	1769.572144
1280.087036	1763.749512
1279.179810	1749.662720
1278.272217	1746.600342
1277.364624	1749.047729
1276.456787	1677.138428
1275.548828	1734.665771
1274.640747	1756.384521
1273.732544	1698.273804
1272.824097	1775.030884
1271.915405	1791.227783
1271.006714	1716.635376
1270.097778	1738.337769
1269.188721	1718.781738
1268.279541	1734.976807
1267.370117	1668.693726
1266.460571	1709.629150
1265.550781	1764.290771
1264.640991	1788.709106
1263.730957	1747.187256
1262.820679	1837.519775
1261.910400	1677.917847
1260.999878	1639.182861
1260.089233	1743.212524
1259.178345	1696.245361
1258.267334	1786.507080
1257.356201	1813.630249
1256.444824	1838.000610
1255.533447	1777.335449
1254.621704	1785.249512
1253.709961	1765.742310
1252.797974	1773.655396
1251.885864	1762.379639
1250.973633	1783.992432
1250.061157	1843.956177
1249.148560	1723.096802
1248.235840	1739.226929
1247.322876	1804.643555
1246.409790	1700.282593
1245.496582	1793.057739
1244.583130	1716.105591
1243.669556	1797.899048
1242.755859	1822.206665
1241.841919	1739.818604
1240.927856	1810.624146
1240.013672	1823.978027
1239.099365	1768.974121
1238.184814	1774.129639
1237.270142	1746.485352
1236.355225	1759.840820
1235.440186	1786.852417
1234.525024	1707.317871
1233.609741	1745.253906
1232.694214	1769.522949
1231.778564	1668.191040
1230.862671	1766.169067
1229.946777	1727.647339
1229.030640	1721.884888
1228.114258	1773.419556
1227.197876	1704.910278
1226.281128	1764.611816
1225.364380	1731.577637
1224.447388	1774.894775
1223.530273	1706.433228
1222.613037	1790.621094
1221.695557	1703.105957
1220.777954	1708.254395
1219.860229	1721.572876
1218.942261	1713.098389
1218.024170	1791.764282
1217.105957	1772.390015
1216.187500	1742.134155
1215.268921	1706.445679
1214.350220	1757.845703
1213.431274	1667.754028
1212.512207	1825.228882
1211.593018	1726.997925
1210.673706	1840.899292
1209.754150	1734.544067
1208.834351	1712.491699
1207.914551	1679.575928
1206.994507	1646.671875
1206.074219	1725.168091
1205.153931	1700.416382
1204.233398	1738.137573
1203.312744	1645.508179
1202.391846	1813.539917
1201.470825	1758.931274
1200.549683	1764.048218
1199.628296	1812.578247
1198.706787	1776.989380
1197.785156	1782.100098
1196.863281	1700.424927
1195.941284	1786.892944
1195.019165	1824.531494
1194.096802	1696.812378
1193.174438	1783.234985
1192.251709	1701.631348
1191.328979	1760.931152
1190.406006	1749.785034
1189.482788	1649.273315
1188.559570	1630.027710
1187.636108	1719.077026
1186.712402	1748.546875
1185.788696	1815.893677
1184.864746	1761.456909
1183.940552	1734.092163
1183.016357	1763.538208
1182.091919	1711.843628
1181.167236	1722.356079
1180.242554	1678.796997
1179.317505	1727.151978
1178.392456	1705.226807
1177.467163	1734.646118
1176.541748	1737.040405
1175.616211	1815.061279
1174.690430	1682.415039
1173.764526	1752.317749
1172.838501	1768.204590
1171.912231	1722.007202
1170.985840	1794.564087
1170.059204	1769.963135
1169.132446	1761.556519
1168.205566	1782.821655
1167.278564	1704.302002
1166.351318	1650.075806
1165.423828	1760.308105
1164.496338	1706.091187
1163.568604	1686.925293
1162.640747	1762.066406
1161.712646	1734.815796
1160.784424	1688.721558
1159.856079	1774.593506
1158.927490	1715.046509
1157.998779	1666.288086
1157.069946	1824.786621
1156.140869	1816.390137
1155.211670	1743.425293
1154.282349	1756.565918
1153.352783	1804.665649
1152.423096	1755.942749
1151.493164	1758.319702
1150.563232	1768.760010
1149.632935	1768.446167
1148.702637	1668.708496
1147.772095	1735.578613
1146.841431	1748.701538
1145.910522	1810.162231
1144.979492	1785.673828
1144.048340	1753.139893
1143.116943	1728.670166
1142.185425	1763.252563
1141.253784	1781.722656
1140.321899	1690.189697
1139.389893	1697.936523
1138.457764	1751.272827
1137.525391	1734.873291
1136.592896	1796.226563
1135.660278	1801.268433
1134.727417	1685.709106
1133.794434	1725.602295
1132.861206	1765.481079
1131.927856	1759.810303
1130.994385	1687.189453
1130.060669	1804.704102
1129.126831	1790.997681
1128.192871	1726.439697
1127.258667	1651.199951
1126.324341	1704.420410
1125.389893	1746.920898
1124.455200	1703.814331
1123.520386	1687.465820
1122.585327	1796.791382
1121.650146	1783.105225
1120.714844	1745.368286
1119.779297	1726.351196
1118.843628	1715.356567
1117.907837	1688.337280
1116.971802	1698.720703
1116.035645	1730.464111
1115.099365	1746.176147
1114.162842	1764.552124
1113.226196	1705.519165
1112.289307	1705.215698
1111.352417	1704.912109
1110.415161	1771.299194
1109.477905	1717.640991
1108.540405	1685.335205
1107.602661	1757.022461
1106.664917	1735.383911
1105.726807	1681.770020
1104.788696	1702.788696
1103.850342	1822.378784
1102.911865	1731.484375
1101.973145	1752.482788
1101.034302	1736.193359
1100.095337	1674.648926
1099.156128	1700.969849
1098.216797	1772.526001
1097.277344	1703.024780
1096.337646	1763.912964
1095.397827	1766.258667
1094.457764	1710.093262
1093.517700	1810.833496
1092.577271	1669.604736
1091.636841	1759.683594
1090.696167	1655.721191
1089.755249	1703.255371
1088.814209	1766.712891
1087.873047	1755.772949
1086.931763	1731.557983
1085.990234	1792.320923
1085.048584	1744.214600
1084.106689	1751.866577
1083.164673	1807.285400
1082.222412	1724.707764
1081.280151	1774.805664
1080.337524	1732.049805
1079.394897	1795.388184
1078.452026	1755.295410
1077.509033	1686.055420
1076.565796	1770.572388
1075.622437	1749.055664
1074.678955	1799.086182
1073.735229	1793.466797
1072.791382	1697.794678
1071.847290	1710.732666
1070.903076	1750.143066
1069.958740	1752.477783
1069.014160	1797.160156
1068.069458	1746.559448
1067.124512	1767.414185
1066.179565	1722.127563
1065.234253	1711.240479
1064.288940	1695.068359
1063.343384	1782.015625
1062.397583	1765.836426
1061.451660	1678.302124
1060.505615	1810.128418
1059.559448	1714.691162
1058.613037	1724.951172
1057.666382	1743.130615
1056.719727	1726.975342
1055.772827	1642.181519
1054.825684	1794.989990
1053.878418	1736.606323
1052.931030	1723.102173
1051.983398	1733.347290
1051.035645	1698.745972
1050.087769	1774.924805
1049.139648	1761.423096
1048.191406	1745.289795
1047.242920	1726.526245
1046.294312	1718.311157
1045.345581	1794.418091
1044.396606	1717.696533
1043.447510	1772.703979
1042.498291	1740.784058
1041.548828	1693.077026
1040.599121	1803.344116
1039.649414	1768.803467
1038.699341	1718.485107
1037.749268	1676.078247
1036.798950	1728.392944
1035.848511	1696.520386
1034.897827	1711.995483
1033.947021	1690.654419
1032.996094	1735.042236
1032.044922	1771.528931
1031.093506	1779.095459
1030.142090	1810.306152
1029.190430	1773.204468
1028.238525	1762.380859
1027.286499	1772.569336
1026.334351	1822.137451
1025.381958	1740.433350
1024.429443	1653.509155
1023.476807	1724.064941
1022.523926	1723.755981
1021.570923	1694.591797
1020.617737	1696.910889
1019.664368	1696.606812
1018.710815	1809.040039
1017.757080	1766.774536
1016.803223	1716.661621
1015.849121	1677.048096
1014.894897	1705.566528
1013.940491	1789.083008
1012.985962	1710.192993
1012.031189	1759.637939
1011.076294	1780.266724
1010.121216	1740.683960
1009.165955	1701.115234
1008.210510	1664.177246
1007.254944	1721.434326
1006.299133	1749.898071
1005.343201	1710.355835
1004.387085	1788.491577
1003.430786	1743.727905
1002.474365	1727.732056
1001.517700	1779.688965
1000.560913	1774.143799
999.603943	1765.988159
998.646790	1713.432373
997.689514	1781.023071
996.731995	1770.259399
995.774353	1681.183472
994.816528	1709.592285
993.858521	1740.600464
992.900330	1763.770020
991.942017	1708.671509
990.983459	1729.230103
990.024780	1655.903320
989.065918	1733.823486
988.106873	1676.162842
987.147705	1754.051147
986.188293	1714.648315
985.228760	1724.761841
984.269043	1711.427368
983.309143	1750.186401
982.349060	1718.624146
981.388794	1775.592529
980.428406	1759.655151
979.467834	1795.774780
978.507019	1733.001465
977.546082	1740.494873
976.585022	1818.217041
975.623718	1810.088013
974.662292	1664.149414
973.700623	1744.442993
972.738831	1749.327881
971.776855	1749.013184
970.814758	1816.256104
969.852417	1673.045044
968.889954	1745.472168
967.927246	1690.621948
966.964417	1653.966797
966.001404	1731.550049
965.038208	1752.002930
964.074890	1819.160034
963.111328	1696.885254
962.147644	1753.651367
961.183777	1776.678955
960.219727	1698.562378
959.255493	1713.813110
958.291077	1726.466064
957.326538	1770.216187
956.361755	1743.983887
955.396851	1792.896729
954.431763	1673.414307
953.466492	1768.941406
952.501038	1667.632690
951.535461	1662.154175
950.569641	1804.225586
949.603699	1744.374390
948.637573	1715.596191
947.671265	1684.241211
946.704773	1671.004272
945.738098	1725.013916
944.771240	1727.288818
943.804260	1734.733398
942.837097	1752.514526
941.869751	1852.988770
940.902222	1702.788696
939.934509	1764.484009
938.966614	1810.659302
937.998535	1758.682861
937.030334	1755.783691
936.061951	1752.885498
935.093323	1773.218140
934.124573	1690.317993
933.155640	1741.616455
932.186584	1813.534180
931.217285	1748.725952
930.247864	1707.150024
929.278198	1701.685425
928.308411	1709.111816
927.338440	1711.380859
926.368286	1811.571655
925.397949	1790.633179
924.427429	1731.062256
923.456787	1764.231567
922.485901	1717.562134
921.514893	1799.638916
920.543701	1727.238525
919.572327	1726.926636
918.600769	1796.091064
917.629028	1775.184937
916.657104	1687.407227
915.685059	1705.105103
914.712769	1735.653198
913.740356	1714.772705
912.767761	1747.878174
911.794983	1752.702393
910.822021	1713.843506
909.848877	1762.345093
908.875549	1831.377563
907.902039	1669.257080
906.928406	1787.066040
905.954590	1727.698364
904.980530	1724.819458
904.006348	1683.447876
903.031982	1693.406616
902.057434	1746.971924
901.082703	1777.434082
900.107849	1751.468994
899.132751	1710.129639
898.157532	1789.287231
897.182068	1760.770874
896.206482	1783.515015
895.230713	1760.133911
894.254761	1726.514771
893.278625	1672.418701
892.302307	1718.208130
891.325806	1717.897217
890.349182	1722.705811
889.372314	1824.765259
888.395325	1765.582275
887.418091	1767.821045
886.440735	1734.248535
885.463196	1744.164307
884.485474	1787.316895
883.507568	1769.097778
882.529480	1738.105103
881.551270	1722.456909
880.572815	1760.471680
879.594238	1742.270264
878.615417	1747.063110
877.636475	1726.316895
876.657349	1789.835693
875.677979	1702.716309
874.698486	1799.396606
873.718811	1793.966919
872.739014	1742.613647
871.758972	1755.052612
870.778748	1734.330688
869.798401	1695.765991
868.817810	1828.035889
867.837097	1738.486084
866.856140	1789.143677
865.875061	1791.367432
864.893799	1717.159058
863.912354	1701.564209
862.930725	1724.176758
861.948914	1767.151733
860.966919	1805.019165
859.984741	1781.783203
859.002441	1766.190430
858.019897	1834.571045
857.037231	1788.445801
856.054321	1676.204834
855.071289	1757.279785
854.088074	1784.929932
853.104614	1794.774780
852.121033	1746.156494
851.137268	1827.159668
850.153320	1793.797852
849.169189	1778.230225
848.184937	1760.128418
847.200439	1711.560181
846.215759	1701.093628
845.230896	1756.631470
844.245911	1697.937866
843.260681	1740.768188
842.275330	1684.635742
841.289795	1724.916138
840.304016	1772.790283
839.318115	1716.682373
838.332031	1797.498901
837.345764	1764.219971
836.359314	1791.777100
835.372681	1745.841797
834.385864	1760.724976
833.398865	1724.943604
832.411743	1790.475098
831.424377	1850.918579
830.436829	1688.561279
829.449158	1779.374512
828.461243	1786.642944
827.473206	1710.412354
826.484924	1742.987915
825.496521	1737.612427
824.507935	1739.825317
823.519104	1828.001343
822.530151	1734.136719
821.541016	1870.302856
820.551697	1786.572388
819.562195	1768.561768
818.572510	1745.505615
817.582642	1800.751099
816.592590	1747.395630
815.602356	1784.947876
814.611938	1792.195679
813.621399	1728.775513
812.630615	1771.356934
811.639648	1723.100586
810.648560	1788.368896
809.657227	1793.087158
808.665771	1835.625610
807.674072	1774.787231
806.682251	1789.587402
805.690186	1764.060669
804.697998	1814.131958
803.705566	1783.571533
802.713013	1813.471191
801.720276	1780.403564
800.727356	1749.865723
799.734253	1794.859009
798.740906	1814.666992
797.747437	1779.106445
796.753784	1763.686523
795.759949	1826.252686
794.765930	1755.498657
793.771729	1745.120361
792.777344	1702.062256
791.782776	1804.812256
790.788025	1726.573853
789.793091	1774.001221
788.798035	1725.944336
787.802734	1740.700562
786.807251	1778.053833
785.811584	1750.109497
784.815796	1734.727539
783.819763	1709.311035
782.823547	1726.566040
781.827148	1804.032837
780.830627	1766.074219
779.833862	1745.686646
778.836975	1782.983887
777.839844	1755.078735
776.842529	1802.387573
775.845093	1726.868408
774.847412	1729.059204
773.849609	1793.884644
772.851563	1806.082031
771.853394	1690.544800
770.854980	1837.975342
769.856445	1702.445557
768.857666	1787.241455
767.858765	1756.882813
766.859680	1789.090942
765.860352	1781.258911
764.860901	1720.902100
763.861206	1730.591187
762.861389	1795.285278
761.861389	1744.958496
760.861145	1737.141235
759.860779	1786.804443
758.860168	1734.007935
757.859436	1756.174072
756.858521	1673.430420
755.857361	1800.481812
754.856079	1780.178711
753.854614	1797.327393
752.852905	1752.073853
751.851074	1799.165649
750.848999	1788.856934
749.846802	1743.629517
748.844421	1838.083008
747.841797	1762.940308
746.839050	1750.152344
745.836121	1777.251343
744.832947	1704.652954
743.829651	1756.667358
742.826111	1766.311035
741.822449	1805.840942
740.818604	1798.039429
739.814514	1757.871948
738.810303	1772.486938
737.805847	1826.920410
736.801270	1873.868164
735.796448	1764.049561
734.791504	1786.115356
733.786316	1763.403809
732.781006	1738.213745
731.775452	1782.648193
730.769775	1822.094604
729.763855	1816.790283
728.757751	1791.608643
727.751526	1798.733765
726.745056	1818.276245
725.738403	1810.492554
724.731628	1787.813232
723.724609	1864.446899
722.717407	1769.783081
721.710083	1771.940430
720.702515	1756.728271
719.694763	1679.501465
718.686829	1778.407471
717.678711	1842.558716
716.670410	1819.906006
715.661987	1737.765991
714.653320	1777.103882
713.644470	1828.817505
712.635437	1786.362671
711.626221	1815.761108
710.616821	1882.299316
709.607178	1758.141357
708.597412	1735.536621
707.587463	1764.922485
706.577332	1791.822510
705.567017	1811.289307
704.556458	1783.743164
703.545776	1728.998169
702.534912	1802.873291
701.523804	1748.144653
700.512573	1732.990845
699.501099	1747.503052
698.489502	1794.136353
697.477661	1744.390869
696.465698	1736.659546
695.453491	1810.437744
694.441101	1810.105347
693.428589	1770.269043
692.415833	1787.223755
691.402893	1843.661621
690.389771	1779.164429
689.376465	1727.026855
688.362976	1761.243896
687.349304	1829.975952
686.335449	1787.720825
685.321411	1757.807983
684.307190	1789.528931
683.292725	1774.413208
682.278137	1788.871216
681.263367	1776.224731
680.248352	1748.804077
679.233215	1763.258545
678.217834	1804.791748
677.202332	1755.225098
676.186584	1806.589600
675.170654	1759.501343
674.154541	1734.573975
673.138306	1790.833496
672.121826	1815.098999
671.105164	1834.437500
670.088318	1762.801270
669.071289	1806.723267
668.054016	1794.102539
667.036621	1749.542480
666.019043	1766.417969
665.001282	1795.568726
663.983276	1809.973511
662.965149	1848.927002
661.946777	1801.942505
660.928223	1791.792725
659.909546	1781.646729
658.890625	1737.153809
657.871521	1727.021362
656.852234	1785.568237
655.832764	1760.717041
654.813110	1829.043213
653.793274	1735.555054
652.773254	1779.351685
651.752991	1810.879639
650.732605	1766.446289
649.711975	1729.377686
648.691223	1800.082764
647.670227	1802.199707
646.649048	1767.593018
645.627747	1703.626099
644.606201	1771.836182
643.584473	1786.190674
642.562561	1807.879028
641.540466	1827.113281
640.518127	1755.857422
639.495667	1843.554932
638.473022	1794.323364
637.450134	1806.213135
636.427063	1774.112305
635.403870	1803.103882
634.380432	1851.626953
633.356812	1809.765869
632.333008	1709.315063
631.309021	1691.909668
630.284851	1747.740112
629.260498	1723.012451
628.235901	1681.213135
627.211182	1732.135132
626.186218	1787.916626
625.161133	1772.954224
624.135803	1789.694946
623.110291	1784.489014
622.084595	1828.032349
621.058716	1793.578003
620.032654	1824.921021
619.006409	1851.380371
617.979919	1748.744263
616.953308	1770.337524
615.926453	1762.706543
614.899414	1801.328735
613.872253	1805.863525
612.844849	1798.229980
611.817261	1780.867676
610.789490	1780.538696
609.761475	1862.897095
608.733337	1748.270874
607.705017	1794.138428
606.676453	1750.055420
605.647705	1776.463989
604.618774	1768.846558
603.589722	1773.378174
602.560425	1751.190796
601.530884	1823.718628
600.501221	1818.525635
599.471375	1789.059570
598.441284	1810.572021
597.411011	1822.370239
596.380615	1826.885498
595.349976	1804.716309
594.319153	1804.382568
593.288147	1757.977661
592.256897	1786.744629
591.225525	1815.500854
590.193970	1776.389771
589.162170	1814.829102
588.130188	1778.154907
587.098022	1794.780640
586.065674	1726.641968
585.033142	1738.428467
584.000427	1839.778687
582.967468	1793.452148
581.934387	1788.280396
580.901062	1797.626953
579.867554	1734.400879
578.833862	1833.239136
577.799988	1886.097290
576.765930	1786.625244
575.731628	1793.545898
574.697205	1798.047119
573.662537	1838.790894
572.627747	1756.311890
571.592712	1777.724976
570.557434	1746.001343
569.522034	1762.579224
568.486450	1812.947510
567.450623	1771.580444
566.414673	1778.491455
565.378479	1780.574585
564.342102	1811.603760
563.305542	1741.325562
562.268799	1760.293579
561.231812	1757.556274
560.194702	1834.365356
559.157349	1841.255249
558.119812	1867.419067
557.082092	1775.525879
556.044189	1840.230835
555.006042	1762.826050
553.967773	1829.917114
552.929260	1730.876709
551.890625	1749.810669
550.851746	1672.479736
549.812683	1669.763306
548.773376	1703.131226
547.733948	1801.424438
546.694275	1630.359253
545.654419	1709.395630
544.614441	1730.712280
543.574158	1723.180908
542.533752	1708.443726
541.493164	1813.833374
540.452332	1746.241089
539.411316	1846.781250
538.370178	1767.202393
537.328735	1757.271484
536.287170	1790.547852
535.245422	1780.616211
534.203430	1849.865356
533.161255	1688.797974
532.118896	1815.600220
531.076355	1609.037476
530.033630	1728.614624
528.990723	1716.307983
527.947571	1699.212524
526.904236	1655.765259
525.860718	1657.853271
524.817017	1631.196777
523.773132	1618.919189
522.729004	1750.310547
521.684692	1716.469604
520.640198	1783.168823
519.595520	1746.941162
518.550659	1782.505615
517.505615	1753.467896
516.460327	1789.017700
515.414856	1748.032959
514.369202	1836.168945
513.323364	1747.382568
512.277283	1708.818115
511.231079	1682.215454
510.184631	1643.677368
509.138000	1640.982788
508.091187	1597.690186
507.044159	1609.331421
505.996948	1544.575073
504.949554	1634.987549
503.901947	1603.659912
502.854126	1698.799438
501.806152	1650.772949
500.757965	1743.483032
499.709564	1697.850586
