#Wave		#Intensity
3200.600830	29.468966
3200.007080	33.678818
3199.413086	54.719807
3198.819092	12.625739
3198.224854	21.039719
3197.630615	37.865768
3197.036377	42.066715
3196.442139	12.618108
3195.847656	33.643200
3195.252930	42.047642
3194.658447	37.837154
3194.063721	71.459381
3193.468750	21.014286
3192.873779	50.426659
3192.278809	50.419033
3191.683838	25.205706
3191.088623	58.804417
3190.493164	67.194885
3189.897949	29.393316
3189.302490	20.992050
3188.706787	16.791100
3188.111328	25.182840
3187.515381	58.751072
3186.919678	20.979351
3186.323730	12.585706
3185.727783	20.973003
3185.131592	20.969830
3184.535400	33.546650
3183.939209	25.156181
3183.342773	16.768250
3182.746338	4.191428
3182.149902	37.717144
3181.553223	41.901596
3180.956543	29.326677
3180.359619	46.077805
3179.762695	20.941286
3179.165771	29.313362
3178.568604	29.308924
3177.971436	33.490841
3177.374268	29.300051
3176.776855	8.370175
3176.179443	37.660088
3175.581787	46.022026
3174.984131	37.648682
3174.386475	37.642982
3173.788574	12.545760
3173.190674	-16.725147
3172.592773	54.348495
3171.994629	29.260143
3171.396484	25.076324
3170.798340	54.323803
3170.199951	25.068727
3169.601563	37.597393
3169.002930	25.061132
3168.404297	16.704891
3167.805664	45.931488
3167.206787	29.224701
3166.607910	33.394596
3166.008789	41.736919
3165.409912	50.076714
3164.810547	29.206989
3164.211426	45.889744
3163.612061	33.369301
3163.012695	29.193712
3162.413086	8.339796
3161.813477	20.846331
3161.213623	20.843170
3160.614014	33.344017
3160.013916	37.506332
3159.414063	41.667385
3158.813965	74.989922
3158.213867	62.482124
3157.613525	29.153904
3157.013184	33.313694
3156.412598	62.453705
3155.812256	29.140644
3155.211426	12.486953
3154.610840	24.970118
3154.010010	16.644220
3153.409180	37.443817
3152.808105	41.597931
3152.207031	4.159162
3151.605957	33.268250
3151.004639	45.736900
3150.403320	29.100885
3149.801758	37.409748
3149.200195	41.560078
3148.598633	33.243019
3147.996826	24.928480
3147.395020	29.078814
3146.793213	24.920914
3146.191162	41.528553
3145.589111	24.913351
3144.986816	33.212757
3144.384766	24.905788
3143.782227	37.353012
3143.179932	41.497044
3142.577393	49.788895
3141.974609	58.078224
3141.371826	37.330334
3140.769043	33.177479
3140.166260	29.025887
3139.563232	8.291851
3138.960205	45.598259
3138.356934	12.434000
3137.753662	37.296333
3137.150391	24.860447
3136.546875	20.713892
3135.943359	49.705791
3135.339600	12.424561
3134.735840	33.127129
3134.132080	45.542881
3133.528076	20.698164
3132.924072	33.112034
3132.320068	24.830252
3131.715820	16.550985
3131.111572	-4.137118
3130.507080	45.501377
3129.902588	4.135860
3129.298096	37.217087
3128.693604	33.076828
3128.088867	24.803850
3127.483887	28.933428
3126.878906	4.132719
3126.273926	41.320904
3125.668945	49.577545
3125.063721	57.831676
3124.458252	20.651030
3123.853027	53.684517
3123.247559	16.515800
3122.641846	37.154903
3122.036133	70.170807
3121.430420	16.508268
3120.824707	41.264393
3120.218750	33.006496
3119.612549	37.126659
3119.006592	4.124557
3118.400391	37.115368
3117.793945	49.479630
3117.187500	53.594776
3116.581055	28.854336
3115.974609	32.971367
3115.367920	37.087147
3114.760986	28.841169
3114.154297	24.717241
3113.547363	49.426960
3112.940186	41.182865
3112.333008	16.470640
3111.725830	37.053299
3111.118408	49.396881
3110.510986	53.505142
3109.903564	53.496998
3109.295898	41.145275
3108.688232	28.797308
3108.080566	45.246021
3107.472656	65.802376
3106.864746	45.232246
3106.256592	28.779776
3105.648438	28.775394
3105.040039	0.000000
3104.431885	53.423744
3103.823486	28.762251
3103.214844	45.190941
3102.606201	53.399342
3101.997559	-4.107016
3101.388672	36.957516
3100.779785	49.269180
3100.170898	32.841118
3099.561768	16.418058
3098.952637	20.519445
3098.343262	36.929375
3097.733887	45.129028
3097.124512	49.224167
3096.514893	57.419445
3095.905273	49.209167
3095.295410	41.001389
3094.685791	45.094658
3094.075684	32.791115
3093.465820	28.687853
3092.855713	16.390560
3092.245361	57.358219
3091.635254	36.867519
3091.024658	45.053436
3090.414307	40.951424
3089.803711	36.850662
3089.193115	28.657257
3088.582275	32.746159
3087.971436	12.277937
3087.360596	32.736176
3086.749512	4.091398
3086.138428	32.726192
3085.527100	20.450750
3084.915771	-12.268579
3084.304443	16.355610
3083.692871	44.971069
3083.081299	20.438276
3082.469482	16.348127
3081.857910	77.641762
3081.245850	65.372559
3080.634033	16.340647
3080.021973	32.676308
3079.409668	4.083915
3078.797607	57.166092
3078.185059	36.744022
3077.572754	28.574324
3076.960205	40.814232
3076.347656	12.242401
3075.734863	48.962132
3075.122070	44.875107
3074.509033	16.315729
3073.895996	12.234929
3073.282959	24.466124
3072.669922	16.308260
3072.056641	48.917309
3071.443115	32.606560
3070.829834	40.751980
3070.216064	20.372879
3069.602539	28.517673
3068.988770	57.026638
3068.375000	44.799805
3067.760986	20.360437
3067.146973	24.428793
3066.532715	36.637592
3065.918701	28.491554
3065.304199	52.904804
3064.689941	24.413872
3064.075439	40.683571
3063.460693	16.270943
3062.846191	32.536915
3062.231445	28.465450
3061.616455	24.395229
3061.001465	52.848255
3060.386475	36.581665
3059.771240	12.192024
3059.156006	24.380323
3058.540771	28.439363
3057.925293	36.559307
3057.309814	24.369146
3056.694092	28.426325
3056.078369	8.120565
3055.462646	36.536961
3054.846680	12.177125
3054.230713	60.876316
3053.614502	8.115602
3052.998291	52.743343
3052.382080	52.735279
3051.765625	28.391579
3051.149170	32.442558
3050.532715	28.382896
3049.916016	44.594872
3049.299316	24.320757
3048.682373	36.475555
3048.065430	36.469975
3047.448486	36.464397
3046.831299	16.203920
3046.214111	56.705044
3045.596680	36.447666
3044.979248	36.442089
3044.361816	36.436516
3043.744141	12.143647
3043.126465	48.567154
3042.508545	20.233219
3041.890869	52.598316
3041.272705	0.000000
3040.654785	76.850937
3040.036621	40.441673
3039.418213	60.653221
3038.799805	32.343433
3038.181396	40.423103
3037.562988	44.458607
3036.944336	28.287510
3036.325439	20.202272
3035.706543	40.398357
3035.087646	20.196087
3034.468750	44.424587
3033.849609	36.341824
3033.230469	36.336258
3032.611084	24.220463
3031.991699	32.289005
3031.372070	48.426090
3030.752441	56.488453
3030.132813	32.274170
3029.513184	28.235575
3028.893066	48.396427
3028.273193	32.259342
3027.653076	56.445202
3027.032959	68.530098
3026.412598	32.244518
3025.792480	32.239578
3025.171875	8.058660
3024.551270	24.172274
3023.930664	48.337139
3023.310059	40.274776
3022.689209	40.268604
3022.068115	24.157459
3021.447266	16.102505
3020.826172	52.325119
3020.204834	28.170746
3019.583496	52.309078
3018.962158	36.208427
3018.340576	72.405746
3017.718994	32.175400
3017.097412	48.255699
3016.475586	36.186226
3015.853760	-4.020075
3015.231689	64.311340
3014.609619	36.169582
3013.987549	28.127583
3013.365234	20.088049
3012.742920	48.203922
3012.120361	-4.016377
3011.497803	44.173374
3010.875244	36.136307
3010.252441	12.043589
3009.629639	56.194790
3009.006836	48.159573
3008.383789	44.139500
3007.760498	36.108597
3007.137451	60.171761
3006.514160	68.184196
3005.890625	44.112415
3005.267090	68.163269
3004.643555	20.044945
3004.019775	36.075363
3003.395996	60.116375
3002.772217	48.085716
3002.148193	44.071808
3001.524170	20.029564
3000.899902	44.058277
3000.275635	60.070244
2999.651367	44.044750
2999.026855	44.037987
2998.402344	48.034065
2997.777588	60.033360
2997.152832	56.022530
2996.528076	72.017906
2995.903076	40.003803
2995.278076	59.996490
2994.653076	59.987274
2994.027832	63.976597
2993.402344	55.970924
2992.777100	43.970398
2992.151367	51.957035
2991.525879	55.945133
2990.900146	67.922935
2990.274414	95.876472
2989.648438	71.896309
2989.022461	63.898006
2988.396240	55.902164
2987.770264	55.893574
2987.143799	63.868553
2986.517578	59.867565
2985.891113	51.877247
2985.264404	75.808937
2984.637695	83.775948
2984.010986	71.796913
2983.384033	63.809669
2982.757080	83.737320
2982.130127	95.685074
2981.502930	27.903856
2980.875732	75.727394
2980.248291	95.640945
2979.620850	107.579514
2978.993408	99.595345
2978.365723	111.529633
2977.738037	83.634361
2977.110107	111.495323
2976.482178	67.683182
2975.854248	131.364792
2975.226074	79.602776
2974.597900	119.385788
2973.969482	123.346336
2973.341309	119.349060
2972.712646	139.219147
2972.083984	111.358177
2971.455322	178.940964
2970.826660	163.010010
2970.197754	159.009689
2969.568604	139.112061
2968.939697	170.882797
2968.310547	162.909683
2967.681152	190.694168
2967.051758	234.358841
2966.422363	238.294342
2965.792725	202.518997
2965.163086	262.043060
2964.533203	258.032990
2963.903564	222.271118
2963.273438	269.859070
2962.643311	285.689148
2962.013184	238.037628
2961.383057	337.168030
2960.752686	269.692902
2960.122314	273.616821
2959.491699	313.223175
2958.861084	336.960358
2958.230225	328.981201
2957.599609	376.486755
2956.968506	340.767059
2956.337646	344.676361
2955.706299	352.545654
2955.075195	348.530731
2954.443848	332.637177
2953.812500	344.463989
2953.180908	356.287140
2952.549316	419.562408
2951.917725	372.007446
2951.285889	395.691589
2950.653809	431.237366
2950.021973	514.240540
2949.389893	439.014618
2948.757568	415.220062
2948.125244	430.971527
2947.492920	367.652954
2946.860352	387.359528
2946.227783	359.635529
2945.595215	363.531494
2944.962402	312.114777
2944.329590	300.216003
2943.696533	240.925690
2943.063477	264.582489
2942.430420	264.541687
2941.797119	217.127594
2941.163574	193.411102
2940.530273	205.220947
2939.896729	240.702820
2939.262939	248.556366
2938.629150	205.125977
2937.995361	197.206085
2937.361328	224.780258
2936.727295	244.460098
2936.093262	236.537781
2935.458984	264.093079
2934.824707	236.464783
2934.190186	244.309219
2933.555664	236.391800
2932.921143	244.233810
2932.286377	279.643951
2931.651367	275.662750
2931.016602	279.557617
2930.381592	334.629974
2929.746338	397.557770
2929.111084	373.882751
2928.475830	424.980011
2927.840332	405.242432
2927.204834	432.716339
2926.569336	471.981293
2925.933594	491.571259
2925.297607	479.699463
2924.661865	546.458435
2924.025879	487.412781
2923.389648	554.149902
2922.753418	502.980347
2922.117188	530.405151
2921.480713	573.534729
2920.844238	534.168945
2920.207764	581.211731
2919.571045	490.812439
2918.934082	498.588379
2918.297363	514.212463
2917.660156	467.036865
2917.023193	584.686890
2916.385986	494.356781
2915.748779	494.280365
2915.111328	505.970734
2914.473877	470.597687
2913.836182	509.735352
2913.198486	427.327423
2912.560791	478.219147
2911.922852	478.145203
2911.284912	552.524963
2910.646729	489.751373
2910.008545	528.849731
2909.370361	575.769531
2908.731934	520.853760
2908.093506	544.266724
2907.455078	673.377014
2906.816406	622.385925
2906.177490	657.513611
2905.538574	794.372742
2904.899658	739.473999
2904.260498	821.510681
2903.621338	790.092773
2902.982178	727.398621
2902.342773	899.332214
2901.703369	817.092834
2901.063721	809.148560
2900.424072	812.931641
2899.784424	750.282288
2899.144531	746.259094
2898.504639	714.891479
2897.864502	746.028076
2897.224365	675.617188
2896.583984	691.131409
2895.943848	698.832581
2895.303223	729.952332
2894.662842	683.004700
2894.021973	729.726318
2893.381348	659.383179
2892.740479	698.291809
2892.099609	686.482239
2891.458496	674.676331
2890.817383	752.557068
2890.176025	768.035156
2889.534668	740.629822
2888.893311	798.976807
2888.251709	818.337280
2887.610107	802.625549
2886.968262	876.518311
2886.326416	853.012329
2885.684570	919.085510
2885.042480	989.031982
2884.400391	911.014282
2883.758057	984.832886
2883.115723	1043.060547
2882.473389	1070.138794
2881.830811	1089.427002
2881.188232	964.771484
2880.545410	1081.310059
2879.902588	1057.808472
2879.259766	1084.863281
2878.616699	1084.695190
2877.973633	971.798401
2877.330322	959.987976
2876.687012	987.041016
2876.043457	881.982605
2875.399902	881.845825
2874.756348	815.678040
2874.112549	920.408142
2873.468750	780.478271
2872.824707	733.768738
2872.180664	749.182007
2871.536621	799.521057
2870.892334	729.546814
2870.248047	710.033813
2869.603760	752.596680
2868.958984	806.782593
2868.314453	756.241333
2867.669678	779.389343
2867.024902	794.776245
2866.379883	775.271118
2865.734863	837.162903
2865.089844	813.782104
2864.444580	883.397705
2863.799316	790.285828
2863.153809	832.770020
2862.508301	728.076538
2861.862549	762.812866
2861.216797	689.135071
2860.571045	677.415283
2859.925049	557.329468
2859.279053	495.327057
2858.632813	406.259888
2857.986572	382.985565
2857.340332	421.605499
2856.693848	320.989197
2856.047363	297.738922
2855.400635	324.755646
2854.753906	274.453217
2854.107178	305.330078
2853.460205	266.639282
2852.813232	243.415451
2852.166016	220.198807
2851.518799	231.752213
2850.871338	204.682648
2850.223877	223.957535
2849.576416	235.504944
2848.928711	266.349457
2848.281006	239.291306
2847.633301	270.125610
2846.985352	273.941986
2846.337158	324.049988
2845.688965	289.285400
2845.040771	335.518890
2844.392578	377.882080
2843.743896	377.823334
2843.095459	416.312012
2842.446777	439.372131
2841.798096	485.546356
2841.149170	531.706177
2840.500244	547.032898
2839.851074	562.354797
2839.202148	620.034546
2838.552734	627.639221
2837.903320	654.491272
2837.253906	646.690735
2836.604492	654.287659
2835.954834	611.856262
2835.304932	627.151306
2834.655029	569.349365
2834.005127	526.950867
2833.354980	530.714661
2832.704834	480.645020
2832.054688	380.611633
2831.404297	388.240326
2830.753906	326.686066
2830.103271	303.578644
2829.452637	268.951874
2828.801758	265.068451
2828.150879	218.935501
2827.500000	195.859161
2826.848877	234.226456
2826.197754	203.476563
2825.546387	172.736221
2824.895020	176.547318
2824.243408	176.519836
2823.591797	145.798019
2822.940186	149.611511
2822.288330	126.574646
2821.636475	164.904922
2820.984619	111.197624
2820.332520	118.847916
2819.680176	122.662613
2819.028076	103.480461
2818.375488	141.784470
2817.723145	111.111061
2817.070557	114.924568
2816.417725	114.906670
2815.764893	107.229515
2815.112061	114.870865
2814.458984	103.367676
2813.805908	80.384552
2813.152832	88.026505
2812.499512	91.839432
2811.845947	103.303261
2811.192383	72.683556
2810.538818	76.497078
2809.885010	80.309418
2809.231201	107.062531
2808.577393	68.815186
2807.923340	84.094337
2807.269287	61.149982
2806.614990	72.604286
2805.960693	95.517059
2805.306152	106.962425
2804.651611	80.209312
2803.997070	84.015694
2803.342285	57.274498
2802.687500	83.989494
2802.032471	57.256634
2801.377441	87.779816
2800.722412	61.054691
2800.067139	83.937111
2799.411621	68.665100
2798.756348	72.468521
2798.100586	57.203068
2797.445068	61.007084
2796.789307	87.683998
2796.133301	72.423309
2795.477539	72.412003
2794.821289	87.642960
2794.165283	83.819313
2793.509033	49.521866
2792.852539	64.749252
2792.196045	72.355522
2791.539551	68.536636
2790.882813	79.946922
2790.226074	34.257618
2789.569092	60.892925
2788.912109	64.688629
2788.255127	72.287773
2787.597900	49.452332
2786.940430	49.444611
2786.283203	68.451080
2785.625488	53.231411
2784.968018	87.437950
2784.310303	60.816898
2783.652588	79.809715
2782.994629	98.796593
2782.336426	87.383331
2781.678467	45.584183
2781.020264	56.971325
2780.361816	98.734871
2779.703369	87.328743
2779.044922	91.111404
2778.386230	75.914307
2777.727539	68.312202
2777.068604	64.506996
2776.409668	79.672661
2775.750732	53.106804
2775.091553	68.269508
2774.432373	64.466675
2773.772949	68.248169
2773.113525	41.700691
2772.453857	68.226830
2771.794189	53.057014
2771.134521	53.048721
2770.474609	68.194832
2769.814697	68.184174
2769.154541	64.386093
2768.494385	45.441898
2767.833984	94.655815
2767.173584	75.712814
2766.513184	64.345825
2765.852539	56.766846
2765.191895	75.677292
2764.531006	83.231995
2763.870117	49.174850
2763.209229	52.949245
2762.548096	68.066948
2761.886719	49.151775
2761.225586	83.166908
2760.563965	60.475559
2759.902588	90.699142
2759.240967	68.013718
2758.579102	71.781021
2757.917236	56.660355
2757.255371	67.981789
2756.593262	79.299667
2755.931152	75.511673
2755.269043	94.374817
2754.606689	101.908844
2753.944092	90.571457
2753.281494	101.876938
2752.618896	94.315727
2751.956055	82.984840
2751.293213	113.143433
2750.630371	109.354851
2749.967285	64.094528
2749.303955	86.702545
2748.640625	94.227142
2747.977295	101.749374
2747.313721	86.661812
2746.650146	67.811668
2745.986572	128.068634
2745.322754	75.322685
2744.658691	75.310890
2743.994873	86.593948
2743.330566	112.930931
2742.666504	86.566818
2742.002197	101.605988
2741.337646	127.928230
2740.673096	82.764114
2740.008545	94.035393
2739.343750	135.389740
2738.678955	78.964973
2738.013916	139.106949
2737.348877	116.530792
2736.683594	112.754059
2736.018311	82.673347
2735.353027	78.903091
2734.687500	120.214432
2734.021973	108.927246
2733.356201	131.443298
2732.690430	116.402954
2732.024658	97.612968
2731.358643	142.642731
2730.692383	142.620361
2730.026367	146.350571
2729.359863	127.567665
2728.693604	135.050461
2728.027100	161.284958
2727.360352	138.758301
2726.693604	134.986908
2726.026855	138.714767
2725.359863	168.680679
2724.692871	183.645691
2724.025635	164.880463
2723.358398	183.588058
2722.691162	202.289780
2722.023682	172.293884
2721.355957	179.756699
2720.688477	205.938889
2720.020508	220.881577
2719.352783	194.644730
2718.684814	213.327072
2718.016602	202.067596
2717.348389	142.173386
2716.680176	205.744965
2716.011719	187.011505
2715.343262	145.846069
2714.674561	201.908997
2714.005859	130.846390
2713.337158	127.087952
2712.668213	142.017166
2711.999023	156.941681
2711.329834	156.917038
2710.660645	149.421310
2709.991455	126.988167
2709.321777	141.905655
2708.652344	138.149582
2707.982666	141.861053
2707.312988	126.908371
2706.643066	145.548492
2705.972900	119.405632
2705.302979	123.117706
2704.632813	138.019363
2703.962402	130.538345
2703.291992	115.601501
2702.621582	96.940857
2701.950928	119.293068
2701.280273	93.183060
2700.609375	126.709030
2699.938477	119.236809
2699.267334	126.669189
2698.596191	115.474335
2697.925049	111.731781
2697.253662	100.542793
2696.582031	96.803757
2695.910645	104.233803
2695.239014	81.885109
2694.567139	100.479546
2693.895264	93.021988
2693.223145	89.287056
2692.551270	74.394173
2691.878906	100.416336
2691.206543	78.089302
2690.534180	78.077019
2689.861816	55.760521
2689.189209	70.618881
2688.516357	122.634544
2687.843506	107.752792
2687.170654	104.020798
2686.497559	96.575539
2685.824463	103.988060
2685.151123	89.118591
2684.477783	59.403042
2683.804199	77.954216
2683.130615	118.768677
2682.457031	96.484352
2681.783203	85.338104
2681.109375	103.873505
2680.435303	96.438782
2679.761230	63.046196
2679.086914	92.700394
2678.412598	103.808090
2677.738281	92.671196
2677.063721	88.950333
2676.389160	85.230644
2675.714355	81.512115
2675.039551	81.499275
2674.364502	62.966793
2673.689453	96.286980
2673.014404	88.866280
2672.339111	118.469704
2671.663574	81.435089
2670.988037	111.030350
2670.312500	96.211136
2669.636719	81.396591
2668.960938	77.684502
2668.285156	114.659042
2667.609131	88.754295
2666.932861	92.437820
2666.256592	103.514038
2665.580322	107.194061
2664.903809	77.611046
2664.227295	70.208450
2663.550781	118.227158
2662.874023	62.798275
2662.197021	96.029274
2661.520020	118.171234
2660.843018	66.460838
2660.165771	95.983841
2659.488525	92.277596
2658.811035	88.572517
2658.133545	84.868607
2657.455811	70.097786
2656.778076	92.219383
2656.100342	106.957603
2655.422363	106.940727
2654.744385	103.236824
2654.066162	136.398560
2653.387939	125.319435
2652.709473	114.243805
2652.031006	84.748154
2651.352539	92.103020
2650.673828	95.772026
2649.994873	136.269440
2649.316162	114.153671
2648.636963	117.817444
2647.958008	73.624275
2647.278809	84.654549
2646.599365	103.041443
2645.919922	128.781464
2645.240479	69.898895
2644.560791	80.922783
2643.880859	110.331818
2643.201172	106.637245
2642.520996	88.237579
2641.841064	113.955536
2641.160889	66.157280
2640.480469	95.545410
2639.800049	80.833344
2639.119629	84.494240
2638.438965	84.480888
2637.758301	73.450035
2637.077393	91.798035
2636.396484	73.426819
2635.715332	99.110542
2635.034180	88.084335
2634.353027	121.096825
2633.671631	95.394539
2632.989990	69.700371
2632.308350	80.692940
2631.626709	102.683868
2630.944824	77.000725
2630.262939	58.657944
2629.581055	76.976379
2628.898926	91.624054
2628.216553	84.280800
2627.534180	51.293243
2626.851807	76.927696
2626.169189	109.879333
2625.486572	69.579239
2624.803711	95.198631
2624.120850	95.183571
2623.437988	69.546227
2622.754883	87.833961
2622.071533	73.183388
2621.388184	98.781944
2620.704834	95.108307
2620.021240	91.435822
2619.337646	80.450790
2618.653809	73.125511
2617.969971	102.359512
2617.286133	98.688194
2616.602051	73.090797
2615.917725	105.964874
2615.233398	87.681190
2614.549072	98.625725
2613.864502	43.826714
2613.179932	54.774719
2612.495117	116.834236
2611.810303	105.864258
2611.125488	69.348358
2610.440430	87.584061
2609.755127	51.082611
2609.069824	91.204498
2608.384521	102.132858
2607.698975	116.704781
2607.013428	105.746956
2606.327637	69.271515
2605.641846	69.260544
2604.956055	76.538994
2604.270020	94.747551
2603.583740	58.296947
2602.897461	69.216660
2602.211182	87.417709
2601.524658	72.836548
2600.838135	72.825005
2600.151367	61.891445
2599.464600	61.881638
2598.777832	80.069427
2598.090820	72.778847
2597.403564	94.597504
2596.716309	87.306931
2596.029053	83.655876
2595.341553	101.825790
2594.654053	43.632706
2593.966309	83.616096
2593.278564	72.698120
2592.590820	76.320915
2591.902832	65.407555
2591.214600	65.397179
2590.526367	79.917213
2589.838135	69.008461
2589.149658	112.574898
2588.461182	79.879189
2587.772461	105.278587
2587.083740	72.594406
2586.394775	83.470322
2585.705811	90.714211
2585.016846	68.931862
2584.327637	116.077347
2583.638184	97.924721
2582.948975	83.404114
2582.259277	83.390877
2581.569824	94.252983
2580.879883	94.238029
2580.190186	79.727211
2579.500244	83.337944
2578.810059	105.061592
2578.119873	108.667152
2577.429688	86.919922
2576.739258	101.390472
2576.048584	86.892319
2575.358154	57.919014
2574.667236	57.909817
2573.976563	86.850929
2573.285645	90.455353
2572.594482	94.058624
2571.903320	72.341293
2571.212158	94.028748
2570.520752	79.550140
2569.829102	97.614212
2569.137451	75.910103
2568.445801	61.441273
2567.753906	90.340454
2567.062012	75.873924
2566.370117	83.086807
2565.677979	68.626022
2564.985596	75.837753
2564.293213	108.322433
2563.600830	101.084869
2562.908203	79.411201
2562.215332	72.180527
2561.522705	72.169052
2560.829590	90.196968
2560.136719	79.360718
2559.443604	68.527901
2558.750244	68.517006
2558.056885	57.689358
2557.363525	75.705238
2556.669922	75.693199
2555.976074	75.681160
2555.282227	61.255959
2554.588379	75.657089
2553.894287	79.247200
2553.200195	50.422012
2552.505859	90.024986
2551.811523	50.405972
2551.117188	75.596931
2550.422607	82.783463
2549.727783	71.974167
2549.032959	61.168304
2548.338135	82.743950
2547.643066	104.312721
2546.947998	97.103287
2546.252686	61.129375
2545.557373	97.072380
2544.861816	89.867523
2544.166260	71.882576
2543.470703	53.903347
2542.774902	71.859688
2542.078857	64.663422
2541.382813	86.204170
2540.686768	57.460293
2539.990479	100.539505
2539.294189	96.933365
2538.597656	50.253742
2537.901123	93.313515
2537.204346	100.475471
2536.507568	75.344597
2535.810791	78.919861
2535.113770	71.733902
2534.416504	71.722473
2533.719238	82.467705
2533.021973	93.209503
2532.324463	96.779060
2531.626953	82.428284
2530.929199	64.498817
2530.231445	96.732803
2529.533447	53.731880
2528.835449	93.120415
2528.137451	85.943604
2527.439209	60.867016
2526.740723	103.815422
2526.042236	42.951256
2525.343750	75.152718
2524.645020	85.875122
2523.946289	75.128754
2523.247314	60.808815
2522.548340	107.292564
2521.849121	60.789421
2521.149902	75.080841
2520.450684	78.643570
2519.751221	85.779305
2519.051514	96.486328
2518.351807	103.616928
2517.652100	103.600403
2516.952148	82.152725
2516.252197	85.710907
2515.552002	89.267952
2514.851807	74.973114
2514.151367	103.517776
2513.450928	71.380180
2512.750244	89.210983
2512.049561	74.925270
2511.348877	99.884415
2510.647949	82.034813
2509.946777	85.587883
2509.245605	82.008629
2508.544434	85.560555
2507.843018	81.982445
2507.141602	92.661011
2506.439941	71.266319
2505.738281	81.943176
2505.036377	67.681381
2504.334473	89.040230
2503.632568	71.220810
2502.930420	85.451317
2502.228027	117.476799
2501.525635	49.830681
2500.823242	103.204208
2500.120605	85.396736
2499.417969	92.498352
2498.715088	103.154755
2498.012207	103.138268
2497.309082	81.786247
2496.605957	95.994598
2495.902588	103.088837
2495.199219	88.855484
2494.495605	99.502235
2493.791992	88.827087
2493.088379	71.050308
2492.384521	71.038956
2491.680664	60.373455
2490.976563	85.219490
2490.272461	113.607819
2489.568115	81.642563
2488.863770	60.334858
2488.159180	99.359169
2487.454590	106.439232
2486.749756	92.232582
2486.044922	134.779907
2485.339844	56.740356
2484.634766	56.731281
2483.929688	88.628448
2483.224365	95.703415
2482.519043	77.968086
2481.813477	95.672798
2481.107666	56.685921
2480.402100	74.388367
2479.696045	85.001671
2478.990234	63.741051
2478.284180	77.893265
2477.577881	95.580978
2476.871582	70.789398
2476.165039	113.244904
2475.458496	77.843407
2474.751953	95.519798
2474.045166	91.967308
2473.338379	88.415947
2472.631348	74.257507
2471.924072	81.316628
2471.217041	84.838547
2470.509521	91.893707
2469.802246	106.014221
2469.094482	109.530487
2468.386963	102.447594
2467.679199	63.577976
2466.971191	81.225517
2466.263184	77.681526
2465.554932	84.729904
2464.846680	95.305878
2464.138428	98.819893
2463.429932	67.045609
2462.721436	67.034866
2462.012695	88.189644
2461.303955	84.648491
2460.594971	105.793655
2459.885986	95.199028
2459.176758	81.082474
2458.467529	91.643761
2457.758057	84.580681
2457.048584	98.661644
2456.338867	95.122757
2455.629150	81.017509
2454.919434	126.789680
2454.209473	119.726616
2453.499512	102.103386
2452.789307	119.688225
2452.078857	95.031288
2451.368408	105.573387
2450.657959	126.667747
2449.947266	52.769764
2449.236572	109.040016
2448.525879	87.921394
2447.814697	101.972458
2447.103760	98.440369
2446.392578	108.970070
2445.681152	133.554779
2444.969727	84.336853
2444.258301	73.782906
2443.546631	80.796883
2442.834717	70.246880
2442.122803	59.700268
2441.410889	91.291641
2440.698730	105.319603
2439.986572	133.383408
2439.274170	73.700050
2438.561768	108.777855
2437.849121	84.201591
2437.136475	87.695908
2436.423584	133.276382
2435.710693	80.654327
2434.997803	108.690552
2434.284424	77.122849
2433.571289	87.625526
2432.857910	133.169403
2432.144287	98.109062
2431.430908	98.093307
2430.717041	98.077553
2430.003174	105.066208
2429.289307	77.036179
2428.575195	66.520554
2427.861084	84.012459
2427.146729	83.998962
2426.432373	83.985466
2425.717773	90.969635
2425.003174	73.463669
2424.288330	87.442688
2423.573486	118.902946
2422.858643	80.421417
2422.143555	94.392578
2421.428223	73.404648
2420.712891	94.362228
2419.997559	83.864052
2419.281982	87.344345
2418.566162	101.303146
2417.850586	90.808907
2417.134521	101.270569
2416.418457	108.237343
2415.702393	87.274139
2414.986084	80.279297
2414.269775	115.164810
2413.553223	97.699883
2412.836670	73.263123
2412.120117	83.715813
2411.403076	73.239555
2410.686279	97.637024
2409.969238	76.702461
2409.251953	108.063354
2408.534668	128.958084
2407.817383	128.937332
2407.099854	76.653107
2406.382080	107.993805
2405.664307	94.043983
2404.946533	114.924149
2404.228516	107.941666
2403.510498	107.924294
2402.792236	100.945183
2402.073975	87.007698
2401.355469	93.953186
2400.636963	97.417244
2399.918213	93.922928
2399.199463	128.688477
2398.480469	100.847694
2397.761475	111.262299
2397.042480	93.862442
2396.323242	76.468193
2395.603760	90.356941
2394.884277	128.564163
2394.164795	100.750275
2393.445068	104.207626
2392.725098	111.136894
2392.005127	107.646523
2391.285156	83.325813
2390.564941	90.255081
2389.844727	90.240540
2389.124268	104.106918
2388.403809	90.211456
2387.683105	121.418922
2386.962402	55.496845
2386.241455	100.571823
2385.520508	93.620735
2384.799316	107.473145
2384.078125	90.124237
2383.356689	90.109703
2382.635254	83.164780
2381.913818	90.080650
2381.192139	107.386528
2380.470215	114.296257
2379.748291	83.111145
2379.026367	107.334579
2378.304199	103.855415
2377.581787	114.222534
2376.859375	96.900452
2376.136963	100.344994
2375.414307	110.707649
2374.691650	62.263004
2373.968750	127.964409
2373.245850	79.532608
2372.522705	107.178825
2371.799316	127.902473
2371.076172	100.231705
2370.352783	107.126945
2369.629150	110.564804
2368.905518	86.364807
2368.181641	117.437180
2367.457764	113.964745
2366.733643	103.587585
2366.009521	110.475586
2365.285400	113.909546
2364.561035	96.634918
2363.836426	72.464485
2363.111816	93.153580
2362.387207	89.688957
2361.662354	106.919563
2360.937256	127.593063
2360.212158	106.885025
2359.487061	86.183678
2358.761719	103.403709
2358.036377	79.263367
2357.310791	113.707329
2356.584961	89.573112
2355.859375	110.226021
2355.133301	110.208206
2354.407471	75.755898
2353.681152	96.401016
2352.955078	117.039459
2352.228516	110.136978
2351.502197	106.677948
2350.775635	127.304718
2350.048828	106.643463
2349.322021	130.703110
2348.594971	120.364983
2347.867920	99.714859
2347.140869	68.757751
2346.413330	109.994606
2345.686035	120.287148
2344.958496	113.395256
2344.230713	113.376915
2343.502930	103.053253
2342.775146	96.167473
2342.047119	92.717926
2341.319092	120.170456
2340.590820	75.523499
2339.862305	85.808266
2339.133789	92.657936
2338.405273	144.111237
2337.676514	96.058617
2336.947754	106.333397
2336.218750	109.745743
2335.489746	120.014984
2334.760498	116.567116
2334.031250	106.264572
2333.301758	130.238724
2332.572266	109.656952
2331.842529	75.376953
2331.112793	123.324135
2330.382813	106.178589
2329.652832	95.887711
2328.922607	119.840225
2328.192383	95.856659
2327.462158	126.647209
2326.731689	123.204353
2326.000977	136.871552
2325.270264	116.321976
2324.539307	109.461777
2323.808350	92.343414
2323.077393	143.622040
2322.346191	105.989563
2321.614746	88.880074
2320.883301	75.194031
2320.151855	136.694260
2319.420166	82.003265
2318.688232	129.817459
2317.956299	119.549332
2317.224365	143.435944
2316.492188	102.437645
2315.760010	99.007004
2315.027588	102.404434
2314.295166	119.452469
2313.562500	102.371231
2312.829590	143.296494
2312.096924	126.216911
2311.363770	136.428589
2310.630615	112.535332
2309.897461	112.517082
2309.164063	115.907890
2308.430664	139.748611
2307.697021	129.502090
2306.963379	112.444099
2306.229492	136.273773
2305.495605	122.626495
2304.761719	139.635300
2304.027344	122.586708
2303.293213	95.329750
2302.558838	146.375504
2301.824219	112.316452
2301.089600	112.298225
2300.354736	98.670303
2299.619873	115.663651
2298.885010	98.638275
2298.149658	105.423798
2297.414551	95.206039
2296.679199	115.588562
2295.943604	129.166245
2295.208008	95.159676
2294.472412	122.328285
2293.736572	132.500793
2293.000488	105.304039
2292.264404	101.890587
2291.528320	84.895027
2290.791992	81.485992
2290.055420	74.683357
2289.318848	118.795135
2288.582275	111.988647
2287.845459	115.363495
2287.108398	115.344757
2286.371582	115.326012
2285.634277	128.872833
2284.896973	132.242737
2284.159668	111.879517
2283.422119	138.979233
2282.684570	125.399895
2281.946777	101.659065
2281.208740	91.478287
2280.470703	118.563690
2279.732666	108.383469
2278.994385	81.274384
2278.256104	125.277641
2277.517578	101.559952
2276.779053	67.695625
2276.040283	148.906158
2275.301514	108.277771
2274.562500	91.344513
2273.823486	115.007713
2273.084229	111.606979
2272.344971	135.259186
2271.605469	114.951607
2270.865967	125.074043
2270.126221	84.495743
2269.386475	114.895508
2268.646484	94.604439
2267.906494	111.479942
2267.166260	148.615738
2266.426025	138.460312
2265.685547	108.048996
2264.945068	114.783379
2264.204346	111.389259
2263.463623	111.371132
2262.722656	118.101669
2261.981689	104.587303
2261.240723	121.436455
2260.499268	77.571770
2259.758057	128.141190
2259.016602	114.633972
2258.274902	141.583603
2257.533203	124.708107
2256.791260	128.057739
2256.049316	107.820534
2255.307129	114.540657
2254.564941	127.995171
2253.822754	134.709808
2253.080322	127.953476
2252.337646	131.299286
2251.594971	117.813484
2250.852051	84.138779
2250.109131	144.695114
2249.366211	114.391449
2248.623047	114.372810
2247.879639	127.807602
2247.136230	104.247101
2246.392578	107.592377
2245.648926	107.574837
2244.905273	151.252457
2244.161377	107.539764
2243.417236	104.162163
2242.673096	80.628525
2241.928955	104.128197
2241.184570	110.828072
2240.439941	100.736366
2239.695313	104.077271
2238.950439	127.557777
2238.205566	97.330849
2237.460693	93.959290
2236.715576	124.140236
2235.970215	140.892960
2235.224854	120.745689
2234.479492	107.311989
2233.733887	103.941528
2232.988037	107.276970
2232.242188	110.611328
2231.496338	117.295898
2230.750244	103.873703
2230.003906	103.856750
2229.257568	113.888809
2228.511230	90.426353
2227.764648	113.851631
2227.017822	103.788956
2226.270996	137.246857
2225.523926	103.755066
2224.776855	143.894821
2224.029785	110.412880
2223.282471	127.121346
2222.534912	137.134842
2221.787354	117.047211
2221.039795	123.715416
2220.291992	100.293411
2219.543945	120.332436
2218.795898	130.338852
2218.047852	106.927223
2217.299561	103.568825
2216.551025	103.551903
2215.802490	93.515472
2215.053955	120.214531
2214.305176	96.823662
2213.556152	96.807838
2212.807129	103.467323
2212.058105	116.798859
2211.308838	110.106636
2210.559326	140.112808
2209.809814	113.406120
2209.060303	113.387581
2208.310547	140.044113
2207.560547	160.024246
2206.810547	109.998680
2206.060303	93.316956
2205.310059	116.627121
2204.559814	126.603020
2203.809326	129.913437
2203.058594	126.561615
2202.307861	119.880867
2201.557129	119.861252
2200.806152	113.183777
2200.054932	123.150436
2199.303711	133.113831
2198.552246	119.782837
2197.800781	86.495674
2197.049316	113.091217
2196.297607	106.421379
2195.545654	129.679825
2194.793701	116.360291
2194.041504	122.989311
2193.289307	112.998711
2192.537109	139.563797
2191.784668	119.606522
2191.031982	106.299507
2190.279297	109.603416
2189.526367	116.227020
2188.773438	132.809128
2188.020508	149.385803
2187.267090	96.255089
2186.513916	129.425293
2185.760498	136.040207
2185.006836	96.207802
2184.253174	135.995651
2183.499268	102.809135
2182.745361	116.055817
2181.991211	109.406128
2181.237061	139.221344
2180.482666	79.542023
2179.728271	122.607193
2178.973877	115.960770
2178.218994	162.318481
2177.464355	125.859009
2176.709229	145.707596
2175.954346	119.195763
2175.198975	129.107574
2174.443848	135.706238
2173.688232	112.518425
2172.932861	152.205856
2172.177002	112.481537
2171.421387	135.617264
2170.665283	125.673439
2169.909424	115.732872
2169.153076	99.183334
2168.396729	109.083778
2167.640381	138.811127
2166.883789	112.352478
2166.127197	112.334053
2165.370361	142.046234
2164.613525	148.628647
2163.856445	122.185730
2163.099365	135.372787
2162.342041	135.350571
2161.584473	125.426285
2160.826904	141.906448
2160.069336	95.688644
2159.311523	115.467346
2158.553711	135.239548
2157.795654	122.025414
2157.037354	151.682373
2156.279053	112.094650
2155.520752	145.039856
2154.762207	135.128586
2154.003662	135.106400
2153.244873	128.494736
2152.485840	115.296852
2151.726807	141.627167
2150.967773	144.897018
2150.208252	121.825203
2149.448975	105.345032
2148.689453	115.202209
2147.929688	121.765182
2147.169922	148.068466
2146.410156	131.594788
2145.650146	141.441162
2144.889893	131.551559
2144.129639	124.953438
2143.369141	115.069786
2142.608643	144.635391
2141.847900	124.891846
2141.087158	151.160019
2140.326416	118.279701
2139.565186	121.545265
2138.804199	128.094223
2138.042725	124.789238
2137.281494	114.918564
2136.519775	157.576691
2135.758301	154.268463
2134.996338	137.834259
2134.234619	131.249146
2133.472412	104.982040
2132.710449	141.046417
2131.947998	134.464005
2131.185547	121.325607
2130.423096	121.305649
2129.660400	127.841675
2128.897705	131.098099
2128.134766	150.738007
2127.371826	137.607712
2126.608643	167.067581
2125.845215	163.764801
2125.081787	170.287369
2124.318359	137.517151
2123.554688	111.305092
2122.790771	130.925613
2122.026855	130.904068
2121.262939	143.970764
2120.498779	150.490112
2119.734375	137.381393
2118.969971	160.251907
2118.205322	160.225525
2117.440674	156.929764
2116.676025	156.903931
2115.911133	143.804916
2115.145996	117.639191
2114.380859	166.628067
2113.615479	150.267227
2112.850098	143.710205
2112.084473	153.483337
2111.318848	133.867661
2110.552979	137.110138
2109.787109	137.087540
2109.020996	166.436020
2108.254883	169.671509
2107.488525	110.920776
2106.722168	140.259048
2105.955566	150.019836
2105.188965	153.255875
2104.422119	140.189697
2103.655029	182.542542
2102.887939	156.439240
2102.120850	133.603165
2101.353516	195.484589
2100.585938	136.816650
2099.818359	113.995071
2099.050781	185.618500
2098.282959	166.052322
2097.514893	146.492599
2096.746826	139.958725
2095.978760	130.172684
2095.210449	146.420120
2094.441895	152.902451
2093.673340	172.393478
2092.904541	204.886734
2092.135742	130.065353
2091.366699	165.805969
2090.597656	165.778610
2089.828369	198.251495
2089.059082	178.721848
2088.289551	155.949692
2087.520020	162.420776
2086.750244	133.163055
2085.980469	165.614502
2085.210449	165.587173
2084.440186	123.358307
2083.670166	136.320877
2082.899658	165.505173
2082.129150	171.967163
2081.358643	136.253372
2080.587891	175.153976
2079.816895	152.423645
2079.045898	152.398483
2078.274902	162.099258
2077.503662	162.072479
2076.732178	152.322968
2075.960693	178.220840
2075.188965	132.833588
2074.417236	161.965408
2073.645264	204.042694
2072.873291	161.911896
2072.101074	200.737564
2071.328857	126.249542
2070.556396	132.701935
2069.783936	181.221466
2069.011230	168.249268
2068.238525	152.046310
2067.465576	210.242065
2066.692627	190.803558
2065.919434	171.371460
2065.145996	161.644455
2064.372559	155.153030
2063.599121	171.286469
2062.825439	168.026855
2062.051514	187.383575
2061.277588	187.352585
2060.503662	180.862228
2059.729248	161.457428
2058.955078	161.430725
2058.180664	184.000580
2057.406006	171.059952
2056.631348	206.528778
2055.856445	154.870956
2055.081543	138.715607
2054.306396	167.721344
2053.531250	180.593094
2052.755859	196.684921
2051.980225	186.980942
2051.204590	164.387070
2050.428955	186.919052
2049.653076	202.999161
2048.877197	193.300522
2048.101074	154.614807
2047.324707	170.692261
2046.548340	189.984451
2045.771851	177.074814
2044.995239	186.702515
2044.218506	180.234650
2043.441528	209.166290
2042.664551	173.740128
2041.887329	189.795746
2041.110107	209.062363
2040.332642	173.653809
2039.555176	167.194473
2038.777466	173.596268
2037.999634	154.282227
2037.221802	179.966110
2036.443726	170.296844
2035.665527	189.544312
2034.887207	215.209564
2034.108765	163.789078
2033.330200	218.349243
2032.551514	202.260620
2031.772705	208.647003
2030.993774	182.937042
2030.214600	205.368927
2029.435425	205.334885
2028.656128	198.885178
2027.876587	169.986557
2027.097046	205.232758
2026.317261	205.198715
2025.537476	163.490601
2024.757446	201.925491
2023.977295	201.891998
2023.197021	198.654404
2022.416626	214.639297
2021.636230	224.212814
2020.855591	185.745499
2020.074707	201.724579
2019.293823	211.295441
2018.512817	233.666779
2017.731689	185.622253
2016.950439	182.391586
2016.168945	172.763351
2015.387451	188.728622
2014.605713	236.671188
2013.823975	239.829620
2013.041992	198.226242
2012.260010	210.979996
2011.477783	220.533371
2010.695435	220.496750
2009.912964	220.460144
2009.130371	217.228989
2008.347656	207.610870
2007.564819	213.963348
2006.781860	217.120773
2005.998779	236.239227
2005.215576	236.199982
2004.432129	223.395309
2003.648682	252.075668
2002.864990	223.321075
2002.081299	274.320313
2001.297363	239.193069
2000.513428	229.587189
1999.729248	248.678116
1998.944946	239.073837
1998.160522	226.285614
1997.375977	264.487091
1996.591309	229.396454
1995.806519	245.285980
1995.021606	248.430206
1994.236572	226.097595
1993.451416	267.451263
1992.666016	206.921921
1991.880615	225.984818
1991.094971	203.670746
1990.309326	203.636871
1989.523438	209.965607
1988.737549	219.472977
1987.951416	241.698135
1987.165161	251.197067
1986.378784	279.767883
1985.592285	251.113480
1984.805664	295.565430
1984.018921	231.964371
1983.232056	301.821198
1982.444946	250.946381
1981.657837	257.256653
1980.870605	269.915741
1980.083130	253.996063
1979.295654	247.604935
1978.507935	279.302643
1977.720093	282.429535
1976.932129	266.518311
1976.144165	263.301636
1975.355957	269.601349
1974.567627	253.700195
1973.779053	259.999390
1972.990479	253.615707
1972.201782	259.912811
1971.412964	259.869507
1970.623901	294.680969
1969.834839	291.463776
1969.045532	285.080109
1968.256226	272.364502
1967.466675	243.820618
1966.677002	259.609863
1965.887207	291.221069
1965.097290	278.512848
1964.307251	275.302063
1963.517090	272.092316
1962.726807	313.170319
1961.936401	294.141266
1961.145874	297.254517
1960.355103	303.528473
1959.564331	300.316650
1958.773315	328.712891
1957.982178	287.575806
1957.191040	284.368225
1956.399658	296.957275
1955.608154	290.590576
1954.816528	334.755035
1954.024780	277.863495
1953.232910	331.486359
1952.440918	303.022705
1951.648682	271.412537
1950.856445	328.165070
1950.063965	324.955414
1949.271484	340.673096
1948.478760	312.231567
1947.685913	359.479370
1946.893066	264.835327
1946.099976	321.532104
1945.306763	315.174927
1944.513428	356.088226
1943.719971	311.919037
1942.926270	315.017120
1942.132568	337.012054
1941.338745	355.850494
1940.544678	308.562195
1939.750610	324.251007
1938.956299	339.934570
1938.161865	302.113617
1937.367310	330.381561
1936.572632	327.180420
1935.777832	352.289307
1934.982910	330.216064
1934.187866	377.326721
1933.392700	320.674133
1932.597290	374.057343
1931.801880	311.138550
1931.006226	336.224884
1930.210571	320.459869
1929.414673	358.101196
1928.618652	351.759918
1927.822510	370.542267
1927.026245	389.318298
1926.229858	389.253235
1925.433350	360.940643
1924.636719	354.604126
1923.839844	367.095093
1923.042969	379.581879
1922.245850	351.289764
1921.448730	395.134918
1920.651367	338.630432
1919.853882	363.653351
1919.056274	366.726929
1918.258545	360.397827
1917.460693	350.937408
1916.662720	341.480194
1915.864624	404.069489
1915.066284	388.342896
1914.267944	341.308838
1913.469360	350.643982
1912.670776	397.538696
1911.871948	403.731567
1911.072998	347.338776
1910.273926	372.309906
1909.474731	369.119446
1908.675415	362.802460
1907.875977	390.885468
1907.076294	365.807556
1906.276611	415.762909
1905.476807	384.438171
1904.676758	371.873840
1903.876587	334.317963
1903.076294	409.236633
1902.275879	406.044678
1901.475342	380.993500
1900.674683	415.275818
1899.873901	377.744019
1899.072998	368.316772
1898.271851	405.704742
1897.470703	374.433960
1896.669312	374.371216
1895.867920	421.097046
1895.066284	414.789063
1894.264526	420.955933
1893.462646	377.238037
1892.660645	383.409088
1891.858521	414.511078
1891.056152	436.254333
1890.253784	386.331909
1889.451172	376.921967
1888.648560	389.316925
1887.845703	420.391785
1887.042725	442.115753
1886.239624	382.895203
1885.436401	404.618134
1884.633057	404.550293
1883.829590	441.819275
1883.025879	388.860199
1882.222168	395.015686
1881.418213	401.169098
1880.614258	404.211121
1879.810059	394.816925
1879.005737	404.075500
1878.201294	397.792206
1877.396729	397.725464
1876.592041	413.192261
1875.787231	388.273438
1874.982178	437.898926
1874.177124	431.615143
1873.371826	375.659485
1872.566406	478.031799
1871.760986	403.465607
1870.955322	418.913177
1870.149536	406.432678
1869.343506	431.180603
1868.537476	409.397705
1867.731323	409.328979
1866.924927	424.762512
1866.118530	452.590607
1865.311890	381.228058
1864.505127	449.339691
1863.698242	396.591858
1862.891235	458.482300
1862.084106	427.431946
1861.276855	418.069702
1860.469482	390.132843
1859.661865	436.503876
1858.854126	436.430511
1858.046387	445.641388
1857.238403	464.131744
1856.430298	442.397919
1855.622070	448.509888
1854.813721	414.415344
1854.005249	439.082733
1853.196533	432.825684
1852.387817	404.933105
1851.578857	448.133026
1850.769775	432.607422
1849.960693	420.176544
1849.151367	426.283905
1848.341919	413.858246
1847.532227	429.228516
1846.722534	413.719055
1845.912720	422.910248
1845.102661	484.567474
1844.292603	422.767975
1843.482300	453.550659
1842.671875	475.068359
1841.861328	434.891998
1841.050659	468.740845
1840.239868	419.329132
1839.428833	410.010223
1838.617798	465.421967
1837.806519	465.343658
1836.995117	400.559540
1836.183716	428.218506
1835.372070	462.028503
1834.560303	458.871033
1833.748291	434.160553
1832.936279	400.222473
1832.124146	427.858124
1831.311768	486.260437
1830.499390	476.947327
1829.686768	424.565460
1828.874023	479.862732
1828.061157	485.932953
1827.248169	482.776093
1826.434937	439.651917
1825.621704	442.651794
1824.808228	414.916168
1823.994751	439.429718
1823.181030	436.283264
1822.367188	414.706451
1821.553223	479.135590
1820.739136	475.983978
1819.924927	466.692688
1819.110474	466.614044
1818.296021	417.426392
1817.481323	494.075867
1816.666626	481.719482
1815.851685	454.028412
1815.036621	432.481171
1814.221436	463.075500
1813.406006	432.335327
1812.590576	453.722260
1811.774902	447.515381
1810.959229	456.633881
1810.143311	462.685150
1809.327271	425.843628
1808.511108	441.087311
1807.694824	392.011475
1806.878418	401.131531
1806.061768	502.095215
1805.245117	508.132568
1804.428223	452.957397
1803.611206	459.000977
1802.794067	406.912170
1801.976807	477.199890
1801.159424	471.002441
1800.341919	480.096741
1799.524170	476.958282
1798.706421	476.877747
1797.888428	467.628082
1797.070313	449.213867
1796.252075	498.023773
1795.433716	476.555756
1794.615234	418.443024
1793.796509	464.179565
1792.977783	464.101166
1792.158813	460.969971
1791.339844	460.892120
1790.520630	399.779266
1789.701294	430.224060
1788.881714	485.064301
1788.062134	414.827667
1787.242432	430.006012
1786.422485	509.211853
1785.602417	469.493256
1784.782349	472.462036
1783.962036	502.858459
1783.141479	447.925446
1782.320923	478.315704
1781.500244	438.635773
1780.679321	444.652740
1779.858398	453.712738
1779.037231	484.081390
1778.215942	483.999512
1777.394531	477.830658
1776.572998	492.964813
1775.751221	483.753998
1774.929443	489.756104
1774.107422	480.548920
1773.285278	483.508575
1772.463013	401.335449
1771.640625	492.464722
1770.818115	492.381378
1769.995483	516.609070
1769.172607	464.869507
1768.349731	467.828705
1767.526611	501.160187
1766.703369	519.296326
1765.880005	522.244690
1765.056519	488.762604
1764.232910	494.750427
1763.409058	494.666656
1762.585083	436.932159
1761.761108	515.735352
1760.936890	527.780884
1760.112549	488.266296
1759.288086	476.054840
1758.463379	475.974213
1757.638672	472.862427
1756.813721	472.782349
1755.988647	515.124268
1755.163574	533.214783
1754.338257	524.037109
1753.512695	563.320129
1752.687134	481.466278
1751.861328	472.301971
1751.035522	547.898560
1750.209473	466.088806
1749.383301	517.452454
1748.557007	547.619995
1747.730591	490.051971
1746.903931	514.164917
1746.077271	486.861847
1745.250366	492.826263
1744.423340	544.133057
1743.596313	544.040771
1742.768921	507.685303
1741.941528	498.534943
1741.114014	525.638611
1740.286255	561.794250
1739.458374	546.599548
1738.630493	564.623108
1737.802368	549.432983
1736.973999	516.137939
1736.145630	534.157410
1735.317139	552.170715
1734.488403	473.639862
1733.659546	515.787720
1732.830566	542.842346
1732.001465	500.536316
1731.172241	488.392273
1730.342896	500.366425
1729.513306	533.432678
1728.683594	539.368591
1727.853882	581.455139
1727.023926	521.112244
1726.193726	539.093933
1725.363525	578.147827
1724.533203	514.825500
1723.702637	529.788879
1722.871948	595.911255
1722.041138	532.618103
1721.210205	529.518982
1720.379150	547.477783
1719.547974	553.399963
1718.716553	520.227905
1717.885010	550.205383
1717.053467	544.099731
1716.221558	541.001709
1715.389648	601.010925
1714.557617	576.872437
1713.725342	543.730042
1712.893066	534.627014
1712.060547	561.563293
1711.227905	546.455322
1710.395142	549.364441
1709.562256	564.278442
1708.729126	594.192200
1707.895874	552.084717
1707.062622	554.990784
1706.229126	545.898132
1705.395508	542.806335
1704.561646	563.703003
1703.727783	632.559021
1702.893677	593.485229
1702.059570	569.409180
1701.225220	557.326782
1700.390747	590.186584
1699.556030	563.127930
1698.721313	592.980591
1697.886353	571.919312
1697.051392	631.698669
1696.216187	547.778076
1695.380859	589.584290
1694.545410	625.391602
1693.709717	622.293335
1692.874023	610.222290
1692.038086	604.136841
1691.202026	526.287048
1690.365845	618.879944
1689.529541	541.054077
1688.692993	627.635437
1687.856445	618.563843
1687.019653	675.225220
1686.182739	615.365967
1685.345703	594.354248
1684.508545	591.266785
1683.671143	588.180420
1682.833740	629.872681
1681.996094	629.765381
1681.158325	635.626404
1680.320435	587.779663
1679.482422	608.561523
1678.644287	551.787720
1677.805908	614.318359
1676.967407	599.305603
1676.128784	614.109009
1675.290039	548.431030
1674.451172	607.939453
1673.612183	578.039978
1672.772949	643.481140
1671.933594	622.521423
1671.094116	619.437256
1670.254517	571.690735
1669.414795	601.363708
1668.574829	574.472290
1667.734863	595.206543
1666.894653	630.811340
1666.054321	666.403931
1665.213867	577.054932
1664.373169	582.904541
1663.532471	621.460510
1662.691528	645.138367
1661.850464	621.248474
1661.009277	609.254578
1660.167969	621.036438
1659.326538	626.872375
1658.484863	659.440369
1657.643066	656.357849
1656.801147	608.734802
1655.959106	617.537659
1655.116943	605.558533
1654.274658	652.941833
1653.432129	620.188843
1652.589478	631.950562
1651.746704	581.413879
1650.903809	605.041748
1650.060791	643.488403
1649.217529	667.097534
1648.374146	622.518005
1647.530640	666.869629
1646.687012	675.645813
1645.843262	592.570496
1644.999390	595.431580
1644.155273	616.062744
1643.311035	624.841492
1642.466675	666.186279
1641.622192	692.715332
1640.777588	683.717529
1639.932739	624.414429
1639.087769	668.689758
1638.242798	650.825684
1637.397461	674.376770
1636.552124	677.218750
1635.706665	635.708008
1634.860962	676.987183
1634.015137	617.756042
1633.169189	664.934631
1632.323120	626.408997
1631.476929	655.844421
1630.630493	623.241028
1629.783936	679.246033
1628.937256	643.696960
1628.090454	658.348022
1627.243530	640.525024
1626.396484	625.659302
1625.549194	663.911621
1624.701782	678.549072
1623.854248	660.734680
1623.006592	595.739136
1622.158691	666.405945
1621.310791	660.395447
1620.462646	639.648621
1619.614380	627.750366
1618.765991	615.856201
1617.917358	659.943359
1617.068726	671.613037
1616.219849	659.717407
1615.370850	633.102478
1614.521729	683.044739
1613.672363	656.434875
1612.822998	662.208740
1611.973389	644.439392
1611.123657	617.849731
1610.273804	697.168091
1609.423828	711.754333
1608.573608	714.572998
1607.723389	646.827698
1606.872925	661.414978
1606.022339	696.571045
1605.171509	714.083374
1604.320679	702.208496
1603.469604	652.148804
1602.618408	719.590454
1601.767090	681.291260
1600.915649	651.813477
1600.064087	654.637329
1599.212280	678.005798
1598.360352	654.412903
1597.508301	689.509644
1596.656128	689.391418
1595.803833	695.139343
1594.951294	700.885254
1594.098633	691.968811
1593.245850	674.260742
1592.392944	691.731445
1591.539795	653.515442
1590.686646	697.354248
1589.833252	679.657227
1588.979736	679.540588
1588.126099	644.281372
1587.272217	688.091553
1586.418335	699.683655
1585.564209	711.271729
1584.709961	658.471863
1583.855591	693.471313
1583.000977	693.352234
1582.146362	693.233215
1581.291504	728.208557
1580.436523	713.463379
1579.581421	631.482117
1578.726074	689.834167
1577.870605	654.645386
1577.015137	672.065125
1576.159424	671.949646
1575.303467	633.861023
1574.447510	665.877808
1573.591309	703.723572
1572.734985	671.488037
1571.878540	685.967712
1571.021973	682.931335
1570.165161	682.813965
1569.308350	665.191589
1568.451294	673.828308
1567.594116	723.293030
1566.736694	702.756714
1565.879272	702.635864
1565.021606	772.475098
1564.163818	681.992798
1563.305908	673.133545
1562.447876	687.585327
1561.589600	693.293091
1560.731201	728.123779
1559.872681	687.230652
1559.014038	704.581421
1558.155273	695.727234
1557.296265	756.727905
1556.437134	689.667908
1555.577881	724.463135
1554.718506	706.884583
1553.859009	692.220520
1552.999268	724.089294
1552.139404	732.687134
1551.279419	683.142273
1550.419312	703.370117
1549.558960	688.719116
1548.698608	743.804810
1547.838013	708.816895
1546.977173	685.458984
1546.116333	723.092834
1545.255249	743.292725
1544.394165	725.746826
1543.532837	699.499451
1542.671265	728.398865
1541.809692	757.288330
1540.947876	693.336121
1540.085938	733.823547
1539.223877	759.797058
1538.361694	649.485596
1537.499268	776.929260
1536.636841	765.201416
1535.774170	741.885620
1534.911377	762.040222
1534.048340	747.423950
1533.185303	784.949585
1532.322021	735.582397
1531.458618	732.560120
1530.594971	744.013855
1529.731323	740.991089
1528.867432	711.923340
1528.003418	740.735596
1527.139282	749.286926
1526.275024	775.190186
1525.410522	749.028503
1524.545898	809.620911
1523.681152	705.405151
1522.816284	728.407532
1521.951172	823.652100
1521.086060	759.940857
1520.220703	736.697693
1519.355225	733.682068
1518.489502	736.443481
1517.623779	736.316406
1516.757813	753.511475
1515.891724	741.835388
1515.025513	779.225647
1514.159058	758.892456
1513.292480	744.336365
1512.425781	695.170959
1511.558960	770.035706
1510.692017	781.436890
1509.824829	801.483215
1508.957520	760.989319
1508.090088	766.622009
1507.222534	775.134216
1506.354736	775.000366
1505.486938	757.583252
1504.618896	783.372864
1503.750610	777.478455
1502.882324	794.618469
1502.013794	826.145264
1501.145142	808.734192
1500.276367	779.818909
1499.407471	848.733643
1498.538330	730.647766
1497.669067	785.166870
1496.799683	799.408997
1495.930176	770.520081
1495.060547	816.380188
1494.190674	839.231689
1493.320679	836.213074
1492.450562	784.352905
1491.580200	841.669128
1490.709717	798.442200
1489.839233	827.020081
1488.968384	835.490417
1488.097534	820.992920
1487.226440	832.331360
1486.355347	849.405029
1485.483887	806.221375
1484.612427	840.505371
1483.740845	866.173096
1482.869019	777.126770
1481.997070	854.404846
1481.124878	851.390381
1480.252686	963.022461
1479.380249	853.961426
1478.507690	879.599915
1477.635010	873.718384
1476.762207	933.714417
1475.889160	942.143799
1475.015991	967.749146
1474.142700	993.345642
1473.269165	996.035828
1472.395630	1027.341797
1471.521851	1067.220459
1470.647949	1052.732178
1469.773804	1207.000122
1468.899658	1209.650757
1468.025269	1266.625244
1467.150757	1357.884399
1466.276001	1469.119385
1465.401245	1583.173340
1464.526245	1722.902832
1463.651123	1808.306030
1462.775879	1907.960693
1461.900391	2047.561035
1461.024780	2238.507324
1460.149048	2437.951416
1459.273193	2514.593506
1458.397217	2482.766357
1457.520996	2496.602295
1456.644653	2444.819824
1455.768188	2307.486816
1454.891479	2150.239258
1454.014648	2147.015137
1453.137695	2049.716064
1452.260620	1995.204956
1451.383423	1878.017212
1450.505981	1800.760254
1449.628418	1697.890869
1448.750732	1691.899658
1447.872803	1554.910767
1446.994873	1469.221191
1446.116699	1494.587769
1445.238403	1380.474854
1444.359863	1360.314331
1443.481201	1351.542236
1442.602417	1277.341431
1441.723511	1299.874634
1440.844482	1313.868408
1439.965210	1313.640381
1439.085815	1353.212646
1438.206299	1347.292969
1437.326538	1403.896973
1436.446777	1460.481323
1435.566772	1522.727783
1434.686646	1624.718384
1433.806274	1604.556763
1432.925781	1558.847168
1432.045166	1362.689819
1431.164429	1325.553345
1430.283569	1237.346680
1429.402466	1146.333008
1428.521240	1072.372803
1427.639893	1086.368774
1426.758301	1032.296509
1425.876709	1054.801025
1424.994873	1012.092773
1424.112793	986.406372
1423.230713	1020.243042
1422.348389	986.063538
1421.465942	937.730713
1420.583374	974.390625
1419.700562	979.885315
1418.817627	1013.693481
1417.934570	956.896179
1417.051392	973.713196
1416.167969	993.354309
1415.284546	970.544983
1414.400757	939.256226
1413.516968	1046.579468
1412.633057	992.663452
1411.748901	981.180359
1410.864624	972.528320
1409.980103	966.705872
1409.095459	1034.364868
1408.210815	997.451538
1407.325806	988.802551
1406.440796	1042.298950
1405.555542	965.865051
1404.670166	1044.759888
1403.784668	945.766602
1402.899048	979.474243
1402.013184	984.948181
1401.127197	953.737915
1400.241089	1026.923462
1399.354736	995.716736
1398.468262	1035.026611
1397.581665	978.451477
1396.694946	1000.835144
1395.807983	1000.660828
1394.920898	997.668274
1394.033691	969.316650
1393.146362	1025.493652
1392.258789	966.162170
1391.371094	1047.666748
1390.483276	977.088806
1389.595337	1027.594482
1388.707153	1066.823120
1387.818848	1015.978943
1386.930420	1060.823608
1386.041748	962.170898
1385.152954	1133.588501
1384.264038	1032.145142
1383.375000	1051.648438
1382.485718	1012.105469
1381.596313	1073.769043
1380.706787	1149.463257
1379.817139	1126.783325
1378.927246	1109.730225
1378.037231	1126.390381
1377.147095	1204.830933
1376.256714	1184.964966
1375.366333	1184.758301
1374.475586	1207.007568
1373.584839	1240.474976
1372.693970	1181.332275
1371.802856	1231.625610
1370.911499	1147.259644
1370.020142	1191.932129
1369.128540	1191.724121
1368.236816	1177.498291
1367.344971	1185.702026
1366.453003	1207.915771
1365.560791	1221.715454
1364.668457	1299.947266
1363.775879	1305.322510
1362.883301	1282.689575
1361.990479	1363.669678
1361.097534	1478.217407
1360.204346	1494.754272
1359.311035	1556.064087
1358.417603	1580.975952
1357.524048	1485.578003
1356.630249	1451.751953
1355.736450	1384.377075
1354.842285	1409.301270
1353.948120	1319.591309
1353.053711	1260.660278
1352.159180	1131.880737
1351.264526	1112.122925
1350.369751	1106.341064
1349.474731	1131.287354
1348.579590	1108.747070
1347.684204	1097.384033
1346.788818	1083.233032
1345.893188	1057.921509
1344.997314	1040.991333
1344.101440	1079.874512
1343.205322	1068.526123
1342.309082	1051.602905
1341.412720	1059.785767
1340.516113	1109.791992
1339.619385	1151.416870
1338.722534	1142.853149
1337.825439	1181.670654
1336.928223	1278.990356
1336.030884	1248.120728
1335.133423	1281.328369
1334.235718	1331.234253
1333.337891	1517.564209
1332.439941	1695.476929
1331.541870	1798.171387
1330.643555	2067.813477
1329.745117	2206.580078
1328.846436	2286.874268
1327.947754	2150.175537
1327.048828	2091.395752
1326.149780	1949.217773
1325.250488	1762.607300
1324.351074	1570.502686
1323.451538	1461.840210
1322.551880	1358.773193
1321.651978	1197.400146
1320.751953	1119.414673
1319.851807	1055.342529
1318.951416	1005.176514
1318.050903	1035.539063
1317.150269	977.066772
1316.249512	987.996643
1315.348511	865.732971
1314.447388	887.775635
1313.546021	848.786682
1312.644653	870.824524
1311.743042	837.397766
1310.841309	737.446228
1309.939331	889.769714
1309.037231	787.072571
1308.135010	809.101746
1307.232666	792.337402
1306.330078	861.446594
1305.427368	872.373230
1304.524536	827.916992
1303.621460	847.151062
1302.718262	869.146301
1301.814941	802.573914
1300.911499	824.569214
1300.007813	777.393616
1299.104004	791.087463
1298.199951	763.293091
1297.295898	804.635193
1296.391602	765.789795
1295.487061	785.004089
1294.582520	699.194275
1293.677734	806.833557
1292.772827	773.540222
1291.867676	718.161255
1290.962402	712.511841
1290.057007	704.103149
1289.151489	643.244019
1288.245728	670.733276
1287.339844	712.011475
1286.433838	651.182983
1285.527588	645.551086
1284.621216	628.888000
1283.714722	626.019714
1282.808105	601.093933
1281.901245	625.799805
1280.994263	631.202515
1280.087036	592.509583
1279.179810	570.362488
1278.272217	575.772034
1277.364624	616.986938
1276.456787	553.538269
1275.548828	580.975342
1274.640747	583.626221
1273.732544	597.285950
1272.824097	566.909119
1271.915405	539.294373
1271.006714	558.456726
1270.097778	585.863831
1269.188721	563.760437
1268.279541	571.909973
1267.370117	580.056641
1266.460571	588.200378
1265.550781	546.875183
1264.640991	541.283691
1263.730957	585.142883
1262.820679	505.386597
1261.910400	510.790039
1260.999878	587.579773
1260.089233	529.826843
1259.178345	598.351929
1258.267334	606.479370
1257.356201	617.347656
1256.444824	661.131531
1255.533447	677.471985
1254.621704	691.064331
1253.709961	682.717102
1252.797974	660.666077
1251.885864	619.436707
1250.973633	575.481445
1250.061157	575.380066
1249.148560	624.588318
1248.235840	564.221619
1247.322876	591.506836
1246.409790	550.333008
1245.496582	542.023560
1244.583130	558.350159
1243.669556	558.251770
1242.755859	533.528992
1241.841919	506.079315
1240.927856	492.314728
1240.013672	522.308533
1239.099365	500.343536
1238.184814	524.858093
1237.270142	489.234558
1236.355225	532.871033
1235.440186	499.990814
1234.525024	510.829498
1233.609741	527.126770
1232.694214	529.764587
1231.778564	521.480347
1230.862671	521.388367
1229.946777	540.401550
1229.030640	564.865601
1228.114258	586.592651
1227.197876	578.305603
1226.281128	608.204651
1225.364380	569.920837
1224.447388	711.593750
1223.530273	689.660706
1222.613037	790.380676
1221.695557	787.516235
1220.777954	798.275146
1219.860229	956.126709
1218.942261	950.510864
1218.024170	923.112610
1217.105957	912.059387
1216.187500	890.121643
1215.268921	805.594788
1214.350220	729.261047
1213.431274	729.132263
1212.512207	671.880066
1211.593018	617.367737
1210.673706	622.697144
1209.754150	587.243774
1208.834351	592.576477
1207.914551	562.576416
1206.994507	532.586914
1206.074219	535.209656
1205.153931	516.100830
1204.233398	502.430389
1203.312744	496.910889
1202.391846	502.252808
1201.470825	561.880859
1200.549683	466.794312
1199.628296	510.126831
1198.706787	507.323669
1197.785156	485.534119
1196.863281	482.736267
1195.941284	447.401123
1195.019165	439.188873
1194.096802	455.374573
1193.174438	425.483124
1192.251709	512.115173
1191.328979	447.005585
1190.406006	463.178375
1189.482788	492.886261
1188.559570	438.645325
1187.636108	449.396515
1186.712402	427.663177
1185.788696	476.299988
1184.864746	438.334900
1183.940552	432.846741
1183.016357	448.998993
1182.091919	454.328186
1181.167236	459.655457
1180.242554	459.574066
1179.317505	459.492706
1178.392456	470.221008
1177.467163	472.839691
1176.541748	502.472046
1175.616211	567.206665
1174.690430	596.811768
1173.764526	626.406372
1172.838501	674.887268
1171.912231	761.137939
1170.985840	839.262329
1170.059204	906.566467
1169.132446	1003.520752
1168.205566	1178.658203
1167.278564	1116.425659
1166.351318	1105.442993
1165.423828	1094.464111
1164.496338	1010.717468
1163.568604	1024.012207
1162.640747	972.639099
1161.712646	883.570801
1160.784424	899.574158
1159.856079	885.950378
1158.927490	888.485596
1157.998779	993.312256
1157.069946	950.073303
1156.140869	1052.160767
1155.211670	1140.759766
1154.282349	1237.397095
1153.352783	1457.718018
1152.423096	1562.331909
1151.493164	1543.234741
1150.563232	1537.584717
1149.632935	1410.994263
1148.702637	1252.203125
1147.772095	1171.381226
1146.841431	964.337708
1145.910522	819.138672
1144.979492	757.233093
1144.048340	649.708801
1143.116943	617.382202
1142.185425	534.074951
1141.253784	558.130005
1140.321899	544.616638
1139.389893	442.590118
1138.457764	466.648499
1137.525391	383.441833
1136.592896	407.502136
1135.660278	420.832062
1134.727417	418.077301
1133.794434	396.566986
1132.861206	396.496521
1131.927856	409.818817
1130.994385	358.862518
1130.060669	406.995575
1129.126831	396.214722
1128.192871	364.024506
1127.258667	388.045349
1126.324341	398.679169
1125.389893	422.685303
1124.455200	395.862671
1123.520386	369.049561
1122.585327	350.267365
1121.650146	363.571686
1120.714844	392.908325
1119.779297	347.408142
1118.843628	315.283600
1117.907837	333.927460
1116.971802	341.880890
1116.035645	293.751617
1115.099365	357.779205
1114.162842	379.071716
1113.226196	338.968597
1112.289307	341.576843
1111.352417	352.188416
1110.415161	320.114319
1109.477905	392.070221
1108.540405	352.000397
1107.602661	375.933472
1106.664917	370.535126
1105.726807	477.078979
1104.788696	418.369049
1103.850342	460.923309
1102.911865	458.177399
1101.973145	468.749176
1101.034302	458.014191
1100.095337	423.321442
1099.156128	415.260254
1098.216797	361.957245
1097.277344	377.858643
1096.337646	340.544281
1095.397827	359.103790
1094.457764	351.061127
1093.517700	364.293976
1092.577271	287.129456
1091.636841	305.685211
1090.696167	348.153259
1089.755249	324.176544
1088.814209	355.999268
1087.873047	302.811066
1086.931763	313.380127
1085.990234	292.081909
1085.048584	294.684662
1084.106689	313.212494
1083.164673	305.195038
1082.222412	310.447388
1081.280151	294.474487
1080.337524	323.598877
1079.394897	318.237213
1078.452026	283.710876
1077.509033	320.774689
1076.565796	288.910767
1075.622437	296.809448
1074.678955	288.807648
1073.735229	288.756104
1072.791382	291.353241
1071.847290	267.467499
1070.903076	293.896942
1069.958740	307.080719
1069.014160	293.791992
1068.069458	330.787781
1067.124512	285.749603
1066.179565	304.216064
1065.234253	322.675934
1064.288940	285.596527
1063.343384	338.424316
1062.397583	311.929199
1061.451660	330.374451
1060.505615	319.745331
1059.559448	324.972290
1058.613037	316.989502
1057.666382	314.291748
1056.719727	338.001282
1055.772827	369.622833
1054.825684	345.799561
1053.878418	335.180878
1052.931030	372.063416
1051.983398	377.273468
1051.035645	382.481598
1050.087769	400.874542
1049.139648	369.160553
1048.191406	437.640656
1047.242920	440.198303
1046.294312	511.276642
1045.345581	608.679260
1044.396606	616.473877
1043.447510	645.338013
1042.498291	624.154053
1041.548828	579.279846
1040.599121	581.808838
1039.649414	700.151367
1038.699341	610.549072
1037.749268	652.539063
1036.798950	694.514038
1035.848511	673.347656
1034.897827	744.231506
1033.947021	665.218628
1032.996094	588.862793
1032.044922	549.331665
1031.093506	504.558838
1030.142090	409.880646
1029.190430	404.553314
1028.238525	383.468872
1027.286499	399.156342
1026.334351	364.952606
1025.381958	378.012665
1024.429443	309.704895
1023.476807	341.139160
1022.523926	343.701721
1021.570923	348.886566
1020.617737	351.446777
1019.664368	338.272461
1018.710815	293.641296
1017.757080	309.316620
1016.803223	374.782593
1015.849121	351.131927
1014.894897	345.829163
1013.940491	322.192108
1012.985962	319.515381
1012.031189	340.406158
1011.076294	319.400787
1010.121216	376.930054
1009.165955	350.691437
1008.210510	363.711700
1007.254944	355.797974
1006.299133	421.126465
1005.343201	405.359558
1004.387085	457.581909
1003.430786	501.942657
1002.474365	556.742737
1001.517700	624.589844
1000.560913	747.282959
999.603943	854.257568
998.646790	940.298279
997.689514	895.734497
996.731995	900.795715
995.774353	783.159973
994.816528	689.057068
993.858521	587.159058
992.900330	566.180603
991.942017	495.645172
990.983459	425.135010
990.024780	396.373718
989.065918	365.015472
988.106873	367.556702
987.147705	385.734894
986.188293	380.453888
985.228760	390.807037
984.269043	377.712280
983.309143	346.391052
982.349060	359.348694
981.388794	377.508667
980.428406	437.310730
979.467834	432.026978
978.507019	497.001953
977.546082	587.969849
976.585022	691.910889
975.623718	814.019470
974.662292	949.085266
973.700623	1097.101196
972.738831	1117.698364
971.776855	1060.322998
970.814758	940.607605
969.852417	794.956177
968.889954	628.577759
967.927246	597.301147
966.964417	501.123383
966.001404	436.132538
965.038208	430.862946
964.074890	394.454102
963.111328	389.193878
962.147644	402.094604
961.183777	373.491638
960.219727	344.898926
959.255493	324.094757
958.291077	318.851837
957.326538	303.243469
956.361755	326.511108
955.396851	308.316071
954.431763	310.850952
953.466492	315.974884
952.501038	310.739014
951.535461	313.272064
950.569641	297.684265
949.603699	300.218750
948.637573	354.504791
947.671265	349.266602
946.704773	367.310516
945.738098	424.141357
944.771240	387.864258
943.804260	416.232605
942.837097	483.363129
941.869751	529.794556
940.902222	542.618530
939.934509	550.270996
938.966614	519.176208
937.998535	482.927582
937.030334	433.781860
936.061951	420.795776
935.093323	384.584442
934.124573	345.805511
933.155640	325.101746
932.186584	306.985138
931.217285	283.716583
930.247864	291.401733
929.278198	296.505798
928.308411	270.673828
927.338440	273.202362
926.368286	252.537735
925.397949	257.645050
924.427429	260.174530
923.456787	275.580688
922.485901	267.805786
921.514893	267.757446
920.543701	275.431488
919.572327	303.692017
918.600769	280.478424
917.629028	285.573212
916.657104	295.810730
915.685059	234.034027
914.712769	269.990509
913.740356	293.079590
912.767761	305.878693
911.794983	290.403748
910.822021	280.073364
909.848877	267.177673
908.875549	303.089142
907.902039	303.034363
906.928406	292.709106
905.954590	290.089020
904.980530	331.103729
904.006348	349.007507
903.031982	397.694000
902.057434	456.624084
901.082703	448.846985
900.107849	469.280853
899.132751	479.451630
898.157532	458.857330
897.182068	466.463287
896.206482	404.878418
895.230713	412.491364
894.254761	350.938446
893.278625	320.141388
892.302307	320.083466
891.325806	327.706177
890.349182	345.565063
889.372314	304.554077
888.395325	294.263702
887.418091	286.535400
886.440735	296.715088
885.463196	271.087128
884.485474	263.367157
883.507568	273.545471
882.529480	309.280457
881.551270	276.001984
880.572815	275.952026
879.594238	304.003174
878.615417	316.719055
877.636475	342.198914
876.657349	342.136932
875.677979	334.416565
874.698486	326.698975
873.718811	331.743530
872.739014	336.786224
871.758972	357.132782
870.778748	385.123413
869.798401	385.053619
868.817810	318.695221
867.837097	377.266754
866.856140	359.357910
865.875061	295.588379
864.893799	343.941345
863.912354	392.276764
862.930725	379.471680
861.948914	404.866150
860.966919	366.604736
859.984741	399.628510
859.002441	399.556030
858.019897	430.017334
857.037231	422.307281
856.054321	440.035553
855.071289	457.757416
854.088074	465.302246
853.104614	467.760010
852.121033	462.591705
851.137268	523.497742
850.153320	617.411987
849.169189	640.162903
848.184937	673.064941
847.200439	771.979614
846.215759	845.468933
845.230896	1002.701477
844.245911	1319.772339
843.260681	1682.404175
842.275330	2214.890137
841.289795	2392.052734
840.304016	2259.736816
839.318115	1868.825562
838.332031	1422.280518
837.345764	1242.051392
836.359314	1135.383545
835.372681	947.670288
834.385864	912.030212
833.398865	835.875793
832.411743	759.748962
831.424377	739.354614
830.436829	729.093933
829.449158	708.712463
828.461243	652.909180
827.473206	652.790466
826.484924	632.433899
825.496521	576.674866
824.507935	563.925903
823.519104	573.936768
822.530151	548.553467
821.541016	568.673157
820.551697	606.474365
819.562195	568.466309
818.572510	588.571350
817.582642	613.720215
816.592590	661.586182
815.602356	706.910034
814.611938	840.565002
813.621399	1032.217773
812.630615	1314.639526
811.639648	1579.298584
810.648560	2151.591797
809.657227	2511.835205
808.665771	2700.487549
807.674072	2556.298584
806.682251	2127.340576
805.690186	1655.696899
804.697998	1292.568970
803.705566	982.475830
802.713013	793.393616
801.720276	715.183350
800.727356	599.234619
799.734253	561.365417
798.740906	551.195679
797.747437	510.832550
796.753784	530.867126
795.759949	455.305420
794.765930	480.372864
793.771729	447.595734
792.777344	417.344635
791.782776	414.754913
790.788025	394.573639
789.793091	306.555450
788.798035	371.819153
787.802734	394.357849
786.807251	336.524292
785.811584	321.397430
784.815796	346.443420
783.819763	313.750214
782.823547	271.030731
781.827148	311.126648
780.830627	301.035400
779.833862	300.980469
778.836975	283.371552
777.839844	290.841614
776.842529	280.761353
775.845093	295.748138
774.847412	310.729462
773.849609	285.618500
772.851563	280.556427
771.853394	275.496185
770.854980	240.389145
769.856445	277.899200
768.857666	260.326477
767.858765	290.311127
766.859680	317.782593
765.860352	300.212158
764.860901	295.154724
763.861206	330.112762
762.861389	262.541718
761.861389	292.493042
760.861145	287.440643
759.860779	269.894928
758.860168	267.347046
757.859436	269.796295
756.858521	279.737610
755.857361	244.725677
754.856079	249.674438
753.854614	267.102814
752.852905	304.491455
751.851074	291.958923
750.848999	264.461426
749.846802	284.368774
748.844421	299.280823
747.841797	306.706726
746.839050	274.240417
745.836121	261.727051
744.832947	256.694824
743.829651	269.106476
742.826111	254.109634
741.822449	293.916168
740.818604	281.410614
739.814514	276.379303
738.810303	271.349823
737.805847	256.366211
736.801270	266.273438
735.796448	246.320038
734.791504	261.200714
733.786316	290.998932
732.781006	283.485504
731.775452	258.571014
730.769775	270.952698
729.763855	263.447021
728.757751	265.883667
727.751526	278.257172
726.745056	238.462448
725.738403	268.221130
724.731628	315.350372
723.724609	275.570709
722.717407	282.966705
721.710083	258.097778
720.702515	270.456757
719.694763	272.887970
718.686829	238.113129
717.678711	295.106964
716.670410	260.340790
715.661987	257.814056
714.653320	272.637970
713.644470	230.460754
712.635437	240.328964
711.626221	260.102203
710.616821	269.961334
709.607178	282.293121
708.597412	289.668732
707.587463	225.256577
706.577332	277.188019
705.567017	235.071701
704.556458	227.606613
703.545776	254.773697
702.534912	291.823120
701.523804	264.570709
700.512573	286.771667
699.501099	286.719025
698.489502	303.965240
697.477661	264.376526
696.465698	242.094788
695.453491	266.749359
694.441101	274.108734
693.428589	261.713409
692.415833	244.385574
691.402893	276.425842
690.389771	281.310333
689.376465	288.660217
688.362976	249.139542
687.349304	278.689056
686.335449	271.240417
685.321411	244.071518
684.307190	310.579407
683.292725	251.375214
682.278137	271.041107
681.263367	293.163300
680.248352	275.867676
679.233215	302.906158
678.217834	300.388275
677.202332	290.486053
676.186584	280.587463
675.170654	292.840088
674.154541	253.420029
673.138306	280.432709
672.121826	275.462189
671.105164	263.116364
670.088318	260.609375
669.071289	282.684601
668.054016	282.632599
667.036621	270.294464
666.019043	267.787964
665.001282	280.020294
663.983276	284.880493
662.965149	294.649719
661.946777	272.500824
660.928223	245.451065
659.909546	292.032990
658.890625	294.432861
657.871521	272.300232
656.852234	252.628479
655.832764	296.722504
654.813110	299.119659
653.793274	254.940292
652.773254	264.696930
651.752991	286.702209
650.732605	249.899460
649.711975	264.550690
648.691223	296.340149
647.670227	266.901855
646.649048	261.956299
645.627747	298.624115
644.606201	315.700104
643.584473	281.386200
642.562561	283.780731
641.540466	269.052826
640.518127	286.121613
639.495667	261.618530
638.473022	303.128204
637.450134	278.630981
636.427063	293.241699
635.403870	254.095947
634.380432	283.362427
633.356812	300.406464
632.333008	275.932281
631.309021	251.467102
630.284851	278.271454
629.260498	312.387512
628.235901	280.608887
627.211182	278.117462
626.186218	258.552734
625.161133	278.014832
624.135803	263.333862
623.110291	304.728302
622.084595	282.735687
621.058716	299.741974
620.032654	316.741974
619.006409	319.119507
617.979919	331.238464
616.953308	301.955780
615.926453	306.769379
614.899414	284.804657
613.872253	282.318298
612.844849	299.299438
611.817261	328.438721
610.789490	287.026733
609.761475	279.677765
608.733337	269.899963
607.705017	306.316315
606.676453	262.508331
605.647705	274.610718
604.618774	303.716766
603.589722	308.519196
602.560425	308.462189
601.530884	284.121277
600.501221	359.334839
599.471375	310.718628
598.441284	342.212677
597.411011	339.722809
596.380615	305.693970
595.349976	286.231903
594.319153	315.281891
593.288147	290.975616
592.256897	266.678284
591.225525	295.715759
590.193970	298.084503
589.162170	312.567352
588.130188	314.932068
587.098022	314.873779
586.065674	309.972198
585.033142	309.914825
584.000427	256.600708
582.967468	304.959473
581.934387	295.223541
580.901062	295.168884
579.867554	358.007446
578.833862	367.615234
577.799988	343.366425
576.765930	343.302826
575.731628	340.822052
574.697205	357.676056
573.662537	340.695801
572.627747	328.553528
571.592712	321.246490
570.557434	338.091553
569.522034	325.956421
568.486450	330.724121
567.450623	318.594849
566.414673	364.385651
565.378479	308.825928
564.342102	323.242218
563.305542	371.418457
562.268799	366.526886
561.231812	383.335327
560.194702	385.674713
559.157349	402.473328
558.119812	431.313568
557.082092	397.505798
556.044189	399.840729
555.006042	435.890045
553.967773	409.323547
552.929260	363.508179
551.890625	404.357910
550.851746	365.779724
549.812683	442.703827
548.773376	401.727264
547.733948	396.842499
546.694275	444.862030
545.654419	439.971039
544.614441	461.523254
543.574158	422.984436
542.533752	422.905914
541.493164	439.644379
540.452332	444.366699
539.411316	494.716461
538.370178	497.025665
537.328735	480.128845
536.287170	525.643433
535.245422	566.341553
534.203430	602.225952
533.161255	597.316345
532.118896	669.157776
531.076355	657.043579
530.033630	606.573486
528.990723	623.240295
527.947571	654.280701
526.904236	618.216248
525.860718	651.641724
524.817017	567.685242
523.773132	550.815735
522.729004	555.502136
521.684692	560.186707
520.640198	545.721436
519.595520	528.868469
518.550659	533.555359
517.505615	538.240479
516.460327	507.047791
515.414856	447.171234
514.369202	447.088013
513.323364	449.395233
512.277283	470.821198
511.231079	480.291626
510.184631	451.533447
509.138000	386.956635
508.091187	389.272797
507.044159	403.526733
505.996948	448.810059
504.949554	422.471222
503.901947	410.460571
502.854126	415.156067
501.806152	427.006287
500.757965	429.311829
499.709564	467.385834
