#Wave		#Intensity
3200.600830	8.419704
3200.007080	-8.419704
3199.413086	4.209216
3198.819092	16.834320
3198.224854	0.000000
3197.630615	12.621923
3197.036377	25.240030
3196.442139	25.236216
3195.847656	25.232399
3195.252930	-4.204764
3194.658447	12.612386
3194.063721	25.220957
3193.468750	12.608572
3192.873779	12.606665
3192.278809	29.411104
3191.683838	25.205706
3191.088623	16.801262
3190.493164	20.998402
3189.897949	8.398090
3189.302490	16.793640
3188.706787	25.186649
3188.111328	25.182840
3187.515381	12.589515
3186.919678	29.371092
3186.323730	29.366648
3185.727783	8.389201
3185.131592	16.775864
3184.535400	4.193331
3183.939209	0.000000
3183.342773	-12.576187
3182.746338	0.000000
3182.149902	-8.381587
3181.553223	16.760637
3180.956543	29.326677
3180.359619	20.944456
3179.762695	20.941286
3179.165771	8.375246
3178.568604	16.747957
3177.971436	4.186355
3177.374268	-4.185721
3176.776855	4.185088
3176.179443	29.291180
3175.581787	8.367641
3174.984131	29.282309
3174.386475	33.460430
3173.788574	46.001122
3173.190674	29.269009
3172.592773	37.625881
3171.994629	20.900103
3171.396484	16.717548
3170.798340	4.178754
3170.199951	45.959332
3169.601563	4.177488
3169.002930	33.414845
3168.404297	8.352446
3167.805664	-4.175590
3167.206787	33.399658
3166.607910	4.174325
3166.008789	16.694769
3165.409912	12.519178
3164.810547	29.206989
3164.211426	20.858974
3163.612061	25.026976
3163.012695	25.023182
3162.413086	16.679592
3161.813477	4.169266
3161.213623	25.011805
3160.614014	29.176016
3160.013916	8.334741
3159.414063	-4.166739
3158.813965	20.830534
3158.213867	4.165475
3157.613525	24.989061
3157.013184	33.313694
3156.412598	41.635803
3155.812256	8.325898
3155.211426	37.460857
3154.610840	29.131805
3154.010010	33.288441
3153.409180	20.802120
3152.808105	33.278343
3152.207031	24.954971
3151.605957	0.000000
3151.004639	37.421101
3150.403320	12.471807
3149.801758	24.939831
3149.200195	24.936047
3148.598633	29.087641
3147.996826	16.618986
3147.395020	20.770580
3146.793213	24.920914
3146.191162	8.305711
3145.589111	4.152225
3144.986816	8.303189
3144.384766	37.358681
3143.782227	-4.150334
3143.179932	12.449114
3142.577393	24.894447
3141.974609	12.445333
3141.371826	20.739075
3140.769043	20.735926
3140.166260	4.146555
3139.563232	24.875555
3138.960205	8.290592
3138.356934	24.868000
3137.753662	20.720186
3137.150391	20.717039
3136.546875	8.285557
3135.943359	8.284299
3135.339600	41.415199
3134.735840	20.704454
3134.132080	20.701309
3133.528076	24.837797
3132.924072	12.417012
3132.320068	8.276751
3131.715820	8.275493
3131.111572	24.822706
3130.507080	8.272978
3129.902588	28.951023
3129.298096	12.405696
3128.693604	12.403811
3128.088867	8.267950
3127.483887	28.933428
3126.878906	33.061749
3126.273926	28.924631
3125.668945	12.394386
3125.063721	45.439175
3124.458252	12.390618
3123.853027	28.907047
3123.247559	28.902651
3122.641846	12.384968
3122.036133	37.149254
3121.430420	12.381201
3120.824707	12.379318
3120.218750	16.503248
3119.612549	16.500738
3119.006592	8.249114
3118.400391	12.371789
3117.793945	12.369907
3117.187500	8.245350
3116.581055	12.366144
3115.974609	4.121421
3115.367920	4.120794
3114.760986	20.600836
3114.154297	28.836781
3113.547363	28.832394
3112.940186	16.473146
3112.333008	8.235320
3111.725830	24.702200
3111.118408	49.396881
3110.510986	37.042023
3109.903564	12.345461
3109.295898	24.687164
3108.688232	20.569506
3108.080566	8.226550
3107.472656	16.450594
3106.864746	20.560112
3106.256592	-4.111396
3105.648438	4.110771
3105.040039	-4.110145
3104.431885	12.328556
3103.823486	16.435572
3103.214844	20.541336
3102.606201	0.000000
3101.997559	24.642096
3101.388672	24.638344
3100.779785	24.634590
3100.170898	0.000000
3099.561768	24.627087
3098.952637	20.519445
3098.343262	12.309792
3097.733887	69.744858
3097.124512	28.714096
3096.514893	28.709723
3095.905273	28.705347
3095.295410	41.001389
3094.685791	16.398056
3094.075684	16.395557
3093.465820	53.277443
3092.855713	16.390560
3092.245361	12.291047
3091.635254	24.578346
3091.024658	24.574600
3090.414307	-4.095142
3089.803711	4.094518
3089.193115	12.281682
3088.582275	32.746159
3087.971436	24.555874
3087.360596	20.460108
3086.749512	20.456989
3086.138428	0.000000
3085.527100	16.360600
3084.915771	16.358105
3084.304443	32.711220
3083.692871	0.000000
3083.081299	44.964211
3082.469482	28.609224
3081.857910	24.518452
3081.245850	24.514711
3080.634033	4.085162
3080.021973	12.253615
3079.409668	12.251746
3078.797607	36.749630
3078.185059	24.496016
3077.572754	0.000000
3076.960205	20.407116
3076.347656	28.565603
3075.734863	4.080178
3075.122070	12.238665
3074.509033	4.078932
3073.895996	0.000000
3073.282959	24.466124
3072.669922	28.539454
3072.056641	12.229327
3071.443115	32.606560
3070.829834	40.751980
3070.216064	44.820332
3069.602539	20.369768
3068.988770	4.073331
3068.375000	24.436256
3067.760986	-12.216263
3067.146973	4.071465
3066.532715	20.354219
3065.918701	16.280888
3065.304199	16.278402
3064.689941	16.275915
3064.075439	12.205071
3063.460693	16.270943
3062.846191	12.201343
3062.231445	36.598438
3061.616455	32.526974
3061.001465	36.587254
3060.386475	20.323147
3059.771240	28.448057
3059.156006	20.316936
3058.540771	12.188298
3057.925293	36.559307
3057.309814	24.369146
3056.694092	16.243614
3056.078369	28.421980
3055.462646	12.178987
3054.846680	8.118083
3054.230713	16.233685
3053.614502	20.289003
3052.998291	40.571804
3052.382080	16.226240
3051.765625	28.391579
3051.149170	20.276598
3050.532715	40.546993
3049.916016	0.000000
3049.299316	24.320757
3048.682373	24.317038
3048.065430	24.313318
3047.448486	4.051600
3046.831299	20.254900
3046.214111	28.352522
3045.596680	32.397926
3044.979248	24.294727
3044.361816	20.242508
3043.744141	20.239412
3043.126465	8.094526
3042.508545	32.373150
3041.890869	12.138073
3041.272705	0.000000
3040.654785	52.582222
3040.036621	32.353336
3039.418213	20.217741
3038.799805	8.085858
3038.181396	28.296173
3037.562988	12.125075
3036.944336	32.328583
3036.325439	32.323635
3035.706543	36.358521
3035.087646	32.313740
3034.468750	8.077198
3033.849609	8.075961
3033.230469	12.112086
3032.611084	16.146975
3031.991699	36.325130
3031.372070	28.248552
3030.752441	28.244226
3030.132813	36.308441
3029.513184	24.201921
3028.893066	48.396427
3028.273193	8.064836
3027.653076	8.063601
3027.032959	24.187094
3026.412598	28.213953
3025.792480	0.000000
3025.171875	36.263969
3024.551270	44.315834
3023.930664	12.084285
3023.310059	32.219822
3022.689209	28.188023
3022.068115	36.236191
3021.447266	24.153757
3020.826172	36.225082
3020.204834	36.219528
3019.583496	32.190201
3018.962158	28.162109
3018.340576	24.135250
3017.718994	12.065775
3017.097412	12.063925
3016.475586	20.103458
3015.853760	28.140526
3015.231689	28.136211
3014.609619	20.094212
3013.987549	52.236938
3013.365234	20.088049
3012.742920	52.220917
3012.120361	32.131020
3011.497803	44.173374
3010.875244	28.106018
3010.252441	24.087177
3009.629639	28.097395
3009.006836	28.093084
3008.383789	28.088774
3007.760498	24.072397
3007.137451	36.103054
3006.514160	12.032505
3005.890625	40.102196
3005.267090	24.057625
3004.643555	24.053932
3004.019775	28.058615
3003.395996	24.046549
3002.772217	28.050001
3002.148193	24.039167
3001.524170	36.053215
3000.899902	12.015894
3000.275635	36.042149
2999.651367	40.040680
2999.026855	32.027626
2998.402344	44.031223
2997.777588	36.020016
2997.152832	28.011265
2996.528076	20.004974
2995.903076	44.004185
2995.278076	31.998127
2994.653076	35.992363
2994.027832	27.989761
2993.402344	15.991693
2992.777100	47.967709
2992.151367	31.973558
2991.525879	27.972567
2990.900146	55.936535
2990.274414	47.938236
2989.648438	43.936630
2989.022461	43.929878
2988.396240	71.874214
2987.770264	59.885971
2987.143799	47.901413
2986.517578	59.867565
2985.891113	55.867805
2985.264404	51.869274
2984.637695	55.850632
2984.010986	43.875893
2983.384033	51.845356
2982.757080	59.812370
2982.130127	43.855659
2981.502930	55.807713
2980.875732	47.827827
2980.248291	55.790550
2979.620850	63.750824
2978.993408	91.627716
2978.365723	51.781616
2977.738037	95.582123
2977.110107	59.729641
2976.482178	75.645905
2975.854248	67.672768
2975.226074	71.642494
2974.597900	91.529106
2973.969482	35.810226
2973.341309	115.370758
2972.712646	95.464554
2972.083984	111.358177
2971.455322	99.411644
2970.826660	91.444641
2970.197754	131.182983
2969.568604	123.213539
2968.939697	131.142609
2968.310547	150.989456
2967.681152	150.966217
2967.051758	170.803894
2966.422363	178.720749
2965.792725	190.606125
2965.163086	182.636078
2964.533203	123.061882
2963.903564	210.363739
2963.273438	158.740631
2962.643311	194.427338
2962.013184	202.331985
2961.383057	206.267502
2960.752686	186.405380
2960.122314	237.927658
2959.491699	222.031616
2958.861084	273.532532
2958.230225	241.781357
2957.599609	221.929031
2956.968506	237.744476
2956.337646	233.746048
2955.706299	257.477142
2955.075195	233.674026
2954.443848	229.678055
2953.812500	233.602020
2953.180908	237.524765
2952.549316	277.069519
2951.917725	284.941864
2951.285889	261.156464
2950.653809	284.854034
2950.021973	292.721527
2949.389893	261.035706
2948.757568	260.995483
2948.125244	272.816833
2947.492920	245.101974
2946.860352	225.300949
2946.227783	225.266205
2945.595215	205.474319
2944.962402	248.901657
2944.329590	197.510544
2943.696533	213.278488
2943.063477	161.908691
2942.430420	169.780487
2941.797119	165.806519
2941.163574	169.728119
2940.530273	173.648483
2939.896729	134.162231
2939.262939	161.758896
2938.629150	161.733948
2937.995361	165.653107
2937.361328	157.740524
2936.727295	134.058762
2936.093262	169.518738
2935.458984	193.142715
2934.824707	197.053986
2934.190186	193.083099
2933.555664	204.872894
2932.921143	220.598282
2932.286377	204.809647
2931.651367	232.344299
2931.016602	263.807892
2930.381592	232.272568
2929.746338	275.535095
2929.111084	267.621338
2928.475830	314.800018
2927.840332	263.604309
2927.204834	255.696030
2926.569336	330.386902
2925.933594	283.145050
2925.297607	326.352905
2924.661865	342.027924
2924.025879	326.252106
2923.389648	389.083954
2922.753418	365.446655
2922.117188	330.029846
2921.480713	388.903687
2920.844238	377.060455
2920.207764	322.022705
2919.571045	365.164459
2918.934082	388.663361
2918.297363	368.976898
2917.660156	333.597748
2917.023193	357.090637
2916.385986	357.035431
2915.748779	345.211670
2915.111328	321.624817
2914.473877	372.556519
2913.836182	352.893707
2913.198486	364.600464
2912.560791	325.345795
2911.922852	376.245392
2911.284912	333.082428
2910.646729	348.702972
2910.008545	336.896851
2909.370361	403.430328
2908.731934	356.373627
2908.093506	434.630280
2907.455078	434.563049
2906.816406	414.923950
2906.177490	461.825043
2905.538574	489.145752
2904.899658	481.244965
2904.260498	496.818359
2903.621338	528.032288
2902.982178	524.039856
2902.342773	582.610901
2901.703369	516.058655
2901.063721	523.796631
2900.424072	508.082275
2899.784424	500.188202
2899.144531	546.996216
2898.504639	531.285461
2897.864502	542.920959
2897.224365	488.162720
2896.583984	499.801239
2895.943848	511.436157
2895.303223	464.515106
2894.662842	448.831665
2894.021973	468.273560
2893.381348	483.807770
2892.740479	475.930725
2892.099609	522.662598
2891.458496	542.080994
2890.817383	503.004456
2890.176025	502.926544
2889.534668	541.829163
2888.893311	572.924866
2888.251709	572.836121
2887.610107	580.539856
2886.968262	533.702271
2886.326416	615.415283
2885.684570	584.164490
2885.042480	623.012268
2884.400391	646.275085
2883.758057	696.778992
2883.115723	716.131104
2882.473389	778.282776
2881.830811	719.799988
2881.188232	789.712158
2880.545410	832.375427
2879.902588	793.356384
2879.259766	769.903015
2878.616699	808.661621
2877.973633	824.085022
2877.330322	792.864563
2876.687012	730.565796
2876.043457	745.994080
2875.399902	765.302307
2874.756348	679.731689
2874.112549	605.838257
2873.468750	597.978394
2872.824707	601.768005
2872.180664	601.674683
2871.536621	586.056702
2870.892334	558.801819
2870.248047	574.234985
2869.603760	535.352234
2868.958984	570.178101
2868.314453	589.480408
2867.669678	589.388977
2867.024902	573.789673
2866.379883	608.587830
2865.734863	577.487366
2865.089844	596.773560
2864.444580	581.182739
2863.799316	557.848816
2863.153809	565.508911
2862.508301	631.257874
2861.862549	526.611938
2861.216797	495.557831
2860.571045	460.642395
2859.925049	468.311554
2859.279053	402.453217
2858.632813	375.306763
2857.986572	352.037231
2857.340332	375.190216
2856.693848	351.927917
2856.047363	301.605652
2855.400635	367.283173
2854.753906	289.915375
2854.107178	340.114532
2853.460205	324.604340
2852.813232	324.553925
2852.166016	270.419586
2851.518799	312.865479
2850.871338	324.402679
2850.223877	312.768280
2849.576416	297.276733
2848.928711	355.132599
2848.281006	366.656036
2847.633301	366.599060
2846.985352	401.267120
2846.337158	393.489288
2845.688965	377.999573
2845.040771	381.797363
2844.392578	439.577118
2843.743896	435.653442
2843.095459	435.585724
2842.446777	474.059418
2841.798096	493.253418
2841.149170	516.294373
2840.500244	543.180542
2839.851074	573.910034
2839.202148	516.053589
2838.552734	489.019501
2837.903320	542.842773
2837.253906	473.470032
2836.604492	542.673889
2835.954834	507.956116
2835.304932	423.230927
2834.655029	450.093781
2834.005127	380.789337
2833.354980	365.347046
2832.704834	349.909576
2832.054688	326.787750
2831.404297	295.985199
2830.753906	257.505493
2830.103271	234.408813
2829.452637	242.056671
2828.801758	180.553864
2828.150879	192.048676
2827.500000	157.455414
2826.848877	153.591125
2826.197754	99.818687
2825.546387	153.543304
2824.895020	111.301567
2824.243408	103.609467
2823.591797	126.614075
2822.940186	99.741013
2822.288330	118.903458
2821.636475	99.709953
2820.984619	115.032028
2820.332520	111.180313
2819.680176	99.663376
2819.028076	84.317413
2818.375488	114.960381
2817.723145	49.808407
2817.070557	76.616379
2816.417725	91.925331
2815.764893	88.081390
2815.112061	80.409607
2814.458984	76.568649
2813.805908	65.073212
2813.152832	91.853745
2812.499512	68.879570
2811.845947	65.042793
2811.192383	68.858109
2810.538818	80.321938
2809.885010	68.836639
2809.231201	49.707603
2808.577393	53.522923
2807.923340	84.094337
2807.269287	61.149982
2806.614990	53.497894
2805.960693	76.413643
2805.306152	99.322250
2804.651611	49.653381
2803.997070	64.921219
2803.342285	49.637897
2802.687500	68.718681
2802.032471	34.353981
2801.377441	80.146782
2800.722412	68.686531
2800.067139	72.491135
2799.411621	72.479828
2798.756348	49.583725
2798.100586	68.643677
2797.445068	57.194141
2796.789307	76.246956
2796.133301	87.670319
2795.477539	49.545055
2794.821289	41.916199
2794.165283	64.769470
2793.509033	34.284367
2792.852539	49.514137
2792.196045	45.698223
2791.539551	91.382179
2790.882813	60.911942
2790.226074	83.740845
2789.569092	79.921967
2788.912109	60.883419
2788.255127	83.701630
2787.597900	76.080513
2786.940430	45.641178
2786.283203	49.436890
2785.625488	60.835899
2784.968018	60.826401
2784.310303	64.617958
2783.652588	64.607864
2782.994629	75.997375
2782.336426	56.989132
2781.678467	75.973640
2781.020264	83.557945
2780.361816	75.949898
2779.703369	60.750427
2779.044922	41.759392
2778.386230	26.570007
2777.727539	34.156101
2777.068604	87.274170
2776.409668	45.527233
2775.750732	60.693489
2775.091553	60.684006
2774.432373	75.843147
2773.772949	64.456604
2773.113525	56.864582
2772.453857	22.742277
2771.794189	60.636589
2771.134521	56.837914
2770.474609	64.406235
2769.814697	64.396164
2769.154541	26.511921
2768.494385	53.015549
2767.833984	75.724655
2767.173584	68.141533
2766.513184	64.345825
2765.852539	56.766846
2765.191895	49.190239
2764.531006	64.315636
2763.870117	71.870934
2763.209229	71.859688
2762.548096	75.629944
2761.886719	45.370869
2761.225586	79.386597
2760.563965	75.594452
2759.902588	60.466099
2759.240967	60.456635
2758.579102	60.447174
2757.917236	64.215073
2757.255371	56.651489
2756.593262	64.194969
2755.931152	86.838425
2755.269043	71.724861
2754.606689	49.067219
2753.944092	60.380970
2753.281494	101.876938
2752.618896	64.134697
2751.956055	94.300957
2751.293213	105.600533
2750.630371	67.875427
2749.967285	109.337730
2749.303955	98.011574
2748.640625	94.227142
2747.977295	33.916458
2747.313721	86.661812
2746.650146	64.044350
2745.986572	75.334488
2745.322754	79.088821
2744.658691	64.014252
2743.994873	75.299088
2743.330566	97.873474
2742.666504	67.747940
2742.002197	75.263695
2741.337646	63.964115
2740.673096	94.050133
2740.008545	90.273979
2739.343750	82.738174
2738.678955	94.005920
2738.013916	67.673653
2737.348877	82.699272
2736.683594	90.203247
2736.018311	82.673347
2735.353027	105.204124
2734.687500	63.863914
2734.021973	90.146683
2733.356201	93.888069
2732.690430	108.893082
2732.024658	105.121658
2731.358643	112.612686
2730.692383	112.595024
2730.026367	120.082520
2729.359863	101.303734
2728.693604	105.039246
2728.027100	120.026016
2727.360352	123.757408
2726.693604	108.739449
2726.026855	127.467628
2725.359863	149.938385
2724.692871	179.897827
2724.025635	146.144043
2723.358398	123.640938
2722.691162	138.605957
2722.023682	183.530441
2721.355957	146.052322
2720.688477	142.285049
2720.020508	194.675293
2719.352783	153.469879
2718.684814	157.188370
2718.016602	119.743759
2717.348389	142.173386
2716.680176	157.114334
2716.011719	119.687363
2715.343262	115.928925
2714.674561	112.171661
2714.005859	123.369453
2713.337158	115.874313
2712.668213	149.491760
2711.999023	134.521439
2711.329834	115.819717
2710.660645	115.801521
2709.991455	108.313438
2709.321777	100.827698
2708.652344	108.279404
2707.982666	104.529205
2707.312988	89.582382
2706.643066	130.620438
2705.972900	126.868484
2705.302979	108.194351
2704.632813	89.526077
2703.962402	93.241676
2703.291992	93.227020
2702.621582	74.569893
2701.950928	111.837250
2701.280273	96.910378
2700.609375	70.807991
2699.938477	67.070702
2699.267334	108.041367
2698.596191	122.924294
2697.925049	70.763466
2697.253662	85.647560
2696.582031	78.187653
2695.910645	74.452713
2695.239014	96.773308
2694.567139	100.479546
2693.895264	93.021988
2693.223145	104.168236
2692.551270	66.954758
2691.878906	78.101593
2691.206543	78.089302
2690.534180	100.384735
2689.861816	78.064735
2689.189209	89.202797
2688.516357	74.323967
2687.843506	78.027885
2687.170654	66.870514
2686.497559	92.861099
2685.824463	85.418762
2685.151123	85.405312
2684.477783	70.541107
2683.804199	77.954216
2683.130615	81.653465
2682.457031	70.507797
2681.783203	77.917397
2681.109375	70.485596
2680.435303	103.857147
2679.761230	70.463394
2679.086914	70.452301
2678.412598	74.148636
2677.738281	103.791740
2677.063721	100.069122
2676.389160	96.347679
2675.714355	77.807022
2675.039551	88.908302
2674.364502	96.302155
2673.689453	70.363564
2673.014404	59.244190
2672.339111	99.958817
2671.663574	77.733490
2670.988037	77.721245
2670.312500	66.607712
2669.636719	59.197521
2668.960938	62.887451
2668.285156	81.370934
2667.609131	59.169533
2666.932861	81.345284
2666.256592	85.029388
2665.580322	85.015984
2664.903809	88.698341
2664.227295	73.903625
2663.550781	59.113579
2662.874023	66.492287
2662.197021	62.788372
2661.520020	84.935577
2660.843018	44.307224
2660.165771	103.367218
2659.488525	77.513184
2658.811035	92.263039
2658.133545	103.318306
2657.455811	73.787148
2656.778076	81.153053
2656.100342	88.516640
2655.422363	103.253120
2654.744385	95.862762
2654.066162	114.279877
2653.387939	95.832512
2652.709473	84.761536
2652.031006	66.324646
2651.352539	103.155380
2650.673828	77.354324
2649.994873	81.025070
2649.316162	95.741791
2648.636963	55.226925
2647.958008	80.986702
2647.278809	95.696449
2646.599365	80.961128
2645.919922	77.268875
2645.240479	73.577782
2644.560791	99.314323
2643.880859	73.554550
2643.201172	69.865784
2642.520996	88.237579
2641.841064	80.871666
2641.160889	84.534294
2640.480469	77.171295
2639.800049	91.856079
2639.119629	62.452263
2638.438965	62.442394
2637.758301	55.087524
2637.077393	66.094582
2636.396484	91.783531
2635.715332	66.073700
2635.034180	69.733437
2634.353027	80.731216
2633.671631	91.725517
2632.989990	95.379456
2632.308350	77.025078
2631.626709	106.351151
2630.944824	99.000931
2630.262939	91.653038
2629.581055	98.969627
2628.898926	58.639397
2628.216553	76.952034
2627.534180	91.595078
2626.851807	80.590919
2626.169189	58.602310
2625.486572	76.903366
2624.803711	84.214172
2624.120850	102.505386
2623.437988	84.187531
2622.754883	76.854721
2622.071533	62.205883
2621.388184	84.147583
2620.704834	65.844208
2620.021240	76.806091
2619.337646	65.823372
2618.653809	51.187855
2617.969971	62.146847
2617.286133	91.377953
2616.602051	91.363495
2615.917725	58.463379
2615.233398	87.681190
2614.549072	69.403282
2613.864502	80.348976
2613.179932	98.594498
2612.495117	62.068188
2611.810303	65.708855
2611.125488	62.048534
2610.440430	120.428078
2609.755127	69.326401
2609.069824	65.667236
2608.384521	80.247246
2607.698975	80.234535
2607.013428	102.100510
2606.327637	58.333908
2605.641846	94.777580
2604.956055	76.538994
2604.270020	80.171005
2603.583740	80.158302
2602.897461	69.216660
2602.211182	58.278477
2601.524658	83.762032
2600.838135	83.748756
2600.151367	83.735489
2599.464600	76.442024
2598.777832	65.511345
2598.090820	98.251442
2597.403564	83.682411
2596.716309	90.944717
2596.029053	94.567513
2595.341553	76.369347
2594.654053	112.717827
2593.966309	98.158020
2593.278564	105.412270
2592.590820	79.955246
2591.902832	76.308815
2591.214600	87.196243
2590.526367	72.652008
2589.838135	79.904533
2589.149658	87.154755
2588.461182	98.033546
2587.772461	105.278587
2587.083740	94.372726
2586.394775	94.357750
2585.705811	87.085648
2585.016846	87.071823
2584.327637	90.685425
2583.638184	79.790512
2582.948975	94.282913
2582.259277	65.262428
2581.569824	54.376724
2580.879883	68.866249
2580.190186	105.094963
2579.500244	105.078278
2578.810059	72.456276
2578.119873	86.933723
2577.429688	83.298256
2576.739258	76.042854
2576.048584	83.271805
2575.358154	79.638649
2574.667236	79.625999
2573.976563	90.469719
2573.285645	90.455353
2572.594482	75.970428
2571.903320	90.426620
2571.212158	86.795761
2570.520752	75.934227
2569.829102	90.383530
2569.137451	86.754402
2568.445801	75.898041
2567.753906	86.726837
2567.062012	65.034790
2566.370117	61.411987
2565.677979	79.461708
2564.985596	93.894363
2564.293213	97.490189
2563.600830	101.084869
2562.908203	64.972801
2562.215332	83.007607
2561.522705	82.994408
2560.829590	79.373337
2560.136719	90.182632
2559.443604	68.527901
2558.750244	68.517006
2558.056885	54.083771
2557.363525	90.125282
2556.669922	90.110954
2555.976074	75.681160
2555.282227	79.272415
2554.588379	104.478836
2553.894287	64.838615
2553.200195	86.437737
2552.505859	54.014992
2551.811523	90.010666
2551.117188	93.596199
2550.422607	86.382744
2549.727783	68.375458
2549.032959	79.158981
2548.338135	57.561008
2547.643066	79.133789
2546.947998	89.910454
2546.252686	71.916908
2545.557373	64.714920
2544.861816	82.678123
2544.166260	89.853218
2543.470703	75.464684
2542.774902	89.824608
2542.078857	71.848244
2541.382813	89.796005
2540.686768	64.642830
2539.990479	75.404625
2539.294189	75.392616
2538.597656	61.022400
2537.901123	61.012680
2537.204346	75.356598
2536.507568	71.756760
2535.810791	82.507126
2535.113770	78.907288
2534.416504	86.066963
2533.719238	86.053253
2533.021973	75.284599
2532.324463	111.116699
2531.626953	96.763641
2530.929199	78.831886
2530.231445	107.480888
2529.533447	103.881638
2528.835449	68.049538
2528.137451	89.524590
2527.439209	71.608253
2526.740723	64.437157
2526.042236	89.481781
2525.343750	82.310112
2524.645020	67.984474
2523.946289	75.128754
2523.247314	64.385803
2522.548340	82.257629
2521.849121	92.972061
2521.149902	71.505562
2520.450684	107.241234
2519.751221	110.798271
2519.051514	85.765625
2518.351807	121.481918
2517.652100	89.310692
2516.952148	110.727585
2516.252197	89.282196
2515.552002	89.267952
2514.851807	85.683556
2514.151367	92.809044
2513.450928	89.225227
2512.750244	71.368790
2512.049561	67.789528
2511.348877	107.019012
2510.647949	71.334618
2509.946777	74.889397
2509.245605	92.705406
2508.544434	81.995537
2507.843018	92.675804
2507.141602	89.097122
2506.439941	85.519585
2505.738281	106.882408
2505.036377	103.303162
2504.334473	67.670578
2503.632568	81.903931
2502.930420	74.769905
2502.228027	64.078255
2501.525635	67.627350
2500.823242	60.499020
2500.120605	88.954933
2499.417969	53.364433
2498.715088	88.926514
2498.012207	78.242828
2497.309082	110.233643
2496.605957	85.328537
2495.902588	88.869690
2495.199219	74.638611
2494.495605	95.948586
2493.791992	67.508583
2493.088379	63.945278
2492.384521	67.487007
2491.680664	63.924835
2490.976563	95.871925
2490.272461	127.808800
2489.568115	95.841270
2488.863770	95.825951
2488.159180	88.713547
2487.454590	95.795303
2486.749756	95.779984
2486.044922	74.483627
2485.339844	60.286629
2484.634766	78.005516
2483.929688	85.083313
2483.224365	85.069702
2482.519043	95.688103
2481.813477	99.216232
2481.107666	53.143051
2480.402100	74.388367
2479.696045	99.168617
2478.990234	92.070412
2478.284180	74.352661
2477.577881	95.580978
2476.871582	70.789398
2476.165039	92.011482
2475.458496	95.535095
2474.751953	84.906487
2474.045166	106.116119
2473.338379	91.952583
2472.631348	84.865723
2471.924072	106.065163
2471.217041	123.722878
2470.509521	98.962456
2469.802246	98.946609
2469.094482	63.598347
2468.386963	120.110970
2467.679199	98.899078
2466.971191	102.414780
2466.263184	81.212502
2465.554932	74.138672
2464.846680	105.895416
2464.138428	84.702766
2463.429932	95.275345
2462.721436	102.316376
2462.012695	70.551712
2461.303955	84.648491
2460.594971	91.687836
2459.885986	98.724922
2459.176758	95.183777
2458.467529	95.168518
2457.758057	112.774239
2457.048584	59.901711
2456.338867	102.168892
2455.629150	98.630013
2454.919434	77.482582
2454.209473	105.641129
2453.499512	80.978546
2452.789307	95.046532
2452.078857	98.550964
2451.368408	77.420486
2450.657959	84.445160
2449.947266	119.611458
2449.236572	91.452919
2448.525879	94.955101
2447.814697	112.521332
2447.103760	119.534737
2446.392578	87.879089
2445.681152	94.894188
2444.969727	70.280708
2444.258301	77.296379
2443.546631	115.925964
2442.834717	91.320946
2442.122803	84.282730
2441.410889	112.358940
2440.698730	112.340904
2439.986572	105.302696
2439.274170	98.266739
2438.561768	98.250961
2437.849121	91.218391
2437.136475	84.188072
2436.423584	73.652740
2435.710693	115.721428
2434.997803	108.690552
2434.284424	87.639595
2433.571289	105.150627
2432.857910	108.638199
2432.144287	119.132439
2431.430908	84.079979
2430.717041	112.088631
2430.003174	122.577240
2429.289307	126.059196
2428.575195	129.540024
2427.861084	73.510902
2427.146729	101.498749
2426.432373	132.976990
2425.717773	111.962624
2425.003174	97.951553
2424.288330	76.949570
2423.573486	108.411507
2422.858643	87.414581
2422.143555	118.864723
2421.428223	101.368317
2420.712891	90.867332
2419.997559	115.313072
2419.281982	101.319435
2418.566162	115.275993
2417.850586	97.794205
2417.134521	118.731018
2416.418457	94.271233
2415.702393	73.310280
2414.986084	108.202530
2414.269775	83.756226
2413.553223	108.167725
2412.836670	111.639046
2412.120117	101.156609
2411.403076	94.165138
2410.686279	87.175919
2409.969238	111.567215
2409.251953	125.492928
2408.534668	90.619194
2407.817383	108.028580
2407.099854	108.011192
2406.382080	111.477478
2405.664307	90.560875
2404.946533	97.511398
2404.228516	142.761566
2403.510498	73.110008
2402.792236	107.906921
2402.073975	107.889549
2401.355469	128.750656
2400.636963	100.896431
2399.918213	125.230576
2399.199463	100.863937
2398.480469	104.325203
2397.761475	107.785347
2397.042480	97.338829
2396.323242	104.274803
2395.603760	111.208542
2394.884277	97.291801
2394.164795	121.595154
2393.445068	100.734039
2392.725098	104.190842
2392.005127	93.756645
2391.285156	121.516808
2390.564941	121.497231
2389.844727	100.652908
2389.124268	104.106918
2388.403809	107.559814
2387.683105	107.542473
2386.962402	107.525139
2386.241455	114.443794
2385.520508	114.425346
2384.799316	83.205017
2384.078125	142.118988
2383.356689	97.041222
2382.635254	135.142761
2381.913818	121.262413
2381.192139	121.242851
2380.470215	103.905685
2379.748291	131.592651
2379.026367	128.109009
2378.304199	103.855415
2377.581787	114.222534
2376.859375	121.125565
2376.136963	114.185684
2375.414307	96.869194
2374.691650	131.444122
2373.968750	114.130424
2373.245850	114.112007
2372.522705	114.093590
2371.799316	96.791061
2371.076172	89.862907
2370.352783	120.949776
2369.629150	127.840553
2368.905518	110.546951
2368.181641	93.258934
2367.457764	120.871696
2366.733643	131.210938
2366.009521	127.737396
2365.285400	120.813156
2364.561035	106.988663
2363.836426	110.422073
2363.111816	117.304504
2362.387207	124.184715
2361.662354	117.266617
2360.937256	110.350754
2360.212158	106.885025
2359.487061	103.420410
2358.761719	96.510124
2358.036377	117.171936
2357.310791	120.598679
2356.584961	113.688957
2355.859375	86.114075
2355.133301	117.096222
2354.407471	123.964195
2353.681152	137.715744
2352.955078	123.924133
2352.228516	113.578758
2351.502197	123.884071
2350.775635	123.864044
2350.048828	106.643463
2349.322021	106.626221
2348.594971	116.925980
2347.867920	116.907074
2347.140869	110.012398
2346.413330	113.431938
2345.686035	99.666496
2344.958496	134.012573
2344.230713	120.248245
2343.502930	151.144775
2342.775146	123.643898
2342.047119	130.491898
2341.319092	96.136368
2340.590820	116.718132
2339.862305	133.860901
2339.133789	106.385040
2338.405273	120.092705
2337.676514	130.365265
2336.947754	133.774277
2336.218750	113.175301
2335.489746	89.153984
2334.760498	123.424004
2334.031250	109.692467
2333.301758	126.811378
2332.572266	95.949837
2331.842529	99.360527
2331.112793	126.749802
2330.382813	116.453934
2329.652832	150.680679
2328.922607	119.840225
2328.192383	140.361526
2327.462158	116.378517
2326.731689	123.204353
2326.000977	116.340820
2325.270264	140.270615
2324.539307	133.406540
2323.808350	92.343414
2323.077393	85.489304
2322.346191	116.246620
2321.614746	116.227783
2320.883301	119.626862
2320.151855	129.859543
2319.420166	133.255310
2318.688232	126.401215
2317.956299	122.965027
2317.224365	140.020813
2316.492188	119.510582
2315.760010	122.905243
2315.027588	153.606659
2314.295166	119.452469
2313.562500	153.556854
2312.829590	98.942810
2312.096924	150.095795
2311.363770	136.428589
2310.630615	126.175980
2309.897461	115.926697
2309.164063	143.180344
2308.430664	156.791122
2307.697021	109.054398
2306.963379	132.888489
2306.229492	132.866928
2305.495605	129.439087
2304.761719	126.012337
2304.027344	122.586708
2303.293213	139.589981
2302.558838	132.759171
2301.824219	136.141159
2301.089600	129.313110
2300.354736	125.889702
2299.619873	139.476761
2298.885010	108.842239
2298.149658	132.629944
2297.414551	153.009705
2296.679199	135.986542
2295.943604	139.363586
2295.208008	142.739517
2294.472412	118.930283
2293.736572	125.705879
2293.000488	118.891655
2292.264404	115.475998
2291.528320	112.061440
2290.791992	145.995743
2290.055420	132.393234
2289.318848	162.919037
2288.582275	132.350220
2287.845459	156.080032
2287.108398	128.914719
2286.371582	128.893784
2285.634277	122.090057
2284.896973	145.806091
2284.159668	115.269806
2283.422119	118.640808
2282.684570	132.178268
2281.946777	121.990883
2281.208740	132.135300
2280.470703	142.276428
2279.732666	138.866318
2278.994385	135.457306
2278.256104	115.119995
2277.517578	155.725250
2276.779053	138.776031
2276.040283	169.211533
2275.301514	131.963531
2274.562500	128.558945
2273.823486	125.155457
2273.084229	175.865540
2272.344971	145.403625
2271.605469	138.618118
2270.865967	131.834808
2270.126221	145.332672
2269.386475	135.171188
2268.646484	145.285385
2267.906494	152.018112
2267.166260	151.993362
2266.426025	135.083237
2265.685547	145.190842
2264.945068	128.287308
2264.204346	145.143585
2263.463623	138.370193
2262.722656	111.352997
2261.981689	141.698929
2261.240723	131.556152
2260.499268	124.789368
2259.758057	121.396912
2259.016602	141.606674
2258.274902	151.696732
2257.533203	124.708107
2256.791260	114.577972
2256.049316	117.928703
2255.307129	148.229080
2254.564941	141.468353
2253.822754	124.606575
2253.080322	138.055069
2252.337646	158.232468
2251.594971	185.135483
2250.852051	175.008667
2250.109131	137.965118
2249.366211	148.035995
2248.623047	134.556244
2247.879639	141.261032
2247.136230	137.875198
2246.392578	164.750824
2245.648926	144.553680
2244.905273	117.640800
2244.161377	168.030884
2243.417236	147.843079
2242.673096	141.099930
2241.928955	144.435898
2241.184570	144.412338
2240.439941	130.957275
2239.695313	144.365250
2238.950439	137.628128
2238.205566	151.030624
2237.460693	140.938934
2236.715576	140.915939
2235.970215	134.183762
2235.224854	147.578064
2234.479492	147.553986
2233.733887	127.412193
2232.988037	127.391403
2232.242188	150.833633
2231.496338	140.755081
2230.750244	150.784409
2230.003906	147.409576
2229.257568	164.133865
2228.511230	120.568466
2227.764648	164.080292
2227.017822	130.573196
2226.270996	164.026733
2225.523926	133.877502
2224.776855	123.816475
2224.029785	157.254715
2223.282471	140.502533
2222.534912	133.790085
2221.787354	163.866089
2221.039795	143.777374
2220.291992	157.126343
2219.543945	167.128387
2218.795898	133.680862
2218.047852	130.317551
2217.299561	177.069275
2216.551025	150.317276
2215.802490	130.253693
2215.053955	153.607452
2214.305176	136.888626
2213.556152	133.528046
2212.807129	143.519196
2212.058105	166.855515
2211.308838	166.828232
2210.559326	136.776794
2209.809814	150.096329
2209.060303	126.727295
2208.310547	156.716034
2207.560547	133.353546
2206.810547	189.997726
2206.060303	149.973679
2205.310059	146.616943
2204.559814	159.919601
2203.809326	173.217911
2203.058594	146.545029
2202.307861	146.521057
2201.557129	163.144485
2200.806152	163.117798
2200.054932	129.807220
2199.303711	143.097366
2198.552246	143.073944
2197.800781	143.050537
2197.049316	162.984406
2196.297607	136.352386
2195.545654	169.581314
2194.793701	169.553558
2194.041504	136.285461
2193.289307	152.880600
2192.537109	156.178528
2191.784668	169.442581
2191.031982	162.771118
2190.279297	156.101837
2189.526367	136.151657
2188.773438	175.972092
2188.020508	156.025177
2187.267090	159.318771
2186.513916	136.062485
2185.760498	155.948532
2185.006836	162.558014
2184.253174	165.848358
2183.499268	142.606216
2182.745361	165.794022
2181.991211	169.082199
2181.237061	165.739700
2180.482666	125.941536
2179.728271	142.489441
2178.973877	185.537231
2178.218994	175.568970
2177.464355	155.667725
2176.709229	165.576813
2175.954346	175.482651
2175.198975	155.591187
2174.443848	155.565689
2173.688232	162.158905
2172.932861	138.970566
2172.177002	155.489182
2171.421387	168.694641
2170.665283	165.359787
2169.909424	165.332672
2169.153076	158.693329
2168.396729	152.056168
2167.640381	155.336258
2166.883789	161.919754
2166.127197	161.893188
2165.370361	194.900650
2164.613525	155.234360
2163.856445	175.022797
2163.099365	165.088760
2162.342041	165.061676
2161.584473	174.936661
2160.826904	178.208099
2160.069336	155.081604
2159.311523	158.355209
2158.553711	164.926270
2157.795654	148.409286
2157.037354	174.764465
2156.279053	168.141968
2155.520752	161.521652
2154.762207	181.270050
2154.003662	161.468613
2153.244873	200.978943
2152.485840	138.356232
2151.726807	141.627167
2150.967773	164.655701
2150.208252	154.750931
2149.448975	181.061783
2148.689453	190.906509
2147.929688	167.838501
2147.169922	184.262985
2146.410156	167.783356
2145.650146	210.517075
2144.889893	180.883392
2144.129639	190.718414
2143.369141	184.111649
2142.608643	154.496887
2141.847900	141.324982
2141.087158	134.729584
2140.326416	141.278534
2139.565186	193.815430
2138.804199	154.369965
2138.042725	174.048141
2137.281494	180.586304
2136.519775	157.576691
2135.758301	190.373856
2134.996338	157.524872
2134.234619	173.905106
2133.472412	183.718582
2132.710449	190.248657
2131.947998	173.819321
2131.185547	186.907013
2130.423096	186.876266
2129.660400	186.845520
2128.897705	193.369690
2128.134766	183.507141
2127.371826	160.542328
2126.608643	189.998428
2125.845215	189.967163
2125.081787	180.111633
2124.318359	186.630432
2123.554688	180.052353
2122.790771	196.388428
2122.026855	202.901291
2121.262939	166.875214
2120.498779	160.304688
2119.734375	186.446182
2118.969971	153.711014
2118.205322	179.844971
2117.440674	199.431580
2116.676025	169.979263
2115.911133	199.365906
2115.145996	205.868576
2114.380859	176.429718
2113.615479	179.667343
2112.850098	182.903885
2112.084473	173.076950
2111.318848	173.048431
2110.552979	169.755402
2109.787109	192.575363
2109.020996	179.489822
2108.254883	176.197327
2107.488525	189.217804
2106.722168	205.495804
2105.955566	192.416733
2105.188965	195.645782
2104.422119	176.052185
2103.655029	176.023163
2102.887939	162.957550
2102.120850	182.482361
2101.353516	202.000732
2100.585938	192.194809
2099.818359	185.649124
2099.050781	179.105576
2098.282959	185.587891
2097.514893	159.514160
2096.746826	169.252411
2095.978760	185.496078
2095.210449	172.450363
2094.441895	178.928406
2093.673340	185.404297
2092.904541	175.617203
2092.135742	185.343124
2091.366699	182.061447
2090.597656	182.031403
2089.828369	191.751450
2089.059082	204.717758
2088.289551	185.190262
2087.520020	191.656525
2086.750244	198.120651
2085.980469	155.872482
2085.210449	198.055237
2084.440186	198.022552
2083.670166	175.269699
2082.899658	217.428360
2082.129150	201.169144
2081.358643	184.915283
2080.587891	207.589890
2079.816895	210.798660
2079.045898	191.308731
2078.274902	178.309189
2077.503662	178.279739
2076.732178	213.900345
2075.960693	191.182358
2075.188965	204.110138
2074.417236	200.837112
2073.645264	200.803925
2072.873291	204.008987
2072.101074	165.122833
2071.328857	200.704391
2070.556396	200.671219
2069.783936	216.818542
2069.011230	152.071457
2068.238525	187.631622
2067.465576	197.304092
2066.692627	219.909180
2065.919434	216.639404
2065.145996	190.740463
2064.372559	184.244217
2063.599121	180.981934
2062.825439	203.570999
2062.051514	206.768082
2061.277588	200.273453
2060.503662	200.240326
2059.729248	174.374023
2058.955078	190.488251
2058.180664	184.000580
2057.406006	200.107864
2056.631348	235.571899
2055.856445	238.759399
2055.081543	248.397720
2054.306396	216.102509
2053.531250	193.492615
2052.755859	209.582306
2051.980225	232.114273
2051.204590	215.959488
2050.428955	222.369217
2049.653076	193.332535
2048.877197	206.187225
2048.101074	202.931946
2047.324707	186.795303
2046.548340	231.845428
2045.771851	212.489777
2044.995239	196.359543
2044.218506	177.016174
2043.441528	209.166290
2042.664551	222.001282
2041.887329	205.880127
2041.110107	221.927734
2040.332642	196.164490
2039.555176	231.500046
2038.777466	196.099487
2037.999634	199.281204
2037.221802	212.102905
2036.443726	228.133499
2035.665527	189.544312
2034.887207	224.845810
2034.108765	224.808548
2033.330200	202.294159
2032.551514	202.260620
2031.772705	231.116684
2030.993774	263.172577
2030.214600	211.786713
2029.435425	208.543243
2028.656128	202.093002
2027.876587	230.925140
2027.097046	208.439514
2026.317261	211.611176
2025.537476	221.193176
2024.757446	208.335815
2023.977295	211.505890
2023.197021	230.695435
2022.416626	233.860733
2021.636230	230.618896
2020.855591	220.973099
2020.074707	211.330505
2019.293823	214.496887
2018.512817	240.068604
2017.731689	195.223404
2016.950439	230.389374
2016.168945	214.354523
2015.387451	271.897186
2014.605713	223.878143
2013.823975	220.643250
2013.041992	246.184204
2012.260010	236.553329
2011.477783	233.317917
2010.695435	239.670380
2009.912964	220.460144
2009.130371	204.450806
2008.347656	236.356995
2007.564819	268.252563
2006.781860	217.120773
2005.998779	245.816498
2005.215576	255.351334
2004.432129	271.265717
2003.648682	229.739853
2002.864990	236.082275
2002.081299	236.043060
2001.297363	210.489899
2000.513428	207.266220
1999.729248	242.301758
1998.944946	229.510880
1998.160522	248.595459
1997.375977	245.367554
1996.591309	213.466141
1995.806519	254.842575
1995.021606	245.245209
1994.236572	229.282059
1993.451416	232.427887
1992.666016	232.389236
1991.880615	254.630783
1991.094971	260.953156
1990.309326	232.273315
1989.523438	254.503754
1988.737549	222.653748
1987.951416	260.779572
1987.165161	225.759384
1986.378784	238.438553
1985.592285	257.470795
1984.805664	212.934235
1984.018921	244.674744
1983.232056	273.227600
1982.444946	235.063705
1981.657837	269.960663
1980.870605	244.511902
1980.083130	244.471207
1979.295654	244.430511
1978.507935	250.737610
1977.720093	263.389343
1976.932129	253.826965
1976.144165	237.923157
1975.355957	263.257782
1974.567627	263.213959
1973.779053	244.145767
1972.990479	237.764725
1972.201782	263.082458
1971.412964	253.531235
1970.623901	266.163452
1969.834839	262.951019
1969.045532	266.074768
1968.256226	215.357986
1967.466675	284.985138
1966.677002	243.779984
1965.887207	262.732056
1965.097290	265.853180
1964.307251	275.302063
1963.517090	291.075500
1962.726807	256.230255
1961.936401	234.047897
1961.145874	294.092255
1960.355103	256.102142
1959.564331	322.445251
1958.773315	268.659576
1957.982178	259.134247
1957.191040	243.292816
1956.399658	284.320801
1955.608154	268.480408
1954.816528	258.961456
1954.024780	252.603165
1953.232910	262.032074
1952.440918	296.709717
1951.648682	290.348297
1950.856445	255.590103
1950.063965	261.857269
1949.271484	271.276733
1948.478760	217.615936
1947.685913	302.719482
1946.893066	302.668945
1946.099976	299.466156
1945.306763	299.416199
1944.513428	280.458862
1943.719971	255.206482
1942.926270	264.614380
1942.132568	264.570221
1941.338745	296.017242
1940.544678	321.156555
1939.750610	295.918396
1938.956299	280.131256
1938.161865	311.554657
1937.367310	276.891235
1936.572632	292.574799
1935.777832	283.089630
1934.982910	283.042328
1934.187866	273.561890
1933.392700	282.947784
1932.597290	298.617188
1931.801880	279.710419
1931.006226	292.232849
1930.210571	267.049896
1929.414673	285.852692
1928.618652	301.508514
1927.822510	304.598297
1927.026245	313.966370
1926.229858	273.105103
1925.433350	288.752502
1924.636719	288.704254
1923.839844	260.417877
1923.042969	276.059540
1922.245850	269.740356
1921.448730	323.007111
1920.651367	269.650146
1919.853882	304.089417
1919.056274	329.113922
1918.258545	291.452148
1917.460693	272.603180
1916.662720	313.284576
1915.864624	281.908936
1915.066284	294.388977
1914.267944	319.389923
1913.469360	288.028961
1912.670776	306.762146
1911.871948	294.191986
1911.072998	284.755219
1910.273926	284.707581
1909.474731	322.197479
1908.675415	312.760742
1907.875977	272.056305
1907.076294	290.770111
1906.276611	306.351624
1905.476807	318.802368
1904.676758	296.874084
1903.876587	324.944580
1903.076294	293.650726
1902.275879	312.342072
1901.475342	299.798157
1900.674683	340.338806
1899.873901	309.063293
1899.072998	340.224823
1898.271851	302.718140
1897.470703	262.103760
1896.669312	346.293365
1895.867920	346.235352
1895.066284	349.296051
1894.264526	302.464630
1893.462646	268.119598
1892.660645	321.066162
1891.858521	336.595459
1891.056152	333.422943
1890.253784	314.673584
1889.451172	308.390717
1888.648560	351.942505
1887.845703	351.883514
1887.042725	323.803101
1886.239624	311.296906
1885.436401	320.582062
1884.633057	336.087921
1883.829590	286.249115
1883.025879	326.642548
1882.222168	295.484161
1881.418213	298.544434
1880.614258	326.478210
1879.810059	348.184998
1879.005737	360.559692
1878.201294	338.744934
1877.396729	329.366394
1876.592041	335.524536
1875.787231	323.043488
1874.982178	335.411957
1874.177124	335.355652
1873.371826	347.717865
1872.566406	325.930786
1871.760986	356.911865
1870.955322	359.955017
1870.149536	338.176819
1869.343506	397.058380
1868.537476	325.657288
1867.731323	300.794769
1866.924927	337.949738
1866.118530	328.593170
1865.311890	306.842072
1864.505127	356.372864
1863.698242	359.411377
1862.891235	343.861725
1862.084106	349.998627
1861.276855	318.971710
1860.469482	340.592163
1859.661865	334.343384
1858.854126	359.049225
1858.046387	343.515228
1857.238403	315.609589
1856.430298	327.931305
1855.622070	349.528412
1854.813721	275.246002
1854.005249	340.134521
1853.196533	377.176666
1852.387817	361.657806
1851.578857	343.053558
1850.769775	352.266052
1849.960693	330.580078
1849.151367	339.791534
1848.341919	321.203400
1847.532227	348.941162
1846.722534	367.407196
1845.912720	361.171539
1845.102661	342.592285
1844.292603	317.847473
1843.482300	317.794006
1842.671875	330.079956
1841.861328	354.699158
1841.050659	329.968903
1840.239868	366.912994
1839.428833	308.278351
1838.617798	388.365356
1837.806519	348.237305
1836.995117	360.503601
1836.183716	357.362213
1835.372070	326.500153
1834.560303	412.675964
1833.748291	338.706818
1832.936279	354.042969
1832.124146	357.061462
1831.311768	335.458160
1830.499390	360.018311
1829.686768	375.340485
1828.874023	347.592865
1828.061157	365.987457
1827.248169	356.700806
1826.434937	384.311096
1825.621704	335.062836
1824.808228	368.814362
1823.994751	365.679291
1823.181030	359.472839
1822.367188	383.987457
1821.553223	371.637207
1820.739136	362.362000
1819.924927	359.230560
1819.110474	362.239838
1818.296021	383.663971
1817.481323	359.048920
1816.666626	322.169067
1815.851685	392.673218
1815.036621	386.472534
1814.221436	368.007019
1813.406006	358.746338
1812.590576	343.357391
1811.774902	364.755707
1810.959229	386.146759
1810.143311	358.504364
1809.327271	358.443909
1808.511108	367.572754
1807.694824	376.698517
1806.878418	336.828003
1806.061768	376.571411
1805.245117	342.836426
1804.428223	342.778564
1803.611206	354.960754
1802.794067	354.900848
1801.976807	360.958893
1801.159424	373.131805
1800.341919	394.474396
1799.524170	400.522675
1798.706421	372.942871
1797.888428	382.049072
1797.070313	369.761047
1796.252075	403.307587
1795.433716	400.184631
1794.615234	360.410797
1793.796509	427.533813
1792.977783	375.555542
1792.158813	412.125488
1791.339844	409.003601
1790.520630	411.986267
1789.701294	378.353088
1788.881714	387.441315
1788.062134	390.426056
1787.242432	369.012268
1786.422485	378.097412
1785.602417	341.449646
1784.782349	377.969635
1783.962036	444.953552
1783.141479	383.936096
1782.320923	396.057587
1781.500244	371.621979
1780.679321	368.513580
1779.858398	404.991882
1779.037231	395.789795
1778.215942	398.766907
1777.394531	362.177368
1776.572998	386.460083
1775.751221	428.989410
1774.929443	368.077576
1774.107422	392.346924
1773.285278	404.444275
1772.463013	398.295013
1771.640625	389.107910
1770.818115	355.608795
1769.995483	398.092896
1769.172607	382.833710
1768.349731	394.920319
1767.526611	397.890839
1766.703369	422.118042
1765.880005	400.792450
1765.056519	367.330902
1764.232910	379.409821
1763.409058	367.206543
1762.585083	436.932159
1761.761108	394.385834
1760.936890	445.883881
1760.112549	430.644806
1759.288086	394.185547
1758.463379	391.087097
1757.638672	378.896179
1756.813721	387.923981
1755.988647	393.918549
1755.163574	387.792572
1754.338257	427.105377
1753.512695	417.947205
1752.687134	414.848297
1751.861328	402.667694
1751.035522	426.815979
1750.209473	375.292297
1749.383301	396.410950
1748.557007	405.420349
1747.730591	408.376648
1746.903931	420.405426
1746.077271	390.094269
1745.250366	411.192474
1744.423340	386.939056
1743.596313	362.693878
1742.768921	398.895599
1741.941528	474.363556
1741.114014	416.885803
1740.286255	425.876282
1739.458374	392.585297
1738.630493	377.421844
1737.802368	410.565308
1736.973999	371.257111
1736.145630	398.354675
1735.317139	395.269775
1734.488403	431.404480
1733.659546	449.429077
1732.830566	434.273865
1732.001465	422.139038
1731.172241	419.052643
1730.342896	406.924500
1729.513306	406.855438
1728.683594	454.998077
1727.853882	412.742737
1727.023926	400.623840
1726.193726	439.707886
1725.363525	445.655609
1724.533203	454.611969
1723.702637	379.280670
1722.871948	412.322449
1722.041138	424.288971
1721.210205	433.242798
1720.379150	427.152985
1719.547974	442.118469
1718.716553	411.972382
1717.885010	441.968262
1717.053467	447.905334
1716.221558	435.806946
1715.389648	417.702576
1714.557617	420.636139
1713.725342	414.556580
1712.893066	429.503754
1712.060547	444.445801
1711.227905	459.382751
1710.395142	465.308655
1709.562256	462.228088
1708.729126	441.142700
1707.895874	441.067688
1707.062622	422.993011
1706.229126	437.918274
1705.395508	470.832031
1704.561646	428.774078
1703.727783	434.696991
1702.893677	488.576233
1702.059570	410.573975
1701.225220	428.482422
1700.390747	404.442566
1699.556030	449.304169
1698.721313	458.212280
1697.886353	428.190887
1697.051392	470.031708
1696.216187	466.958374
1695.380859	454.907654
1694.545410	472.784058
1693.709717	448.769226
1692.874023	436.727692
1692.038086	463.570343
1691.202026	457.510895
1690.365845	430.525177
1689.529541	421.484131
1688.692993	493.142120
1687.856445	487.081665
1687.019653	424.256561
1686.182739	445.094818
1685.345703	439.045593
1684.508545	495.708527
1683.671143	483.681335
1682.833740	498.524841
1681.996094	465.608521
1681.158325	474.481689
1680.320435	468.433533
1679.482422	480.286285
1678.644287	530.909302
1677.805908	480.122620
1676.967407	465.132690
1676.128784	503.807861
1675.290039	512.663818
1674.451172	542.377380
1673.612183	491.631927
1672.772949	455.799164
1671.933594	425.935730
1671.094116	503.292755
1670.254517	452.588470
1669.414795	482.281799
1668.574829	485.176086
1667.734863	499.973480
1666.894653	446.328766
1666.054321	422.452484
1665.213867	443.201996
1664.373169	455.022400
1663.532471	505.494202
1662.691528	529.191833
1661.850464	517.211609
1661.009277	466.599823
1660.167969	481.377533
1659.326538	505.063049
1658.484863	510.917755
1657.643066	484.101044
1656.801147	478.079529
1655.959106	466.122192
1655.116943	448.232086
1654.274658	507.513885
1653.432129	468.850891
1652.589478	471.737762
1651.746704	471.657196
1650.903809	495.303772
1650.060791	462.599945
1649.217529	501.064362
1648.374146	471.335052
1647.530640	456.435211
1646.687012	474.137390
1645.843262	462.204987
1644.999390	465.088379
1644.155273	491.665466
1643.311035	482.697449
1642.466675	497.419098
1641.622192	479.572174
1640.777588	485.409821
1639.932739	470.530304
1639.087769	511.873138
1638.242798	488.119263
1637.397461	455.500092
1636.552124	479.080505
1635.706665	478.998596
1634.860962	502.566895
1634.015137	472.923279
1633.169189	505.350311
1632.323120	487.535339
1631.476929	466.772156
1630.630493	478.507324
1629.783936	442.986542
1628.937256	469.485413
1628.090454	436.930542
1627.243530	475.228241
1626.396484	498.756714
1625.549194	472.114899
1624.701782	477.934540
1623.854248	480.802460
1623.006592	454.177338
1622.158691	495.381409
1621.310791	489.400208
1620.462646	495.211823
1619.614380	453.866455
1618.765991	527.455750
1617.917358	503.796051
1617.068726	480.144409
1616.219849	494.788055
1615.370850	527.094604
1614.521729	468.121155
1613.672363	509.252136
1612.822998	532.710144
1611.973389	520.848267
1611.123657	506.048370
1610.273804	535.378052
1609.423828	491.169312
1608.573608	499.907043
1607.723389	493.941162
1606.872925	476.218781
1606.022339	520.223938
1605.171509	526.012024
1604.320679	546.488647
1603.469604	517.018921
1602.618408	505.181854
1601.767090	505.095245
1600.915649	519.689148
1600.064087	554.827148
1599.212280	519.510986
1598.360352	484.206848
1597.508301	542.805481
1596.656128	513.376587
1595.803833	483.957764
1594.951294	469.211884
1594.098633	507.248322
1593.245850	515.956055
1592.392944	559.833496
1591.539795	530.431824
1590.686646	533.270874
1589.833252	541.968018
1588.979736	544.804077
1588.126099	500.782349
1587.272217	503.624451
1586.418335	529.885925
1585.564209	588.335876
1584.709961	494.585541
1583.855591	503.278748
1583.000977	494.415741
1582.146362	541.131409
1581.291504	491.321442
1580.436523	520.477417
1579.581421	479.458618
1578.726074	511.529572
1577.870605	552.357056
1577.015137	505.509827
1576.159424	505.423004
1575.303467	499.494141
1574.447510	551.977661
1573.591309	540.202759
1572.734985	554.707520
1571.878540	534.179138
1571.021973	493.228180
1570.165161	536.913574
1569.308350	519.316223
1568.451294	525.060974
1567.594116	498.722229
1566.736694	475.308472
1565.879272	527.705811
1565.021606	527.615051
1564.163818	518.780884
1563.305908	512.863647
1562.447876	579.785950
1561.589600	533.078308
1560.731201	500.949158
1559.872681	541.630920
1559.014038	550.272278
1558.155273	515.245728
1557.296265	520.978027
1556.437134	576.178284
1555.577881	564.441162
1554.718506	509.073273
1553.859009	514.802673
1552.999268	520.530029
1552.139404	508.810516
1551.279419	508.722961
1550.419312	540.606750
1549.558960	505.641876
1548.698608	488.121887
1547.838013	543.232666
1546.977173	572.184021
1546.116333	551.757568
1545.255249	499.399811
1544.394165	545.761597
1543.532837	534.057678
1542.671265	557.181641
1541.809692	545.479675
1540.947876	542.484741
1540.085938	548.192322
1539.223877	513.298035
1538.361694	516.109070
1537.499268	536.313110
1536.636841	605.784485
1535.774170	524.536316
1534.911377	565.010803
1534.048340	579.398438
1533.185303	538.747681
1532.322021	529.966858
1531.458618	584.889893
1530.594971	552.944153
1529.731323	596.266235
1528.867432	544.071533
1528.003418	546.871216
1527.139282	569.920898
1526.275024	564.037659
1525.410522	540.804382
1524.545898	540.711121
1523.681152	529.053833
1522.816284	575.210693
1521.951172	560.661438
1521.086060	566.343750
1520.220703	572.024048
1519.355225	557.482849
1518.489502	548.722595
1517.623779	580.390625
1516.757813	632.256775
1515.891724	577.303772
1515.025513	554.115967
1514.159058	608.845276
1513.292480	565.464844
1512.425781	542.291016
1511.558960	576.805725
1510.692017	596.890869
1509.824829	547.776306
1508.957520	541.916626
1508.090088	559.115295
1507.222534	582.071045
1506.354736	535.873840
1505.486938	561.706238
1504.618896	570.249329
1503.750610	575.909973
1502.882324	567.173340
1502.013794	564.196777
1501.145142	535.318726
1500.276367	555.369141
1499.407471	575.412659
1498.538330	566.683533
1497.669067	578.089905
1496.799683	580.865540
1495.930176	615.266052
1495.060547	523.173218
1494.190674	566.193970
1493.320679	594.831970
1492.450562	543.013550
1491.580200	537.174500
1490.709717	583.035095
1489.839233	600.163879
1488.968384	594.317932
1488.097534	631.533020
1487.226440	591.242249
1486.355347	594.009644
1485.483887	579.561279
1484.612427	611.015869
1483.740845	645.327637
1482.869019	524.775635
1481.997070	576.293213
1481.124878	604.859863
1480.252686	682.140930
1479.380249	616.113098
1478.507690	613.141296
1477.635010	627.358459
1476.762207	647.298950
1475.889160	627.141296
1475.015991	669.980164
1474.142700	675.589539
1473.269165	709.818604
1472.395630	703.972351
1471.521851	709.572815
1470.647949	758.081604
1469.773804	763.670715
1468.899658	823.592041
1468.025269	832.026978
1467.150757	889.056946
1466.276001	900.335815
1465.401245	1045.923218
1464.526245	1022.884277
1463.651123	1091.268433
1462.775879	1196.759766
1461.900391	1285.080200
1461.024780	1401.922241
1460.149048	1435.936157
1459.273193	1461.375610
1458.397217	1435.438477
1457.520996	1455.162476
1456.644653	1429.235352
1455.768188	1363.385376
1454.891479	1403.073853
1454.014648	1280.225464
1453.137695	1277.152710
1452.260620	1205.673828
1451.383423	1185.516235
1450.505981	1071.338379
1449.628418	1022.722839
1448.750732	1028.242065
1447.872803	985.346375
1446.994873	951.007507
1446.116699	962.229858
1445.238403	851.055603
1444.359863	964.741821
1443.481201	944.656921
1442.602417	961.562134
1441.723511	950.017822
1440.844482	935.633545
1439.965210	969.591675
1439.085815	972.266235
1438.206299	1065.896362
1437.326538	1025.924805
1436.446777	1068.367676
1435.566772	1090.909424
1434.686646	1090.719971
1433.806274	1005.332886
1432.925781	965.406311
1432.045166	897.104126
1431.164429	843.017883
1430.283569	845.709412
1429.402466	783.138428
1428.521240	700.730347
1427.639893	677.916870
1426.758301	694.814941
1425.876709	711.707092
1424.994873	671.893555
1424.112793	649.100769
1423.230713	665.992004
1422.348389	682.877319
1421.465942	645.929321
1420.583374	727.960449
1419.700562	634.376648
1418.817627	676.739502
1417.934570	736.073975
1417.051392	690.656982
1416.167969	718.837585
1415.284546	727.201355
1414.400757	673.322266
1413.516968	681.690918
1412.633057	684.400452
1411.748901	692.764221
1410.864624	689.816589
1409.980103	638.817322
1409.095459	601.966431
1408.210815	655.548889
1407.325806	663.910278
1406.440796	604.476929
1405.555542	629.789185
1404.670166	601.442871
1403.784668	652.155457
1402.899048	657.687317
1402.013184	632.173035
1401.127197	671.566895
1400.241089	629.131714
1399.354736	645.946533
1398.468262	643.013855
1397.581665	662.640076
1396.694946	656.886169
1395.807983	628.584106
1394.920898	667.930420
1394.033691	605.822937
1393.146362	690.236084
1392.258789	656.314270
1391.371094	616.771606
1390.483276	639.190674
1389.595337	684.124512
1388.707153	667.116272
1387.818848	689.514832
1386.930420	630.303650
1386.041748	627.380432
1385.152954	601.955200
1384.264038	632.786499
1383.375000	672.042725
1382.485718	694.416809
1381.596313	688.673889
1380.706787	696.985107
1379.817139	710.913208
1378.927246	682.694824
1378.037231	761.226440
1377.147095	702.115906
1376.256714	721.649292
1375.366333	755.213196
1374.475586	727.011536
1373.584839	735.304199
1372.693970	774.460144
1371.802856	746.269714
1370.911499	729.309326
1370.020142	760.032043
1369.128540	754.291260
1368.236816	720.516846
1367.344971	703.572632
1366.453003	739.883423
1365.560791	792.994202
1364.668457	792.855713
1363.775879	756.302734
1362.883301	795.379517
1361.990479	840.042969
1361.097534	865.093140
1360.204346	806.159607
1359.311035	884.381714
1358.417603	898.218201
1357.524048	923.240601
1356.630249	855.946289
1355.736450	825.032776
1354.842285	858.443481
1353.948120	824.744568
1353.053711	768.695313
1352.159180	729.434265
1351.264526	754.455261
1350.369751	729.179321
1349.474731	726.258545
1348.579590	700.996277
1347.684204	728.796997
1346.788818	706.334900
1345.893188	655.967102
1344.997314	689.342773
1344.101440	747.820068
1343.205322	700.261230
1342.309082	711.296387
1341.412720	686.071777
1340.516113	752.873962
1339.619385	797.349182
1338.722534	786.059937
1337.825439	780.348511
1336.928223	824.795532
1336.030884	830.223206
1335.133423	869.074890
1334.235718	899.557922
1333.337891	874.339783
1332.439941	966.059875
1331.541870	1035.479492
1330.643555	1166.102051
1329.745117	1149.202515
1328.846436	1285.323486
1327.947754	1276.753662
1327.048828	1270.967896
1326.149780	1145.617310
1325.250488	1048.111938
1324.351074	1047.928345
1323.451538	925.461609
1322.551880	916.963501
1321.651978	847.348083
1320.751953	766.646240
1319.851807	788.729736
1318.951416	813.582092
1318.050903	760.690918
1317.150269	732.800049
1316.249512	696.593140
1315.348511	735.318054
1314.447388	690.800415
1313.546021	674.036438
1312.644653	668.371643
1311.743042	734.802673
1310.841309	679.226807
1309.939331	681.879578
1309.037231	665.131714
1308.135010	737.058411
1307.232666	678.750549
1306.330078	692.481140
1305.427368	714.515259
1304.524536	722.696777
1303.621460	816.697937
1302.718262	741.819153
1301.814941	727.851563
1300.911499	752.626953
1300.007813	727.596191
1299.104004	782.789307
1298.199951	774.355286
1297.295898	735.508423
1296.391602	829.375244
1295.487061	831.993774
1294.582520	947.919495
1293.677734	986.436951
1292.772827	897.859192
1291.867676	861.793518
1290.962402	781.553650
1290.057007	676.491272
1289.151489	703.979492
1288.245728	643.131104
1287.339844	656.816833
1286.433838	645.664429
1285.527588	667.621155
1284.621216	615.096558
1283.714722	581.894958
1282.808105	631.424377
1281.901245	628.556580
1280.994263	620.177124
1280.087036	653.138489
1279.179810	617.203857
1278.272217	641.889404
1277.364624	581.179626
1276.456787	583.831421
1275.548828	600.249451
1274.640747	624.920471
1273.732544	608.295837
1272.824097	594.428955
1271.915405	555.803406
1271.006714	640.987244
1270.097778	638.124023
1269.188721	577.510681
1268.279541	624.151733
1267.370117	629.540161
1266.460571	640.423828
1265.550781	621.074341
1264.640991	618.217468
1263.730957	590.637207
1262.820679	623.493286
1261.910400	601.414124
1260.999878	642.493774
1260.089233	612.183289
1259.178345	590.117737
1258.267334	658.620117
1257.356201	598.141296
1256.444824	614.495728
1255.533447	652.786743
1254.621704	652.671814
1253.709961	638.847778
1252.797974	685.338257
1251.885864	644.104553
1250.973633	545.337158
1250.061157	646.617615
1249.148560	599.933533
1248.235840	624.478333
1247.322876	583.291443
1246.409790	585.926697
1245.496582	610.460876
1244.583130	613.090332
1243.669556	552.778687
1242.755859	593.721985
1241.841919	599.088501
1240.927856	615.393372
1240.013672	620.754150
1239.099365	601.505920
1238.184814	541.259888
1237.270142	576.695496
1236.355225	587.524475
1235.440186	587.420898
1234.525024	576.390503
1233.609741	548.976624
1232.694214	595.302429
1231.778564	592.467224
1230.862671	638.768982
1229.946777	614.092651
1229.030640	608.526672
1228.114258	646.616089
1227.197876	621.951294
1226.281128	610.932068
1225.364380	646.273865
1224.447388	646.159851
1223.530273	656.949524
1222.613037	746.773499
1221.695557	683.967346
1220.777954	730.162964
1219.860229	803.582275
1218.942261	803.440430
1218.024170	762.452881
1217.105957	751.428040
1216.187500	800.292847
1215.268921	723.946655
1214.350220	647.627319
1213.431274	701.925842
1212.512207	690.921204
1211.593018	693.518860
1210.673706	619.977905
1209.754150	630.743286
1208.834351	649.659546
1207.914551	611.496094
1206.994507	652.147278
1206.074219	600.412842
1205.153931	573.143555
1204.233398	556.747192
1203.312744	586.517761
1202.391846	594.558716
1201.470825	594.453613
1200.549683	569.923279
1199.628296	561.682190
1198.706787	621.268005
1197.785156	596.745850
1196.863281	599.352356
1195.941284	620.938538
1195.019165	580.163086
1194.096802	547.533691
1193.174438	612.478882
1192.251709	531.082397
1191.328979	625.807800
1190.406006	593.193359
1189.482788	593.088440
1188.559570	620.060364
1187.636108	603.707397
1186.712402	590.066895
1185.788696	622.437500
1184.864746	597.975403
1183.940552	576.227234
1183.016357	622.107056
1182.091919	586.840576
1181.167236	562.401978
1180.242554	583.929382
1179.317505	608.152100
1178.392456	616.151672
1177.467163	640.360046
1176.541748	645.649536
1175.616211	634.731262
1174.690430	683.227966
1173.764526	664.206726
1172.838501	763.972412
1171.912231	715.253784
1170.985840	852.755249
1170.059204	833.717346
1169.132446	987.334900
1168.205566	935.913940
1167.278564	986.984985
1166.351318	962.544250
1165.423828	911.154907
1164.496338	897.517151
1163.568604	929.695251
1162.640747	886.421753
1161.712646	859.326477
1160.784424	805.307373
1159.856079	840.171753
1158.927490	829.253235
1157.998779	885.636169
1157.069946	826.267700
1156.140869	871.867249
1155.211670	912.069702
1154.282349	938.807800
1153.352783	960.157410
1152.423096	976.121277
1151.493164	1016.276550
1150.563232	1008.031921
1149.632935	994.415039
1148.702637	913.624573
1147.772095	889.282532
1146.841431	811.225586
1145.910522	738.567627
1144.979492	698.158203
1144.048340	738.305420
1143.116943	638.856384
1142.185425	649.478088
1141.253784	665.462646
1140.321899	673.393005
1139.389893	654.496887
1138.457764	576.605896
1137.525391	643.538757
1136.592896	624.657898
1135.660278	659.392883
1134.727417	624.435974
1133.794434	616.286499
1132.861206	592.065735
1131.927856	661.602966
1130.994385	731.115417
1130.060669	709.564636
1129.126831	730.855530
1128.192871	736.078918
1127.258667	722.567200
1126.324341	725.114502
1125.389893	716.959900
1124.455200	623.216248
1123.520386	625.779724
1122.585327	612.299438
1121.650146	598.823975
1120.714844	649.501526
1119.779297	582.576721
1118.843628	630.567200
1117.907837	574.355225
1116.971802	550.214539
1116.035645	606.196533
1115.099365	568.708740
1114.162842	589.963745
1113.226196	592.527771
1112.289307	584.416626
1111.352417	562.967834
1110.415161	642.896240
1109.477905	552.098877
1108.540405	586.667297
1107.602661	621.223389
1106.664917	607.784241
1105.726807	570.362549
1104.788696	620.891663
1103.850342	647.424072
1102.911865	572.721741
1101.973145	649.856812
1101.034302	663.055420
1100.095337	572.415771
1099.156128	604.256897
1098.216797	582.857666
1097.277344	572.109924
1096.337646	587.970947
1095.397827	566.585999
1094.457764	603.718750
1093.517700	600.952087
1092.577271	566.283142
1091.636841	579.472839
1090.696167	616.576782
1089.755249	550.037231
1088.814209	605.730103
1087.873047	597.653381
1086.931763	621.448730
1085.990234	586.819153
1085.048584	530.963318
1084.106689	562.720764
1083.164673	549.351074
1082.222412	636.815186
1081.280151	591.601868
1080.337524	612.715942
1079.394897	567.523010
1078.452026	631.057861
1077.509033	622.992188
1076.565796	657.338257
1075.622437	577.718384
1074.678955	564.367249
1073.735229	580.161316
1072.791382	609.193115
1071.847290	534.934998
1070.903076	577.203003
1069.958740	622.103149
1069.014160	629.932434
1068.069458	603.356934
1067.124512	576.790894
1066.179565	663.984680
1065.234253	613.613281
1064.288940	650.525452
1063.343384	663.628967
1062.397583	711.092834
1061.451660	697.750793
1060.505615	676.485962
1059.559448	684.291260
1058.613037	713.226379
1057.666382	639.147888
1056.719727	678.643188
1055.772827	678.521912
1054.825684	633.525879
1053.878418	620.216553
1052.931030	646.493164
1051.983398	678.036926
1051.035645	596.143738
1050.087769	664.607788
1049.139648	688.220703
1048.191406	624.824280
1047.242920	643.164001
1046.294312	703.664246
1045.345581	708.808350
1044.396606	706.047058
1043.447510	732.261047
1042.498291	729.496521
1041.548828	734.632141
1040.599121	742.398560
1039.649414	686.990601
1038.699341	800.029785
1037.749268	739.368896
1036.798950	773.436096
1035.848511	749.625305
1034.897827	741.601746
1033.947021	780.908813
1032.996094	749.222778
1032.044922	735.946716
1031.093506	667.489319
1030.142090	688.389282
1029.190430	640.980591
1028.238525	630.359802
1027.286499	606.612610
1026.334351	614.380615
1025.381958	630.021118
1024.429443	611.535950
1023.476807	572.064148
1022.523926	621.811523
1021.570923	587.598389
1020.617737	624.211426
1019.664368	600.499146
1018.710815	566.308167
1017.757080	605.526611
1016.803223	573.967773
1015.849121	592.207581
1014.894897	623.540466
1013.940491	667.959290
1012.985962	578.794250
1012.031189	646.771667
1011.076294	591.676880
1010.121216	604.658630
1009.165955	622.869873
1008.210510	627.991394
1007.254944	627.878784
1006.299133	682.695679
1005.343201	648.575317
1004.387085	661.532715
1003.430786	682.328308
1002.474365	692.661133
1001.517700	721.283630
1000.560913	710.702698
999.603943	838.583130
998.646790	833.208740
997.689514	825.224792
996.731995	780.689575
995.774353	801.433716
994.816528	736.038208
993.858521	759.392395
992.900330	725.337402
991.942017	641.730042
990.983459	633.790222
990.024780	633.676392
989.065918	615.311829
988.106873	615.201294
987.147705	602.059204
986.188293	648.856262
985.228760	622.685913
984.269043	653.832947
983.309143	622.462158
982.349060	632.766174
981.388794	663.894531
980.428406	653.363098
979.467834	653.245605
978.507019	702.568176
977.546082	751.872986
976.585022	756.940125
975.623718	855.630676
974.662292	964.686646
973.700623	990.510803
972.738831	1003.329163
971.776855	1018.741699
970.814758	906.828857
969.852417	880.686768
968.889954	820.787476
967.927246	750.521851
966.964417	745.193848
966.001404	674.967041
965.038208	674.845581
964.074890	674.724121
963.111328	664.224182
962.147644	684.857910
961.183777	638.048218
960.219727	624.967224
959.255493	650.782288
958.291077	622.149902
957.326538	632.405212
956.361755	668.570374
955.396851	676.222656
954.431763	637.244507
953.466492	629.359863
952.501038	605.941040
951.535461	587.708740
950.569641	636.785461
949.603699	615.966003
948.637573	628.793213
947.671265	649.377197
946.704773	644.086792
945.738098	677.591675
944.771240	739.527832
943.804260	695.444519
942.837097	679.810181
941.869751	780.477844
940.902222	775.169373
939.934509	728.527832
938.966614	733.562378
937.998535	741.177612
937.030334	684.239197
936.061951	686.697388
935.093323	673.668030
934.124573	655.482056
933.155640	616.661255
932.186584	706.839783
931.217285	598.384094
930.247864	685.954529
929.278198	616.216370
928.308411	598.060242
927.338440	590.220215
926.368286	602.998291
925.397949	605.465881
924.427429	592.476685
923.456787	641.304626
922.485901	607.713135
921.514893	623.050964
920.543701	646.105591
919.572327	594.515747
918.600769	681.897034
917.629028	578.864624
916.657104	619.916382
915.685059	617.232605
914.712769	617.121155
913.740356	617.009644
912.767761	658.024719
911.794983	588.517334
910.822021	634.661682
909.848877	613.994873
908.875549	639.569458
907.902039	636.885742
906.928406	621.364929
905.954590	641.789917
904.980530	649.373962
904.006348	631.292969
903.031982	649.139221
902.057434	731.111572
901.082703	702.766174
900.107849	702.639099
899.132751	725.587219
898.157532	717.765686
897.182068	697.131958
896.206482	717.506042
895.230713	650.762756
894.254761	699.315308
893.278625	660.771851
892.302307	701.622986
891.325806	650.291931
890.349182	645.054810
889.372314	639.819519
888.395325	642.262512
887.418091	634.471191
886.440735	613.893250
885.463196	639.356384
884.485474	634.126709
883.507568	649.350952
882.529480	628.785034
881.551270	618.448914
880.572815	628.557373
879.594238	641.216797
878.615417	613.004578
877.636475	697.166443
876.657349	638.315186
875.677979	676.491516
874.698486	604.903564
873.718811	650.727661
872.739014	650.609741
871.758972	660.695679
870.778748	680.979858
869.798401	632.405945
868.817810	698.579956
867.837097	690.806030
866.856140	662.645813
865.875061	606.465820
864.893799	705.716675
863.912354	685.210754
862.930725	669.805725
861.948914	682.415894
860.966919	725.571899
859.984741	730.531128
859.002441	682.044678
858.019897	720.088196
857.037231	730.133667
856.054321	750.349670
855.071289	648.489685
854.088074	729.736328
853.104614	729.603943
852.121033	734.554932
851.137268	742.045410
850.153320	767.318604
849.169189	835.768188
848.184937	807.677979
847.200439	855.780090
846.215759	858.163635
845.230896	967.162659
844.245911	1012.671509
843.260681	1159.666260
842.275330	1359.886719
841.289795	1473.788574
840.304016	1405.044067
839.318115	1310.967163
838.332031	1067.344116
837.345764	1069.685059
836.359314	955.445496
835.372681	935.000854
834.385864	980.432495
833.398865	934.661133
832.411743	901.568787
831.424377	878.616577
830.436829	893.646362
829.449158	837.799377
828.461243	845.239014
827.473206	845.085388
826.484924	877.818298
825.496521	822.014587
824.507935	776.346436
823.519104	816.658936
822.530151	773.536194
821.541016	763.285767
820.551697	821.267395
819.562195	788.273254
818.572510	810.864380
817.582642	825.870422
816.592590	840.871033
815.602356	911.408997
814.611938	933.961121
813.621399	1034.741577
812.630615	1110.252197
811.639648	1233.669434
810.648560	1480.638306
809.657227	1649.337524
808.665771	1812.932373
807.674072	1784.871338
806.682251	1532.491699
805.690186	1350.766479
804.697998	1131.312866
803.705566	982.475830
802.713013	949.553650
801.720276	914.125183
800.727356	873.673950
799.734253	775.338806
798.740906	792.815674
797.747437	807.769714
796.753784	825.234253
795.759949	759.680847
794.765930	731.876953
793.771729	691.510254
792.777344	739.152588
791.782776	761.640808
790.788025	756.475586
789.793091	675.929688
788.798035	700.929321
787.802734	668.147705
786.807251	713.230591
785.811584	720.633301
784.815796	738.075073
783.819763	655.110413
782.823547	644.952759
781.827148	664.907776
780.830627	702.415894
779.833862	637.075317
778.836975	677.082458
777.839844	649.379150
776.842529	634.219849
775.845093	666.686523
774.847412	661.553040
773.849609	658.926880
772.851563	633.756897
771.853394	763.875793
770.854980	698.630920
769.856445	733.553711
768.857666	668.338196
767.858765	683.232239
766.859680	648.076294
765.860352	718.007446
764.860901	675.354004
763.861206	675.230652
762.861389	645.102539
761.861389	712.483093
760.861145	642.367371
759.860779	667.240234
758.860168	657.124023
757.859436	647.011475
756.858521	699.344055
755.857361	709.205017
754.856079	664.134033
753.854614	646.538574
752.852905	703.824524
751.851074	703.695862
750.848999	736.001160
749.846802	680.988342
748.844421	710.791931
747.841797	710.661926
746.839050	663.163147
745.836121	697.938782
744.832947	662.920593
743.829651	692.700012
742.826111	754.855042
741.822449	697.428223
740.818604	679.868103
739.814514	697.173035
738.810303	694.555969
737.805847	704.384827
736.801270	714.210022
735.796448	711.591248
734.791504	723.899109
733.786316	691.433350
732.781006	693.793518
731.775452	691.180176
730.769775	703.482666
729.763855	700.868469
728.757751	660.981812
727.751526	708.065125
726.745056	675.643616
725.738403	705.322205
724.731628	705.192993
723.724609	729.890015
722.717407	670.184326
721.710083	689.915161
720.702515	712.120056
719.694763	714.470337
718.686829	689.535950
717.678711	746.447083
716.670410	756.227966
715.661987	711.467651
714.653320	731.165466
713.644470	726.075256
712.635437	708.598816
711.626221	703.514526
710.616821	752.919739
709.607178	708.209045
708.597412	742.740356
707.587463	670.819031
706.577332	690.495117
705.567017	700.266235
704.556458	670.449951
703.545776	643.118103
702.534912	732.030823
701.523804	672.553528
700.512573	716.929199
699.501099	694.552124
698.489502	704.309692
697.477661	726.417725
696.465698	748.517578
695.453491	708.861694
694.441101	688.975952
693.428589	686.380493
692.415833	752.905029
691.402893	740.426331
690.389771	725.484558
689.376465	722.884094
688.362976	720.284607
687.349304	779.342896
686.335449	742.212402
685.321411	714.956970
684.307190	732.080017
683.292725	699.907471
682.278137	719.490906
681.263367	724.285828
680.248352	734.005066
679.233215	775.735229
678.217834	728.810852
677.202332	760.679565
676.186584	674.394470
675.170654	757.939087
674.154541	703.671143
673.138306	745.360657
672.121826	745.223572
671.105164	681.151733
670.088318	735.115173
669.071289	737.438049
668.054016	666.029846
667.036621	737.166748
666.019043	692.809265
665.001282	695.138123
663.983276	655.716309
662.965149	709.614746
661.946777	724.213928
660.928223	716.717102
659.909546	738.671692
658.890625	723.814087
657.871521	731.040283
656.852234	770.148987
655.832764	693.987366
654.813110	750.250977
653.793274	696.183105
652.773254	727.916565
651.752991	720.431152
650.732605	698.248535
649.711975	739.762146
648.691223	724.931274
647.670227	680.722168
646.649048	795.661682
645.627747	746.560303
644.606201	731.739014
643.584473	773.200378
642.562561	760.825928
641.540466	736.226318
640.518127	736.090637
639.495667	728.619812
638.473022	760.265076
637.450134	782.122070
636.427063	747.766357
635.403870	706.093506
634.380432	735.276672
633.356812	752.237366
632.333008	695.935425
631.309021	734.869873
630.284851	761.585083
629.260498	746.801392
628.235901	763.744141
627.211182	744.086243
626.186218	712.239624
625.161133	724.301819
624.135803	775.371948
623.110291	765.477539
622.084595	740.962463
621.058716	774.942627
620.032654	726.070068
619.006409	799.016785
617.979919	806.176025
616.953308	747.584106
615.926453	752.315369
614.899414	774.084473
613.872253	752.037537
612.844849	771.365234
611.817261	773.655640
610.789490	773.512695
609.761475	732.026123
608.733337	768.363831
607.705017	814.412415
606.676453	809.400635
605.647705	736.345581
604.618774	748.358154
603.589722	745.790527
602.560425	738.366150
601.530884	779.512268
600.501221	740.521118
599.471375	818.063843
598.441284	779.079956
597.411011	754.669983
596.380615	761.808838
595.349976	781.073486
594.319153	763.952271
593.288147	766.235779
592.256897	829.127075
591.225525	778.071777
590.193970	777.927856
589.162170	755.976868
588.130188	741.301636
587.098022	770.229736
586.065674	757.978882
585.033142	818.368835
584.000427	750.436035
582.967468	805.964294
581.934387	759.837646
580.901062	776.632935
579.867554	807.935730
578.833862	793.274963
577.799988	771.365417
576.765930	790.563538
575.731628	751.742310
574.697205	821.688232
573.662537	794.956909
572.627747	811.720459
571.592712	785.000793
570.557434	753.461121
569.522034	811.269348
568.486450	721.799377
567.450623	832.691040
566.414673	772.207947
565.378479	788.953735
564.342102	800.868774
563.305542	805.543945
562.268799	810.217285
561.231812	843.819885
560.194702	855.715759
559.157349	857.967102
558.119812	877.084534
557.082092	840.784973
556.044189	797.272827
555.006042	840.473083
553.967773	809.015991
552.929260	816.087891
551.890625	784.646851
550.851746	859.101074
549.812683	808.415710
548.773376	796.237915
547.733948	906.724976
546.694275	827.202942
545.654419	863.112610
544.614441	810.069458
543.574158	831.548950
542.533752	865.034851
541.493164	872.081482
540.452332	843.095764
539.411316	869.356079
538.370178	886.002258
537.328735	900.241577
536.287170	926.476501
535.245422	880.709106
534.203430	849.354492
533.161255	897.173889
532.118896	875.421509
531.076355	870.462891
530.033630	932.636719
528.990723	867.742249
527.947571	939.479980
526.904236	908.154907
525.860718	821.739380
524.817017	910.212585
523.773132	926.807312
522.729004	893.113281
521.684692	924.068726
520.640198	878.420105
519.595520	868.684448
518.550659	839.811340
517.505615	920.989258
516.460327	844.282410
515.414856	829.777588
514.369202	843.968323
513.323364	853.372864
512.277283	812.584839
511.231079	819.602173
510.184631	821.838684
509.138000	809.742615
508.091187	771.381042
507.044159	821.379822
505.996948	768.706604
504.949554	842.555603
503.901947	797.057190
502.854126	775.435181
501.806152	863.554626
500.757965	901.554871
499.709564	844.156006
