#Wave		#Intensity
3200.600830	16.839409
3200.007080	25.259113
3199.413086	33.673729
3198.819092	12.625739
3198.224854	42.079437
3197.630615	12.621923
3197.036377	8.413343
3196.442139	25.236216
3195.847656	42.054001
3195.252930	33.638115
3194.658447	4.204128
3194.063721	4.203493
3193.468750	12.608572
3192.873779	4.202222
3192.278809	-12.604758
3191.683838	42.009510
3191.088623	33.602524
3190.493164	16.798721
3189.897949	8.398090
3189.302490	37.785690
3188.706787	50.373299
3188.111328	12.591420
3187.515381	8.393010
3186.919678	0.000000
3186.323730	-4.195235
3185.727783	62.919010
3185.131592	-8.387932
3184.535400	20.966658
3183.939209	16.770788
3183.342773	4.192062
3182.746338	37.722851
3182.149902	-12.572381
3181.553223	20.950798
3180.956543	25.137152
3180.359619	20.944456
3179.762695	12.564772
3179.165771	-8.375246
3178.568604	20.934946
3177.971436	12.559066
3177.374268	16.742886
3176.776855	54.406143
3176.179443	33.475632
3175.581787	12.551461
3174.984131	46.015057
3174.386475	0.000000
3173.788574	20.909601
3173.190674	4.181287
3172.592773	25.083921
3171.994629	33.440163
3171.396484	33.435097
3170.798340	20.893770
3170.199951	29.246849
3169.601563	16.709953
3169.002930	12.530566
3168.404297	12.528667
3167.805664	0.000000
3167.206787	16.699829
3166.607910	20.871622
3166.008789	25.042152
3165.409912	41.730595
3164.810547	16.689709
3164.211426	37.546154
3163.612061	16.684650
3163.012695	37.534775
3162.413086	54.208675
3161.813477	12.507798
3161.213623	20.843170
3160.614014	29.176016
3160.013916	16.669481
3159.414063	-4.166739
3158.813965	29.162746
3158.213867	20.827375
3157.613525	-4.164844
3157.013184	12.492636
3156.412598	29.145063
3155.812256	16.651796
3155.211426	16.649271
3154.610840	24.970118
3154.010010	24.966331
3153.409180	4.160424
3152.808105	37.438137
3152.207031	24.954971
3151.605957	41.585308
3151.004639	29.105301
3150.403320	33.258156
3149.801758	33.253109
3149.200195	24.936047
3148.598633	12.466131
3147.996826	33.237972
3147.395020	20.770580
3146.793213	53.995316
3146.191162	16.611422
3145.589111	29.065575
3144.986816	33.212757
3144.384766	12.452894
3143.782227	29.052341
3143.179932	12.449114
3142.577393	24.894447
3141.974609	0.000000
3141.371826	24.886889
3140.769043	12.441555
3140.166260	20.732777
3139.563232	41.459255
3138.960205	33.162369
3138.356934	4.144667
3137.753662	16.576149
3137.150391	8.286816
3136.546875	12.428335
3135.943359	4.142149
3135.339600	37.273682
3134.735840	12.422673
3134.132080	24.841572
3133.528076	12.418899
3132.924072	16.556017
3132.320068	37.245377
3131.715820	4.137746
3131.111572	57.919647
3130.507080	12.409467
3129.902588	12.407581
3129.298096	28.946623
3128.693604	12.403811
3128.088867	16.535900
3127.483887	41.333466
3126.878906	4.132719
3126.273926	24.792542
3125.668945	20.657310
3125.063721	33.046673
3124.458252	0.000000
3123.853027	12.388735
3123.247559	28.902651
3122.641846	4.128323
3122.036133	45.404640
3121.430420	49.524803
3120.824707	0.000000
3120.218750	12.377436
3119.612549	16.500738
3119.006592	-4.124557
3118.400391	20.619648
3117.793945	41.233025
3117.187500	24.736052
3116.581055	-8.244096
3115.974609	0.000000
3115.367920	4.120794
3114.760986	-4.120167
3114.154297	16.478161
3113.547363	61.783699
3112.940186	4.118287
3112.333008	12.352980
3111.725830	0.000000
3111.118408	28.814846
3110.510986	24.694681
3109.903564	37.036385
3109.295898	32.916218
3108.688232	37.025108
3108.080566	12.339825
3107.472656	4.112648
3106.864746	-8.224045
3106.256592	-16.445585
3105.648438	-4.110771
3105.040039	24.660868
3104.431885	16.438076
3103.823486	36.980038
3103.214844	8.216535
3102.606201	4.107642
3101.997559	8.214032
3101.388672	36.957516
3100.779785	8.211531
3100.170898	12.315419
3099.561768	41.045143
3098.952637	36.935001
3098.343262	20.516319
3097.733887	16.410555
3097.124512	8.204027
3096.514893	8.202778
3095.905273	45.108402
3095.295410	12.300417
3094.685791	12.298543
3094.075684	4.098889
3093.465820	4.098265
3092.855713	36.878761
3092.245361	24.582094
3091.635254	20.481956
3091.024658	4.095767
3090.414307	8.190285
3089.803711	12.283554
3089.193115	-4.093894
3088.582275	0.000000
3087.971436	32.741165
3087.360596	28.644152
3086.749512	20.456989
3086.138428	-20.453869
3085.527100	24.540901
3084.915771	20.447632
3084.304443	12.266707
3083.692871	-12.264837
3083.081299	24.525932
3082.469482	44.957352
3081.857910	20.432043
3081.245850	-4.085785
3080.634033	8.170323
3080.021973	40.845387
3079.409668	8.167830
3078.797607	4.083292
3078.185059	28.578684
3077.572754	8.164093
3076.960205	20.407116
3076.347656	-4.080801
3075.734863	28.561245
3075.122070	8.159110
3074.509033	-20.394661
3073.895996	32.626480
3073.282959	4.077687
3072.669922	0.000000
3072.056641	0.000000
3071.443115	8.151640
3070.829834	28.526384
3070.216064	12.223727
3069.602539	4.073954
3068.988770	8.146663
3068.375000	32.581676
3067.760986	44.792961
3067.146973	16.285862
3066.532715	20.354219
3065.918701	4.070222
3065.304199	20.348001
3064.689941	0.000000
3064.075439	24.410143
3063.460693	8.135471
3062.846191	36.604027
3062.231445	32.531944
3061.616455	24.395229
3061.001465	28.456753
3060.386475	32.517033
3059.771240	24.384048
3059.156006	12.190162
3058.540771	20.313831
3057.925293	8.124290
3057.309814	44.676769
3056.694092	16.243614
3056.078369	36.542545
3055.462646	32.477299
3054.846680	20.295208
3054.230713	40.584213
3053.614502	16.231203
3052.998291	12.171541
3052.382080	48.678719
3051.765625	16.223759
3051.149170	24.331917
3050.532715	32.437595
3049.916016	-16.216318
3049.299316	28.374216
3048.682373	24.317038
3048.065430	28.365538
3047.448486	0.000000
3046.831299	36.458820
3046.214111	36.453243
3045.596680	20.248703
3044.979248	32.392971
3044.361816	44.533520
3043.744141	20.239412
3043.126465	16.189053
3042.508545	12.139931
3041.890869	4.046024
3041.272705	28.317837
3040.654785	28.313503
3040.036621	52.574173
3039.418213	12.130645
3038.799805	28.300505
3038.181396	16.169241
3037.562988	8.083384
3036.944336	36.369656
3036.325439	44.444996
3035.706543	8.079672
3035.087646	44.431389
3034.468750	56.540382
3033.849609	40.379803
3033.230469	32.298897
3032.611084	32.293949
3031.991699	12.108377
3031.372070	32.284061
3030.752441	16.139557
3030.132813	28.239901
3029.513184	-8.067307
3028.893066	12.099107
3028.273193	28.226925
3027.653076	28.222601
3027.032959	32.249458
3026.412598	4.030565
3025.792480	8.059895
3025.171875	12.087989
3024.551270	28.200987
3023.930664	20.140474
3023.310059	12.082433
3022.689209	-16.107441
3022.068115	28.183702
3021.447266	32.205009
3020.826172	8.050018
3020.204834	28.170746
3019.583496	44.261528
3018.962158	20.115791
3018.340576	44.247959
3017.718994	44.241173
3017.097412	28.149158
3016.475586	4.020692
3015.853760	32.160603
3015.231689	36.175129
3014.609619	24.113054
3013.987549	8.036452
3013.365234	36.158489
3012.742920	36.152943
3012.120361	4.016377
3011.497803	24.094568
3010.875244	28.106018
3010.252441	40.145294
3009.629639	44.153049
3009.006836	36.119678
3008.383789	28.088774
3007.760498	32.096531
3007.137451	48.137409
3006.514160	68.184196
3005.890625	40.102196
3005.267090	32.076832
3004.643555	32.071911
3004.019775	44.092110
3003.395996	28.054308
3002.772217	48.085716
3002.148193	16.026112
3001.524170	36.053215
3000.899902	20.026489
3000.275635	64.074928
2999.651367	44.044750
2999.026855	36.031082
2998.402344	16.011354
2997.777588	24.013344
2997.152832	32.012875
2996.528076	16.003979
2995.903076	12.001142
2995.278076	19.998829
2994.653076	27.994061
2994.027832	31.988298
2993.402344	15.991693
2992.777100	23.983854
2992.151367	47.960339
2991.525879	35.964729
2990.900146	67.922935
2990.274414	39.948528
2989.648438	47.930870
2989.022461	31.949003
2988.396240	43.923130
2987.770264	27.946787
2987.143799	47.901413
2986.517578	39.911709
2985.891113	31.924459
2985.264404	51.869274
2984.637695	23.935986
2984.010986	43.875893
2983.384033	31.904835
2982.757080	51.837387
2982.130127	35.881905
2981.502930	67.766510
2980.875732	55.799133
2980.248291	51.805511
2979.620850	55.781971
2978.993408	43.821953
2978.365723	79.664024
2977.738037	67.704002
2977.110107	51.765686
2976.482178	67.683182
2975.854248	55.730515
2975.226074	83.582909
2974.597900	55.713367
2973.969482	59.683712
2973.341309	87.522644
2972.712646	119.330696
2972.083984	87.495712
2971.455322	87.482246
2970.826660	99.396347
2970.197754	143.108719
2969.568604	111.289650
2968.939697	127.168594
2968.310547	143.042648
2967.681152	119.183861
2967.051758	174.776077
2966.422363	178.720749
2965.792725	142.954590
2965.163086	174.695374
2964.533203	190.547440
2963.903564	182.579849
2963.273438	214.299850
2962.643311	146.812469
2962.013184	234.070328
2961.383057	222.134232
2960.752686	218.133957
2960.122314	214.134903
2959.491699	237.891022
2958.861084	202.176224
2958.230225	229.890472
2957.599609	237.781097
2956.968506	245.669281
2956.337646	233.746048
2955.706299	269.360718
2955.075195	233.674026
2954.443848	217.798157
2953.812500	237.561371
2953.180908	245.442261
2952.549316	288.943939
2951.917725	312.644562
2951.285889	308.639435
2950.653809	288.810333
2950.021973	245.253174
2949.389893	280.811157
2948.757568	320.312622
2948.125244	316.309387
2947.492920	292.541077
2946.860352	260.874786
2946.227783	296.402893
2945.595215	244.988617
2944.962402	205.442642
2944.329590	237.012650
2943.696533	221.177689
2943.063477	221.143585
2942.430420	177.677246
2941.797119	201.336502
2941.163574	122.362129
2940.530273	213.114059
2939.896729	185.459549
2939.262939	177.540253
2938.629150	165.678680
2937.995361	205.094330
2937.361328	185.345123
2936.727295	185.316528
2936.093262	212.884003
2935.458984	212.851151
2934.824707	197.053986
2934.190186	200.964035
2933.555664	216.692474
2932.921143	224.537537
2932.286377	259.950714
2931.651367	259.910583
2931.016602	283.495056
2930.381592	271.640808
2929.746338	314.897247
2929.111084	314.848633
2928.475830	338.410004
2927.840332	369.832886
2927.204834	389.444702
2926.569336	342.186432
2925.933594	393.257019
2925.297607	432.515900
2924.661865	373.478760
2924.025879	416.659302
2923.389648	361.572968
2922.753418	365.446655
2922.117188	447.897675
2921.480713	491.039978
2920.844238	400.626740
2920.207764	420.200348
2919.571045	427.988434
2918.934082	420.070526
2918.297363	482.810181
2917.660156	431.714752
2917.023193	427.723938
2916.385986	443.351715
2915.748779	404.054596
2915.111328	427.525665
2914.473877	403.929688
2913.836182	427.393494
2913.198486	427.327423
2912.560791	348.864777
2911.922852	446.791412
2911.284912	458.478180
2910.646729	356.539001
2910.008545	407.410156
2909.370361	426.931152
2908.731934	434.697510
2908.093506	524.688782
2907.455078	497.202789
2906.816406	555.841553
2906.177490	528.359131
2905.538574	594.801270
2904.899658	516.458008
2904.260498	586.793335
2903.621338	661.018188
2902.982178	680.469666
2902.342773	652.993408
2901.703369	672.440002
2901.063721	644.973450
2900.424072	672.231934
2899.784424	597.881226
2899.144531	632.952759
2898.504639	582.070129
2897.864502	636.662720
2897.224365	601.416443
2896.583984	616.942139
2895.943848	581.709839
2895.303223	566.005798
2894.662842	632.267212
2894.021973	554.123718
2893.381348	593.054688
2892.740479	581.259644
2892.099609	627.975220
2891.458496	623.978149
2890.817383	655.075562
2890.176025	643.278137
2889.534668	647.076599
2888.893311	678.155945
2888.251709	705.328796
2887.610107	759.766907
2886.968262	747.962280
2886.326416	716.686157
2885.684570	732.152832
2885.042480	860.535706
2884.400391	837.043030
2883.758057	852.483765
2883.115723	852.351685
2882.473389	922.265076
2881.830811	1003.829163
2881.188232	1019.234375
2880.545410	1046.303711
2879.902588	1034.474487
2879.259766	1084.863281
2878.616699	1162.451050
2877.973633	1057.316650
2877.330322	991.080688
2876.687012	913.207275
2876.043457	819.816406
2875.399902	819.689270
2874.756348	850.635620
2874.112549	718.462036
2873.468750	745.531494
2872.824707	718.239258
2872.180664	690.955444
2871.536621	632.630737
2870.892334	655.815979
2870.248047	698.393921
2869.603760	671.130005
2868.958984	647.753296
2868.314453	694.190735
2867.669678	608.776733
2867.024902	690.098389
2866.379883	752.013000
2865.734863	662.753967
2865.089844	751.779663
2864.444580	728.415649
2863.799316	724.428650
2863.153809	697.202820
2862.508301	658.367126
2861.862549	573.077698
2861.216797	665.905823
2860.571045	607.738281
2859.925049	568.940491
2859.279053	506.936279
2858.632813	549.418152
2857.986572	487.436157
2857.340332	444.813141
2856.693848	464.080780
2856.047363	444.674988
2855.400635	467.802765
2854.753906	444.536896
2854.107178	432.873047
2853.460205	436.670135
2852.813232	390.237457
2852.166016	448.123901
2851.518799	401.703827
2850.871338	475.018219
2850.223877	482.667114
2849.576416	490.313599
2848.928711	463.216431
2848.281006	517.177979
2847.633301	544.110168
2846.985352	517.017273
2846.337158	582.518433
2845.688965	593.999329
2845.040771	601.620117
2844.392578	663.221619
2843.743896	666.973877
2843.095459	697.708069
2842.446777	659.058228
2841.798096	716.758911
2841.149170	751.323914
2840.500244	704.979004
2839.851074	681.758911
2839.202148	643.141418
2838.552734	727.753479
2837.903320	673.740967
2837.253906	665.937500
2836.604492	600.405151
2835.954834	573.374695
2835.304932	534.809998
2834.655029	573.196350
2834.005127	476.948242
2833.354980	411.496155
2832.704834	461.419220
2832.054688	357.544250
2831.404297	338.268799
2830.753906	269.035583
2830.103271	268.993713
2829.452637	261.267517
2828.801758	207.444870
2828.150879	226.617447
2827.500000	222.741791
2826.848877	161.270676
2826.197754	138.210495
2825.546387	161.220474
2824.895020	134.329483
2824.243408	115.121628
2823.591797	107.430122
2822.940186	134.266754
2822.288330	118.903458
2821.636475	122.719940
2820.984619	107.363228
2820.332520	118.847916
2819.680176	95.830170
2819.028076	57.489147
2818.375488	76.640251
2817.723145	88.122566
2817.070557	95.770477
2816.417725	80.434669
2815.764893	57.444382
2815.112061	80.409607
2814.458984	76.568649
2813.805908	107.179405
2813.152832	53.581348
2812.499512	57.399643
2811.845947	76.520935
2811.192383	57.381756
2810.538818	76.497078
2809.885010	87.957932
2809.231201	68.825912
2808.577393	76.461319
2807.923340	95.561745
2807.269287	72.615608
2806.614990	80.246841
2805.960693	68.772278
2805.306152	64.941475
2804.651611	61.111855
2803.997070	38.188953
2803.342285	64.911095
2802.687500	53.447861
2802.032471	99.244835
2801.377441	72.513756
2800.722412	53.422855
2800.067139	49.599201
2799.411621	53.406189
2798.756348	30.513062
2798.100586	64.830139
2797.445068	49.568256
2796.789307	80.059303
2796.133301	64.799805
2795.477539	57.167374
2794.821289	76.211273
2794.165283	49.529594
2793.509033	57.140614
2792.852539	15.235119
2792.196045	34.273666
2791.539551	34.268318
2790.882813	30.455971
2790.226074	22.838413
2789.569092	41.863888
2788.912109	49.467777
2788.255127	79.897011
2787.597900	53.256359
2786.940430	57.051472
2786.283203	53.239727
2785.625488	41.824680
2784.968018	60.826401
2784.310303	68.419014
2783.652588	49.406013
2782.994629	56.998035
2782.336426	45.591305
2781.678467	34.188137
2781.020264	75.961769
2780.361816	49.367435
2779.703369	56.953526
2779.044922	41.759392
2778.386230	83.505737
2777.727539	56.926834
2777.068604	49.328880
2776.409668	75.878723
2775.750732	64.486832
2775.091553	37.927502
2774.432373	60.674519
2773.772949	53.081905
2773.113525	34.118748
2772.453857	37.903793
2771.794189	56.846802
2771.134521	60.627110
2770.474609	41.674622
2769.814697	56.820141
2769.154541	64.386093
2768.494385	64.376022
2767.833984	26.503630
2767.173584	45.427689
2766.513184	71.915924
2765.852539	56.766846
2765.191895	68.109558
2764.531006	49.182545
2763.870117	75.653618
2763.209229	64.295517
2762.548096	41.596470
2761.886719	45.370869
2761.225586	45.363770
2760.563965	71.814728
2759.902588	37.791309
2759.240967	56.678097
2758.579102	60.447174
2757.917236	60.437714
2757.255371	67.981789
2756.593262	60.418797
2755.931152	60.409336
2755.269043	41.524918
2754.606689	79.262436
2753.944092	75.476212
2753.281494	45.278637
2752.618896	45.271549
2751.956055	60.352612
2751.293213	64.114609
2750.630371	64.104568
2749.967285	49.013466
2749.303955	64.084496
2748.640625	67.843544
2747.977295	75.369904
2747.313721	71.590195
2746.650146	48.975090
2745.986572	41.433971
2745.322754	52.725883
2744.658691	82.841980
2743.994873	71.534134
2743.330566	60.229832
2742.666504	56.456619
2742.002197	86.553253
2741.337646	48.913734
2740.673096	60.192085
2740.008545	97.796806
2739.343750	71.455696
2738.678955	78.964973
2738.013916	60.154354
2737.348877	82.699272
2736.683594	63.893967
2736.018311	90.189102
2735.353027	120.233284
2734.687500	75.134018
2734.021973	82.634460
2733.356201	90.132545
2732.690430	75.098679
2732.024658	82.595589
2731.358643	78.828880
2730.692383	108.841858
2730.026367	90.061890
2729.359863	93.799751
2728.693604	127.547653
2728.027100	135.029266
2727.360352	135.008087
2726.693604	112.489082
2726.026855	161.209061
2725.359863	157.435303
2724.692871	142.419113
2724.025635	172.375031
2723.358398	161.107895
2722.691162	149.844284
2722.023682	138.584198
2721.355957	134.817520
2720.688477	153.518082
2720.020508	160.981491
2719.352783	138.497208
2718.684814	138.475464
2718.016602	179.615646
2717.348389	157.139008
2716.680176	153.373520
2716.011719	108.466675
2715.343262	175.763214
2714.674561	145.823166
2714.005859	127.107918
2713.337158	100.922791
2712.668213	134.542587
2711.999023	119.574615
2711.329834	112.083595
2710.660645	108.330452
2709.991455	126.988167
2709.321777	123.233856
2708.652344	123.214493
2707.982666	100.796013
2707.312988	138.106171
2706.643066	115.692390
2705.972900	97.017075
2705.302979	115.656029
2704.632813	96.986588
2703.962402	123.079010
2703.291992	104.414261
2702.621582	100.669350
2701.950928	104.381432
2701.280273	104.365021
2700.609375	74.534721
2699.938477	74.523003
2699.267334	78.236855
2698.596191	89.399483
2697.925049	108.007393
2697.253662	85.647560
2696.582031	44.678658
2695.910645	78.175354
2695.239014	59.552803
2694.567139	66.986366
2693.895264	63.254948
2693.223145	93.007347
2692.551270	48.356213
2691.878906	81.820717
2691.206543	70.652229
2690.534180	55.769299
2689.861816	63.195259
2689.189209	52.034966
2688.516357	100.337357
2687.843506	78.027885
2687.170654	66.870514
2686.497559	85.432213
2685.824463	77.991043
2685.151123	70.552216
2684.477783	70.541107
2683.804199	81.666321
2683.130615	63.095860
2682.457031	81.640610
2681.783203	85.338104
2681.109375	63.066059
2680.435303	77.892860
2679.761230	74.171997
2679.086914	70.452301
2678.412598	88.978363
2677.738281	77.843803
2677.063721	92.656593
2676.389160	66.702240
2675.714355	51.871349
2675.039551	51.863174
2674.364502	74.078575
2673.689453	70.363564
2673.014404	77.757996
2672.339111	81.447922
2671.663574	77.733490
2670.988037	66.618210
2670.312500	81.409424
2669.636719	92.496124
2668.960938	48.090405
2668.285156	48.082825
2667.609131	55.471436
2666.932861	88.740303
2666.256592	48.060089
2665.580322	73.926941
2664.903809	70.219521
2664.227295	62.818085
2663.550781	51.724384
2662.874023	73.880325
2662.197021	59.094936
2661.520020	70.164169
2660.843018	62.768566
2660.165771	62.758667
2659.488525	103.350914
2658.811035	62.738869
2658.133545	59.039032
2657.455811	70.097786
2656.778076	66.397957
2656.100342	84.828445
2655.422363	92.190285
2654.744385	70.053558
2654.066162	81.101845
2653.387939	77.403183
2652.709473	62.649830
2652.031006	66.324646
2651.352539	81.050659
2650.673828	69.987244
2649.994873	62.610283
2649.316162	58.918022
2648.636963	77.317696
2647.958008	36.812138
2647.278809	69.932022
2646.599365	69.920975
2645.919922	62.550995
2645.240479	73.577782
2644.560791	77.244476
2643.880859	66.199089
2643.201172	77.220078
2642.520996	47.795353
2641.841064	55.139774
2641.160889	73.508087
2640.480469	73.496475
2639.800049	66.136375
2639.119629	66.125923
2638.438965	58.769314
2637.758301	62.432529
2637.077393	47.734978
2636.396484	18.356705
2635.715332	51.390652
2635.034180	58.722893
2634.353027	40.365608
2633.671631	51.366291
2632.989990	25.679085
2632.308350	77.025078
2631.626709	62.343777
2630.944824	51.333817
2630.262939	43.993458
2629.581055	76.976379
2628.898926	58.639397
2628.216553	69.623268
2627.534180	54.957047
2626.851807	65.938026
2626.169189	43.951733
2625.486572	36.620651
2624.803711	54.922287
2624.120850	51.252693
2623.437988	62.225567
2622.754883	69.535225
2622.071533	36.591694
2621.388184	47.561676
2620.704834	47.554153
2620.021240	80.463524
2619.337646	25.597979
2618.653809	62.156681
2617.969971	91.392418
2617.286133	65.792130
2616.602051	69.436256
2615.917725	32.885651
2615.233398	54.800743
2614.549072	43.833652
2613.864502	62.087845
2613.179932	80.336258
2612.495117	54.766048
2611.810303	62.058361
2611.125488	18.249569
2610.440430	47.441364
2609.755127	29.190063
2609.069824	72.963600
2608.384521	54.714031
2607.698975	47.411316
2607.013428	43.757362
2606.327637	29.166954
2605.641846	43.743500
2604.956055	40.091854
2604.270020	40.085503
2603.583740	58.296947
2602.897461	76.502625
2602.211182	61.920879
2601.524658	43.701931
2600.838135	65.542503
2600.151367	83.735489
2599.464600	58.241539
2598.777832	40.034714
2598.090820	54.584137
2597.403564	43.660385
2596.716309	54.566833
2596.029053	43.646545
2595.341553	65.459435
2594.654053	65.449059
2593.966309	39.990307
2593.278564	50.888683
2592.590820	47.246281
2591.902832	76.308815
2591.214600	47.231297
2590.526367	39.958607
2589.838135	39.952267
2589.149658	54.471722
2588.461182	61.724827
2587.772461	61.715034
2587.083740	79.853844
2586.394775	36.291443
2585.705811	36.285686
2585.016846	58.047886
2584.327637	65.293510
2583.638184	50.775780
2582.948975	94.282913
2582.259277	54.385353
2581.569824	43.501377
2580.879883	50.743553
2580.190186	54.359463
2579.500244	39.857277
2578.810059	68.833458
2578.119873	57.955814
2577.429688	57.946613
2576.739258	72.421768
2576.048584	47.066673
2575.358154	79.638649
2574.667236	79.625999
2573.976563	50.663044
2573.285645	43.418568
2572.594482	65.117508
2571.903320	47.021843
2571.212158	47.014374
2570.520752	61.470566
2569.829102	68.691483
2569.137451	50.606735
2568.445801	36.141926
2567.753906	39.749802
2567.062012	54.195660
2566.370117	18.062349
2565.677979	21.671375
2564.985596	61.392471
2564.293213	43.328972
2563.600830	18.050869
2562.908203	39.705601
2562.215332	39.699287
2561.522705	79.385956
2560.829590	46.902424
2560.136719	57.716885
2559.443604	72.134636
2558.750244	7.212317
2558.056885	68.506111
2557.363525	36.050114
2556.669922	25.231066
2555.976074	61.265701
2555.282227	61.255959
2554.588379	50.438061
2553.894287	46.827892
2553.200195	36.015724
2552.505859	36.009995
2551.811523	50.405972
2551.117188	46.798100
2550.422607	43.191372
2549.727783	50.381916
2549.032959	32.383221
2548.338135	21.585379
2547.643066	50.357868
2546.947998	43.157017
2546.252686	32.362610
2545.557373	50.333824
2544.861816	32.352310
2544.166260	61.100189
2543.470703	32.342007
2542.774902	75.452675
2542.078857	39.516537
2541.382813	32.326565
2540.686768	32.321415
2539.990479	35.906963
2539.294189	39.491371
2538.597656	35.895531
2537.901123	43.067776
2537.204346	57.414555
2536.507568	28.702703
2535.810791	46.634464
2535.113770	60.973816
2534.416504	46.619606
2533.719238	32.269970
2533.021973	46.604752
2532.324463	60.934963
2531.626953	50.173740
2530.929199	35.832676
2530.231445	64.488533
2529.533447	50.149754
2528.835449	64.467979
2528.137451	53.714752
2527.439209	96.671143
2526.740723	57.277473
2526.042236	46.530529
2525.343750	46.523109
2524.645020	71.562599
2523.946289	64.396072
2523.247314	53.654839
2522.548340	25.034931
2521.849121	67.941116
2521.149902	39.328060
2520.450684	60.770035
2519.751221	35.741379
2519.051514	53.603516
2518.351807	21.437986
2517.652100	53.586414
2516.952148	67.865295
2516.252197	53.569317
2515.552002	42.848618
2514.851807	64.262672
2514.151367	46.404522
2513.450928	49.966125
2512.750244	60.663471
2512.049561	39.246567
2511.348877	49.942207
2510.647949	60.634426
2509.946777	57.058586
2509.245605	39.221516
2508.544434	42.780277
2507.843018	64.160172
2507.141602	32.074966
2506.439941	35.633160
2505.738281	53.441204
2505.036377	81.930092
2504.334473	67.670578
2503.632568	35.610405
2502.930420	49.846603
2502.228027	81.877769
2501.525635	53.390015
2500.823242	28.470125
2500.120605	32.023777
2499.417969	49.806805
2498.715088	56.912968
2498.012207	71.129845
2497.309082	67.562553
2496.605957	60.441044
2495.902588	56.876598
2495.199219	24.879536
2494.495605	56.858421
2493.791992	74.614754
2493.088379	60.392761
2492.384521	42.623371
2491.680664	42.616558
2490.976563	46.160557
2490.272461	78.105377
2489.568115	42.596123
2488.863770	63.883965
2488.159180	56.776669
2487.454590	24.835819
2486.749756	42.568882
2486.044922	46.108913
2485.339844	42.555267
2484.634766	53.185577
2483.929688	63.812485
2483.224365	60.257706
2482.519043	70.880074
2481.813477	28.347494
2481.107666	46.057308
2480.402100	46.049942
2479.696045	42.500835
2478.990234	84.988068
2478.284180	70.812057
2477.577881	67.260689
2476.871582	77.868332
2476.165039	56.622452
2475.458496	42.460041
2474.751953	35.377705
2474.045166	70.744080
2473.338379	31.829741
2472.631348	31.824644
2471.924072	45.961571
2471.217041	63.628910
2470.509521	28.274986
2469.802246	31.804266
2469.094482	63.598347
2468.386963	52.990135
2467.679199	67.110085
2466.971191	56.504707
2466.263184	49.433697
2465.554932	31.773716
2464.846680	45.888016
2464.138428	35.292816
2463.429932	56.459461
2462.721436	77.619324
2462.012695	35.275856
2461.303955	45.851265
2460.594971	67.002647
2459.885986	49.362461
2459.176758	49.354549
2458.467529	35.247601
2457.758057	52.862923
2457.048584	52.854450
2456.338867	45.799847
2455.629150	70.450005
2454.919434	59.872906
2454.209473	31.692339
2453.499512	56.332901
2452.789307	42.242901
2452.078857	70.393547
2451.368408	59.824921
2450.657959	52.778229
2449.947266	21.107904
2449.236572	56.278717
2448.525879	42.202267
2447.814697	42.195499
2447.103760	80.861732
2446.392578	66.788109
2445.681152	49.204391
2444.969727	45.682461
2444.258301	42.161659
2443.546631	70.258156
2442.834717	31.611097
2442.122803	59.700268
2441.410889	84.269203
2440.698730	63.191761
2439.986572	45.631168
2439.274170	31.585737
2438.561768	21.053778
2437.849121	59.642796
2437.136475	49.109711
2436.423584	24.550913
2435.710693	59.614071
2434.997803	35.061470
2434.284424	35.055840
2433.571289	42.060249
2432.857910	59.575787
2432.144287	38.542847
2431.430908	66.563316
2430.717041	49.038776
2430.003174	63.039726
2429.289307	21.009867
2428.575195	31.509735
2427.861084	66.509865
2427.146729	62.999222
2426.432373	62.989098
2425.717773	41.985985
2425.003174	48.975777
2424.288330	48.967907
2423.573486	52.457180
2422.858643	66.435081
2422.143555	45.448277
2421.428223	17.477297
2420.712891	48.928562
2419.997559	83.864052
2419.281982	45.419060
2418.566162	34.932121
2417.850586	34.926502
2417.134521	38.412975
2416.418457	34.915272
2415.702393	45.382553
2414.986084	73.298485
2414.269775	62.817169
2413.553223	52.339222
2412.836670	48.842083
2412.120117	52.322384
2411.403076	48.826366
2410.686279	45.331474
2409.969238	62.756561
2409.251953	41.830975
2408.534668	34.853539
2407.817383	76.665443
2407.099854	48.779247
2406.382080	73.157097
2405.664307	31.347996
2404.946533	10.447650
2404.228516	31.337904
2403.510498	55.702862
2402.792236	52.213024
2402.073975	73.086464
2401.355469	86.993690
2400.636963	62.625370
2399.918213	48.700779
2399.199463	59.127136
2398.480469	55.640110
2397.761475	45.200306
2397.042480	55.622189
2396.323242	48.661575
2395.603760	72.980606
2394.884277	45.171192
2394.164795	48.638062
2393.445068	55.577404
2392.725098	24.311195
2392.005127	59.031963
2391.285156	83.325813
2390.564941	31.242146
2389.844727	59.003429
2389.124268	58.993919
2388.403809	62.454082
2387.683105	76.320465
2386.962402	31.216976
2386.241455	48.551914
2385.520508	76.283562
2384.799316	55.470013
2384.078125	27.730534
2383.356689	62.383640
2382.635254	65.838783
2381.913818	55.434246
2381.192139	41.568977
2380.470215	41.562275
2379.748291	38.092606
2379.026367	65.785713
2378.304199	38.080318
2377.581787	62.303200
2376.859375	38.068035
2376.136963	48.442410
2375.414307	31.136526
2374.691650	44.967724
2373.968750	44.960468
2373.245850	69.158791
2372.522705	27.659052
2371.799316	72.593292
2371.076172	34.562656
2370.352783	41.468494
2369.629150	44.916950
2368.905518	10.363777
2368.181641	44.902451
2367.457764	62.162586
2366.733643	41.435032
2366.009521	72.499603
2365.285400	44.873459
2364.561035	48.317459
2363.836426	69.013794
2363.111816	69.002655
2362.387207	44.844479
2361.662354	48.286255
2360.937256	62.072300
2360.212158	58.614368
2359.487061	72.394287
2358.761719	72.382591
2358.036377	51.693501
2357.310791	41.348118
2356.584961	20.670719
2355.859375	72.335823
2355.133301	65.436127
2354.407471	55.095200
2353.681152	72.300758
2352.955078	72.289078
2352.228516	65.393829
2351.502197	72.265709
2350.775635	55.050686
2350.048828	55.041786
2349.322021	48.153778
2348.594971	65.340988
2347.867920	89.399529
2347.140869	44.692535
2346.413330	58.434635
2345.686035	51.551636
2344.958496	58.415737
2344.230713	54.970627
2343.502930	75.572388
2342.775146	58.387398
2342.047119	51.509956
2341.319092	17.167208
2340.590820	41.194633
2339.862305	92.672928
2339.133789	48.044857
2338.405273	34.312202
2337.676514	37.737312
2336.947754	65.172081
2336.218750	44.584209
2335.489746	51.434994
2334.760498	61.712002
2334.031250	68.557793
2333.301758	58.264690
2332.572266	58.255257
2331.842529	58.245827
2331.112793	41.108044
2330.382813	89.053009
2329.652832	27.396488
2328.922607	68.480133
2328.192383	95.856659
2327.462158	44.497669
2326.731689	54.757492
2326.000977	58.170410
2325.270264	71.845924
2324.539307	47.889526
2323.808350	51.301895
2323.077393	75.230591
2322.346191	58.123310
2321.614746	41.021572
2320.883301	47.850746
2320.151855	92.268623
2319.420166	41.001633
2318.688232	64.908730
2317.956299	92.223770
2317.224365	71.717972
2316.492188	44.389645
2315.760010	64.866653
2315.027588	54.615700
2314.295166	71.671486
2313.562500	27.298996
2312.829590	68.236420
2312.096924	51.169018
2311.363770	51.160721
2310.630615	75.023560
2309.897461	75.011391
2309.164063	74.999222
2308.430664	74.987061
2307.697021	30.671549
2306.963379	91.999718
2306.229492	61.323196
2305.495605	91.969872
2304.761719	40.868866
2304.027344	68.103729
2303.293213	44.260239
2302.558838	71.485710
2301.824219	37.438820
2301.089600	64.656555
2300.354736	85.060608
2299.619873	54.429955
2298.885010	51.019798
2298.149658	51.011517
2297.414551	47.603020
2296.679199	74.792603
2295.943604	67.982231
2295.208008	44.181278
2294.472412	67.960159
2293.736572	67.949127
2293.000488	54.350471
2292.264404	67.927055
2291.528320	61.124420
2290.791992	44.138245
2290.055420	64.499268
2289.318848	88.247818
2288.582275	37.329548
2287.845459	57.681747
2287.108398	67.849854
2286.371582	84.798538
2285.634277	40.696686
2284.896973	47.471752
2284.159668	77.976631
2283.422119	57.625534
2282.684570	54.226982
2281.946777	33.886356
2281.208740	44.045101
2280.470703	71.138214
2279.732666	74.513634
2278.994385	71.115089
2278.256104	60.945877
2277.517578	67.706635
2276.779053	57.541279
2276.040283	47.379230
2275.301514	50.755207
2274.562500	54.130081
2273.823486	30.443218
2273.084229	60.876534
2272.344971	43.959236
2271.605469	60.856731
2270.865967	57.466454
2270.126221	50.697445
2269.386475	40.551357
2268.646484	87.846977
2267.906494	67.563599
2267.166260	67.552605
2266.426025	74.295776
2265.685547	60.777561
2264.945068	70.895615
2264.204346	57.382347
2263.463623	67.497658
2262.722656	91.107002
2261.981689	53.980545
2261.240723	94.450577
2260.499268	50.590282
2259.758057	20.232819
2259.016602	74.174919
2258.274902	74.162842
2257.533203	37.075382
2256.791260	60.658928
2256.049316	57.279655
2255.307129	74.114540
2254.564941	63.997585
2253.822754	74.090401
2253.080322	50.507950
2252.337646	67.332962
2251.594971	60.589794
2250.852051	60.579922
2250.109131	47.110039
2249.366211	57.195724
2248.623047	60.550312
2247.879639	57.177086
2247.136230	67.256195
2246.392578	53.796188
2245.648926	30.255423
2244.905273	67.223312
2244.161377	47.048649
2243.417236	60.481255
2242.673096	53.752350
2241.928955	77.256409
2241.184570	87.319092
2240.439941	53.726063
2239.695313	67.146622
2238.950439	57.065323
2238.205566	73.837196
2237.460693	90.603600
2236.715576	53.682262
2235.970215	70.446480
2235.224854	50.310703
2234.479492	53.655994
2233.733887	70.412003
2232.988037	43.581272
2232.242188	63.685310
2231.496338	83.782784
2230.750244	67.015289
2230.003906	67.004356
2229.257568	66.993416
2228.511230	23.443869
2227.764648	73.668701
2227.017822	50.220463
2226.270996	66.949684
2225.523926	53.551003
2224.776855	70.274216
2224.029785	40.150139
2223.282471	76.941864
2222.534912	60.205540
2221.787354	40.130470
2221.039795	26.749279
2220.291992	46.803593
2219.543945	90.249329
2218.795898	53.472347
2218.047852	70.170990
2217.299561	40.091156
2216.551025	73.488449
2215.802490	70.136604
2215.053955	43.410801
2214.305176	50.081203
2213.556152	50.073017
2212.807129	86.779045
2212.058105	76.753532
2211.308838	63.394730
2210.559326	46.704273
2209.809814	63.374008
2209.060303	66.698578
2208.310547	63.353287
2207.560547	26.670708
2206.810547	63.332573
2206.060303	73.320465
2205.310059	59.979660
2204.559814	46.643219
2203.809326	59.960045
2203.058594	46.627964
2202.307861	66.600479
2201.557129	59.930626
2200.806152	59.920826
2200.054932	73.224579
2199.303711	66.556915
2198.552246	53.236816
2197.800781	53.228107
2197.049316	63.198036
2196.297607	49.885021
2195.545654	73.152725
2194.793701	59.842434
2194.041504	89.748962
2193.289307	76.440300
2192.537109	43.198315
2191.784668	66.448067
2191.031982	69.759048
2190.279297	66.426315
2189.526367	56.453121
2188.773438	79.685478
2188.020508	92.951164
2187.267090	56.425396
2186.513916	66.371948
2185.760498	56.406918
2185.006836	63.032700
2184.253174	72.973274
2183.499268	63.012051
2182.745361	46.422325
2181.991211	82.883430
2181.237061	86.184647
2180.482666	82.856270
2179.728271	76.215279
2178.973877	69.576462
2178.218994	96.066040
2177.464355	76.177818
2176.709229	66.230728
2175.954346	56.286888
2175.198975	92.692619
2174.443848	56.268440
2173.688232	89.352867
2172.932861	66.176460
2172.177002	56.240768
2171.421387	49.616070
2170.665283	59.529522
2169.909424	62.826416
2169.153076	76.040558
2168.396729	76.028084
2167.640381	76.015617
2166.883789	39.653816
2166.127197	75.990685
2165.370361	66.068016
2164.613525	82.571472
2163.856445	62.744022
2163.099365	56.130177
2162.342041	56.120968
2161.584473	66.013832
2160.826904	75.903450
2160.069336	65.992172
2159.311523	72.579475
2158.553711	79.164612
2157.795654	56.065731
2157.037354	85.733513
2156.279053	65.938026
2155.520752	59.334484
2154.762207	52.733105
2154.003662	82.381950
2153.244873	72.484207
2152.485840	79.060699
2151.726807	75.754059
2150.967773	49.396709
2150.208252	65.851463
2149.448975	79.008774
2148.689453	59.246849
2147.929688	78.982826
2147.169922	75.679436
2146.410156	85.536613
2145.650146	78.943901
2144.889893	39.465466
2144.129639	101.935699
2143.369141	75.617287
2142.608643	62.456188
2141.847900	59.159298
2141.087158	75.580009
2140.326416	32.855473
2139.565186	88.695198
2138.804199	55.835945
2138.042725	59.110691
2137.281494	82.084686
2136.519775	62.374104
2135.758301	59.081543
2134.996338	65.635361
2134.234619	62.343342
2133.472412	68.894463
2132.710449	62.322838
2131.947998	85.269852
2131.185547	72.139549
2130.423096	65.570618
2129.660400	72.115814
2128.897705	49.161785
2128.134766	49.153698
2127.371826	65.527481
2126.608643	72.068367
2125.845215	75.331810
2125.081787	65.495140
2124.318359	42.564835
2123.554688	52.378868
2122.790771	52.370247
2122.026855	65.452034
2121.262939	81.801575
2120.498779	78.516579
2119.734375	78.503654
2118.969971	98.113411
2118.205322	78.477806
2117.440674	68.656776
2116.676025	65.376640
2115.911133	78.439049
2115.145996	58.819595
2114.380859	88.214859
2113.615479	71.866936
2112.850098	75.121239
2112.084473	52.249645
2111.318848	55.506104
2110.552979	75.084122
2109.787109	71.807762
2109.020996	65.269028
2108.254883	61.995358
2107.488525	127.232658
2106.722168	81.545959
2105.955566	84.793816
2105.188965	78.258316
2104.422119	68.464737
2103.655029	81.492203
2102.887939	74.960472
2102.120850	94.499794
2101.353516	94.484215
2100.585938	104.241257
2099.818359	104.224068
2099.050781	84.668091
2098.282959	58.606705
2097.514893	71.618599
2096.746826	84.626205
2095.978760	84.612251
2095.210449	87.852074
2094.441895	61.811630
2093.673340	84.570381
2092.904541	91.060768
2092.135742	48.774509
2091.366699	110.537308
2090.597656	68.261780
2089.828369	84.500633
2089.059082	61.740276
2088.289551	77.974846
2087.520020	97.452469
2086.750244	87.692741
2085.980469	90.925613
2085.210449	45.455303
2084.440186	55.186611
2083.670166	110.355003
2082.899658	55.168388
2082.129150	48.669952
2081.358643	55.150173
2080.587891	84.333397
2079.816895	68.104187
2079.045898	64.850418
2078.274902	97.259560
2077.503662	64.828995
2076.732178	93.986511
2075.960693	77.769096
2075.188965	113.394524
2074.417236	93.939941
2073.645264	77.730553
2072.873291	77.717705
2072.101074	71.229462
2071.328857	71.217690
2070.556396	84.152451
2069.783936	51.777565
2069.011230	71.182381
2068.238525	84.110725
2067.465576	106.738274
2066.692627	64.679169
2065.919434	67.901901
2065.145996	67.890671
2064.372559	103.435349
2063.599121	67.868225
2062.825439	67.857002
2062.051514	67.845779
2061.277588	77.525208
2060.503662	100.120163
2059.729248	90.416161
2058.955078	100.087044
2058.180664	83.930084
2057.406006	74.233566
2056.631348	93.583351
2055.856445	87.114914
2055.081543	83.874557
2054.306396	80.635262
2053.531250	58.047783
2052.755859	74.159889
2051.980225	58.028568
2051.204590	64.465515
2050.428955	45.118393
2049.653076	99.888474
2048.877197	54.768482
2048.101074	103.076546
2047.324707	90.177040
2046.548340	99.822334
2045.771851	99.805809
2044.995239	80.475227
2044.218506	115.865135
2043.441528	67.576797
2042.664551	77.217834
2041.887329	96.506310
2041.110107	86.841286
2040.332642	96.474335
2039.555176	80.381958
2038.777466	93.227623
2037.999634	96.426392
2037.221802	96.410416
2036.443726	99.607590
2035.665527	93.165848
2034.887207	89.938324
2034.108765	86.711868
2033.330200	77.064438
2032.551514	96.314583
2031.772705	70.618988
2030.993774	80.235542
2030.214600	99.475578
2029.435425	86.625656
2028.656128	115.481720
2027.876587	86.596931
2027.097046	92.996094
2026.317261	89.774437
2025.537476	80.142456
2024.757446	60.898163
2023.977295	86.525139
2023.197021	115.347717
2022.416626	89.700005
2021.636230	96.091202
2020.855591	128.100342
2020.074707	80.049431
2019.293823	96.043381
2018.512817	89.625610
2017.731689	96.011505
2016.950439	111.994835
2016.168945	79.983032
2015.387451	73.572174
2014.605713	86.352997
2013.823975	73.547752
2013.041992	86.324333
2012.260010	73.523331
2011.477783	76.707260
2010.695435	118.237389
2009.912964	102.242386
2009.130371	111.809036
2008.347656	111.790466
2007.564819	111.771904
2006.781860	70.244957
2005.998779	108.542351
2005.215576	108.524323
2004.432129	124.463097
2003.648682	102.106598
2002.864990	79.757530
2002.081299	124.401070
2001.297363	92.487991
2000.513428	121.171021
1999.729248	108.398155
1998.944946	98.817184
1998.160522	130.671982
1997.375977	105.157524
1996.591309	124.256416
1995.806519	73.267242
1995.021606	92.365074
1994.236572	130.563400
1993.451416	124.173798
1992.666016	85.952179
1991.880615	127.315392
1991.094971	79.558884
1990.309326	98.636612
1989.523438	85.895020
1988.737549	133.592255
1987.951416	95.407158
1987.165161	92.211578
1986.378784	117.629684
1985.592285	123.967415
1984.805664	101.699928
1984.018921	120.748573
1983.232056	120.728477
1982.444946	92.119560
1981.657837	111.160278
1980.870605	92.088898
1980.083130	88.898621
1979.295654	107.930359
1978.507935	120.607964
1977.720093	101.547691
1976.932129	117.394974
1976.144165	88.824646
1975.355957	133.214783
1974.567627	104.651329
1973.779053	101.463181
1972.990479	133.148239
1972.201782	110.938393
1971.412964	133.103897
1970.623901	133.081726
1969.834839	101.378708
1969.045532	107.696930
1968.256226	79.175728
1967.466675	136.159561
1966.677002	94.979218
1965.887207	113.956070
1965.097290	120.266914
1964.307251	120.246872
1963.517090	110.735237
1962.726807	104.390106
1961.936401	110.698326
1961.145874	145.464981
1960.355103	94.852654
1959.564331	126.449112
1958.773315	126.428032
1957.982178	139.047653
1957.191040	132.705170
1956.399658	139.001282
1955.608154	116.867943
1954.816528	138.954926
1954.024780	135.774200
1953.232910	132.594543
1952.440918	138.885406
1951.648682	97.834755
1950.856445	126.217331
1950.063965	129.351181
1949.271484	91.477036
1948.478760	151.384995
1947.685913	110.366470
1946.893066	119.806458
1946.099976	126.091019
1945.306763	126.069969
1944.513428	126.048927
1943.719971	103.973007
1942.926270	129.157028
1942.132568	125.985817
1941.338745	113.368301
1940.544678	138.538132
1939.750610	122.774651
1938.956299	122.754150
1938.161865	169.938904
1937.367310	116.420174
1936.572632	163.590210
1935.777832	147.835693
1934.982910	119.506760
1934.187866	128.919968
1933.392700	125.754562
1932.597290	147.736923
1931.801880	125.712547
1931.006226	147.687561
1930.210571	147.662888
1929.414673	150.779449
1928.618652	144.472824
1927.822510	163.289810
1927.026245	131.865875
1926.229858	125.565559
1925.433350	147.514862
1924.636719	138.075943
1923.839844	119.227470
1923.042969	131.755692
1922.245850	147.416245
1921.448730	106.623703
1920.651367	137.960541
1919.853882	166.151962
1919.056274	125.376732
1918.258545	156.694702
1917.460693	134.734909
1916.662720	140.978058
1915.864624	125.292862
1915.066284	165.985275
1914.267944	165.957504
1913.469360	159.668228
1912.670776	140.860168
1911.871948	162.744507
1911.072998	150.200562
1910.273926	156.432724
1909.474731	137.637756
1908.675415	156.380371
1907.875977	153.227112
1907.076294	131.315536
1906.276611	162.553925
1905.476807	153.150162
1904.676758	171.874466
1903.876587	168.721222
1903.076294	146.825363
1902.275879	153.047607
1901.475342	165.513565
1900.674683	156.118729
1899.873901	121.752213
1899.072998	162.309082
1898.271851	156.040283
1897.470703	156.014145
1896.669312	177.826324
1895.867920	159.081100
1895.066284	159.054459
1894.264526	165.264191
1893.462646	130.942123
1892.660645	152.740204
1891.858521	171.414352
1891.056152	165.153427
1890.253784	171.356903
1889.451172	190.018524
1888.648560	177.528519
1887.845703	155.700668
1887.042725	211.717407
1886.239624	171.213303
1885.436401	149.397461
1884.633057	140.036636
1883.829590	171.127182
1883.025879	183.542007
1882.222168	167.959427
1881.418213	189.700119
1880.614258	164.793762
1879.810059	167.874908
1879.005737	170.955017
1878.201294	161.603088
1877.396729	208.184418
1876.592041	173.975693
1875.787231	127.353683
1874.982178	183.234299
1874.177124	173.888123
1873.371826	189.382050
1872.566406	152.101028
1871.760986	173.800568
1870.955322	158.256088
1870.149536	189.254913
1869.343506	164.406998
1868.537476	161.277893
1867.731323	189.159607
1866.924927	173.625549
1866.118530	189.096069
1865.311890	176.666656
1864.505127	173.538086
1863.698242	185.902435
1862.891235	170.381943
1862.084106	145.574646
1861.276855	207.486450
1860.469482	154.814621
1859.661865	176.459015
1858.854126	136.191086
1858.046387	188.778641
1857.238403	216.594818
1856.430298	188.715195
1855.622070	185.590302
1854.813721	179.373795
1854.005249	179.343643
1853.196533	163.855438
1852.387817	188.556625
1851.578857	191.615509
1850.769775	188.493225
1849.960693	200.819672
1849.151367	197.696884
1848.341919	191.486649
1847.532227	182.190521
1846.722534	182.159882
1845.912720	197.563919
1845.102661	212.962769
1844.292603	194.411560
1843.482300	154.268936
1842.671875	163.497559
1841.861328	191.229111
1841.050659	191.196930
1840.239868	200.414658
1839.428833	191.132584
1838.617798	188.018158
1837.806519	169.496033
1836.995117	181.792404
1836.183716	206.407471
1835.372070	197.132156
1834.560303	187.859955
1833.748291	206.303253
1832.936279	147.774460
1832.124146	218.546249
1831.311768	184.655869
1830.499390	184.624771
1829.686768	203.053040
1828.874023	196.866760
1828.061157	206.060165
1827.248169	209.100464
1826.434937	187.543823
1825.621704	181.364288
1824.808228	187.480637
1823.994751	230.470139
1823.181030	224.286469
1822.367188	211.961075
1821.553223	214.996735
1820.739136	184.251862
1819.924927	190.361496
1819.110474	227.167358
1818.296021	202.574570
1817.481323	202.540421
1816.666626	208.642838
1815.851685	227.014206
1815.036621	199.370758
1814.221436	226.937668
1813.406006	196.237320
1812.590576	193.138535
1811.774902	226.822876
1810.959229	229.849274
1810.143311	205.297379
1809.327271	189.944626
1808.511108	202.165009
1807.694824	238.881989
1806.878418	223.531311
1806.061768	195.939590
1805.245117	235.700043
1804.428223	192.812958
1803.611206	156.060333
1802.794067	195.807373
1801.976807	195.774323
1801.159424	229.384308
1800.341919	244.635284
1799.524170	223.192017
1798.706421	238.438873
1797.888428	204.778305
1797.070313	216.967239
1796.252075	192.487717
1795.433716	219.948807
1794.615234	259.617950
1793.796509	198.497833
1792.977783	222.890686
1792.158813	222.853043
1791.339844	241.128983
1790.520630	183.104996
1789.701294	201.381470
1788.881714	247.108231
1788.062134	210.464035
1787.242432	192.130356
1786.422485	198.196228
1785.602417	216.454681
1784.782349	204.225525
1783.962036	182.857620
1783.141479	204.156494
1782.320923	216.308365
1781.500244	185.810989
1780.679321	225.371933
1779.858398	210.108582
1779.037231	203.983978
1778.215942	203.949478
1777.394531	240.437088
1776.572998	200.837524
1775.751221	206.888504
1774.929443	219.021362
1774.107422	188.569839
1773.285278	228.070084
1772.463013	228.031494
1771.640625	224.953018
1770.818115	224.914963
1769.995483	212.721390
1769.172607	261.299194
1768.349731	239.990036
1767.526611	236.912094
1766.703369	230.798355
1765.880005	258.086060
1765.056519	206.433899
1764.232910	239.787018
1763.409058	209.398773
1762.585083	239.705826
1761.761108	239.665253
1760.936890	221.425323
1760.112549	221.387833
1759.288086	257.736694
1758.463379	212.217804
1757.638672	218.244202
1756.813721	233.360519
1755.988647	251.501846
1755.163574	266.607391
1754.338257	221.125473
1753.512695	254.402649
1752.687134	278.584259
1751.861328	224.040680
1751.035522	208.867401
1750.209473	211.858551
1749.383301	236.030945
1748.557007	220.863327
1747.730591	220.825882
1746.903931	217.763962
1746.077271	244.942917
1745.250366	247.924866
1744.423340	214.630264
1743.596313	241.795914
1742.768921	229.667160
1741.941528	235.671066
1741.114014	256.777496
1740.286255	217.468750
1739.458374	235.551178
1738.630493	226.453110
1737.802368	241.509003
1736.973999	244.486389
1736.145630	196.159500
1735.317139	238.368790
1734.488403	256.429230
1733.659546	220.190094
1732.830566	253.326416
1732.001465	226.145920
1731.172241	205.004166
1730.342896	259.225983
1729.513306	204.934586
1728.683594	250.098282
1727.853882	210.890457
1727.023926	247.001160
1726.193726	243.947540
1725.363525	246.917297
1724.533203	225.800644
1723.702637	273.924927
1722.871948	231.743271
1722.041138	252.767899
1721.210205	252.724976
1720.379150	279.755127
1719.547974	255.646729
1718.716553	261.617493
1717.885010	264.579651
1717.053467	231.467850
1716.221558	246.456345
1715.389648	270.454895
1714.557617	264.399872
1713.725342	234.314590
1712.893066	276.324097
1712.060547	258.259033
1711.227905	240.200134
1710.395142	264.175232
1709.562256	252.124405
1708.729126	252.081543
1707.895874	237.036377
1707.062622	263.995636
1706.229126	242.954651
1705.395508	230.917618
1704.561646	275.854645
1703.727783	248.826538
1702.893677	224.805023
1702.059570	281.707703
1701.225220	233.717682
1700.390747	269.628387
1699.556030	269.582520
1698.721313	272.531494
1697.886353	293.445526
1697.051392	251.481918
1696.216187	296.338959
1695.380859	269.353210
1694.545410	260.330475
1693.709717	272.253326
1692.874023	272.207001
1692.038086	245.243668
1691.202026	257.162994
1690.365845	248.149933
1689.529541	292.946411
1688.692993	254.042908
1687.856445	298.823120
1687.019653	292.796783
1686.182739	322.619049
1685.345703	262.830017
1684.508545	259.799042
1683.671143	262.740479
1682.833740	271.651245
1681.996094	262.650970
1681.158325	250.669571
1680.320435	253.610519
1679.482422	247.601013
1678.644287	277.385193
1677.805908	265.409393
1676.967407	247.474442
1676.128784	253.394485
1675.290039	262.293121
1674.451172	295.029449
1673.612183	286.040405
1672.772949	265.138062
1671.933594	265.092865
1671.094116	285.894104
1670.254517	276.912689
1669.414795	247.094986
1668.574829	270.865173
1667.734863	258.914856
1666.894653	249.944107
1666.054321	279.651642
1665.213867	249.858841
1664.373169	300.374268
1663.532471	267.614563
1662.691528	255.676956
1661.850464	273.468231
1661.009277	270.449585
1660.167969	240.688766
1659.326538	311.950714
1658.484863	249.517975
1657.643066	314.814178
1656.801147	276.157745
1655.959106	293.924194
1655.116943	299.810852
1654.274658	290.855927
1653.432129	234.425446
1652.589478	267.021362
1651.746704	272.908569
1650.903809	314.384430
1650.060791	281.711517
1649.217529	305.382416
1648.374146	284.579651
1647.530640	269.711731
1646.687012	287.445801
1645.843262	278.508148
1644.999390	281.422913
1644.155273	290.260345
1643.311035	296.133392
1642.466675	281.278656
1641.622192	307.873474
1640.777588	254.544174
1639.932739	304.808960
1639.087769	284.045227
1638.242798	286.954956
1637.397461	283.948120
1636.552124	313.472443
1635.706665	260.196777
1634.860962	280.846222
1634.015137	257.152039
1633.169189	277.794891
1632.323120	245.245041
1631.476929	262.928619
1630.630493	289.467377
1629.783936	333.716522
1628.937256	262.793732
1628.090454	283.414398
1627.243530	265.655548
1626.396484	253.805191
1625.549194	250.811050
1624.701782	262.568970
1623.854248	268.423462
1623.006592	294.920349
1622.158691	277.177673
1621.310791	306.612183
1620.462646	288.873566
1619.614380	312.401581
1618.765991	271.094574
1617.917358	294.617584
1617.068726	282.784454
1616.219849	303.352203
1615.370850	312.134247
1614.521729	300.304138
1613.672363	264.928864
1612.822998	297.258148
1611.973389	308.977814
1611.123657	288.329895
1610.273804	326.521790
1609.423828	305.877899
1608.573608	291.122345
1607.723389	320.473724
1606.872925	305.720703
1606.022339	293.911835
1605.171509	282.106995
1604.320679	276.182434
1603.469604	243.821411
1602.618408	326.018524
1601.767090	308.343048
1600.915649	275.993103
1600.064087	255.396637
1599.212280	319.924835
1598.360352	287.589508
1597.508301	293.408356
1596.656128	269.889404
1595.803833	293.307739
1594.951294	313.785461
1594.098633	287.342987
1593.245850	290.225250
1592.392944	316.555054
1591.539795	307.709076
1590.686646	304.726227
1589.833252	295.885254
1588.979736	304.621643
1588.126099	284.069519
1587.272217	281.092712
1586.418335	316.175018
1585.564209	321.974854
1584.709961	301.433777
1583.855591	286.751862
1583.000977	257.447266
1582.146362	301.278564
1581.291504	266.132446
1580.436523	286.554962
1579.581421	312.817505
1578.726074	298.148651
1577.870605	271.794739
1577.015137	318.500427
1576.159424	300.916595
1575.303467	300.864899
1574.447510	309.574768
1573.591309	321.201630
1572.734985	277.353760
1571.878540	297.739166
1571.021973	283.095459
1570.165161	283.046814
1569.308350	303.420715
1568.451294	317.953613
1567.594116	303.316437
1566.736694	285.768280
1565.879272	346.944702
1565.021606	306.075043
1564.163818	326.423920
1563.305908	303.055817
1562.447876	314.657684
1561.589600	282.560608
1560.731201	340.761932
1559.872681	299.935425
1559.014038	267.857391
1558.155273	288.188263
1557.296265	293.959686
1556.437134	308.459076
1555.577881	311.315491
1554.718506	314.170929
1553.859009	322.842346
1552.999268	311.154816
1552.139404	296.563843
1551.279419	340.117615
1550.419312	293.555298
1549.558960	302.222717
1548.698608	313.792664
1547.838013	325.358582
1546.977173	284.639740
1546.116333	287.494720
1545.255249	328.094055
1544.394165	325.134583
1543.532837	246.711426
1542.671265	290.198761
1541.809692	319.163666
1540.947876	333.613617
1540.085938	290.048828
1539.223877	347.998657
1538.361694	336.340759
1537.499268	359.474731
1536.636841	301.442993
1535.774170	318.778992
1534.911377	286.851654
1534.048340	289.699219
1533.185303	347.579163
1532.322021	292.495361
1531.458618	332.981873
1530.594971	327.134491
1529.731323	338.656067
1528.867432	315.445709
1528.003418	341.432831
1527.139282	358.731964
1526.275024	292.142578
1525.410522	332.580231
1524.545898	349.871887
1523.681152	318.010498
1522.816284	358.422729
1521.951172	291.890747
1521.086060	294.729919
1520.220703	355.348297
1519.355225	309.070801
1518.489502	317.681519
1517.623779	311.851654
1516.757813	323.345917
1515.891724	355.041840
1515.025513	343.436462
1514.159058	294.323303
1513.292480	302.927582
1512.425781	331.720581
1511.558960	366.271667
1510.692017	348.907227
1509.824829	311.367584
1508.957520	348.786774
1508.090088	340.080444
1507.222534	334.258636
1506.354736	328.438812
1505.486938	337.023743
1504.618896	351.365753
1503.750610	388.739227
1502.882324	308.058594
1502.013794	308.005371
1501.145142	302.196045
1500.276367	328.041901
1499.407471	348.124664
1498.538330	333.681671
1497.669067	333.623993
1496.799683	376.699921
1495.930176	347.884064
1495.060547	370.820557
1494.190674	365.008301
1493.320679	318.967865
1492.450562	356.262848
1491.580200	304.494629
1490.709717	350.395508
1489.839233	399.152069
1488.968384	347.403229
1488.097534	364.566772
1487.226440	350.153198
1486.355347	390.267181
1485.483887	358.639404
1484.612427	381.526337
1483.740845	349.910980
1482.869019	401.467712
1481.997070	364.125549
1481.124878	389.862274
1480.252686	412.723907
1479.380249	398.324280
1478.507690	395.390198
1477.635010	455.479431
1476.762207	443.943970
1475.889160	438.139801
1475.015991	412.295502
1474.142700	492.378815
1473.269165	529.501831
1472.395630	529.410095
1471.521851	555.069092
1470.647949	529.226807
1469.773804	586.338928
1468.899658	631.992493
1468.025269	700.503845
1467.150757	700.382507
1466.276001	774.574585
1465.401245	877.318115
1464.526245	882.880554
1463.651123	979.856201
1462.775879	1125.354126
1461.900391	1187.985229
1461.024780	1287.712646
1460.149048	1321.746460
1459.273193	1407.144897
1458.397217	1443.999756
1457.520996	1423.776611
1456.644653	1332.241333
1455.768188	1363.385376
1454.891479	1220.560181
1454.014648	1280.225464
1453.137695	1131.762573
1452.260620	1051.758057
1451.383423	1065.824707
1450.505981	931.722534
1449.628418	982.839478
1448.750732	982.669006
1447.872803	808.781433
1446.994873	783.015137
1446.116699	794.266663
1445.238403	802.667847
1444.359863	765.532593
1443.481201	788.162537
1442.602417	802.250061
1441.723511	822.021362
1440.844482	927.101929
1439.965210	941.157898
1439.085815	921.094360
1438.206299	957.885498
1437.326538	952.035400
1436.446777	957.552917
1435.566772	948.863953
1434.686646	988.465027
1433.806274	900.255737
1432.925781	880.223389
1432.045166	777.868774
1431.164429	678.388123
1430.283569	587.455872
1429.402466	595.866150
1428.521240	510.653717
1427.639893	493.546143
1426.758301	499.132355
1425.876709	479.197235
1424.994873	479.113953
1424.112793	430.844177
1423.230713	408.097229
1422.348389	410.859802
1421.465942	427.786530
1420.583374	413.549500
1419.700562	421.973724
1418.817627	410.574188
1417.934570	478.448090
1417.051392	464.212097
1416.167969	532.053040
1415.284546	548.937988
1414.400757	478.115387
1413.516968	520.461121
1412.633057	486.433380
1411.748901	452.417450
1410.864624	449.511627
1409.980103	378.767792
1409.095459	339.136017
1408.210815	330.600098
1407.325806	355.968903
1406.440796	364.380951
1405.555542	378.438354
1404.670166	327.546326
1403.784668	327.489319
1402.899048	341.545776
1402.013184	341.486328
1401.127197	347.070282
1400.241089	349.831085
1399.354736	386.439636
1398.468262	324.327148
1397.581665	304.532471
1396.694946	310.117920
1395.807983	372.076691
1394.920898	355.102264
1394.033691	332.498169
1393.146362	385.968750
1392.258789	343.649536
1391.371094	363.303802
1390.483276	391.398682
1389.595337	368.807861
1388.707153	371.558441
1387.818848	394.008453
1386.930420	368.615082
1386.041748	354.484009
1385.152954	360.047974
1384.264038	354.360443
1383.375000	340.239197
1382.485718	323.311462
1381.596313	430.069824
1380.706787	441.236511
1379.817139	404.630432
1378.927246	407.369324
1378.037231	398.871429
1377.147095	440.928802
1376.256714	457.699738
1375.366333	457.619904
1374.475586	494.031006
1373.584839	457.460236
1372.693970	488.246613
1371.802856	482.550354
1370.911499	530.151733
1370.020142	507.622864
1369.128540	496.318054
1368.236816	473.802887
1367.344971	451.295563
1366.453003	510.071167
1365.560791	526.794739
1364.668457	493.083435
1363.775879	526.610779
1362.883301	548.923889
1361.990479	560.028625
1361.097534	655.119080
1360.204346	615.816345
1359.311035	671.682312
1358.417603	657.574097
1357.524048	654.661499
1356.630249	598.602966
1355.736450	618.075439
1354.842285	556.450317
1353.948120	545.170105
1353.053711	536.689087
1352.159180	433.188934
1351.264526	472.233124
1350.369751	433.037537
1349.474731	407.822113
1348.579590	438.471771
1347.684204	430.018158
1346.788818	402.024597
1345.893188	393.580261
1344.997314	452.119537
1344.101440	412.975281
1343.205322	432.432251
1342.309082	432.356628
1341.412720	457.381195
1340.516113	426.628571
1339.619385	465.585022
1338.722534	482.228271
1337.825439	501.652618
1336.928223	507.137787
1336.030884	532.122925
1335.133423	598.881714
1334.235718	637.767029
1333.337891	654.362549
1332.439941	729.416992
1331.541870	865.683105
1330.643555	1004.684570
1329.745117	1071.290405
1328.846436	1087.795410
1327.947754	1107.076172
1327.048828	1081.852417
1326.149780	978.779846
1325.250488	806.239929
1324.351074	769.963257
1323.451538	722.582642
1322.551880	614.087646
1321.651978	652.874756
1320.751953	538.874573
1319.851807	494.344666
1318.951416	485.927887
1318.050903	510.828949
1317.150269	466.327301
1316.249512	446.818695
1315.348511	441.190826
1314.447388	441.113525
1313.546021	424.393341
1312.644653	440.958893
1311.743042	415.926056
1310.841309	440.804321
1309.939331	390.833405
1309.037231	460.049438
1308.135010	454.427002
1307.232666	440.495270
1306.330078	440.418030
1305.427368	465.265747
1304.524536	470.722046
1303.621460	470.639465
1302.718262	467.788940
1301.814941	514.754333
1300.911499	462.090820
1300.007813	473.075836
1299.104004	528.313660
1298.199951	503.330933
1297.295898	611.080322
1296.391602	718.791870
1295.487061	843.050171
1294.582520	1039.118774
1293.677734	1119.067139
1292.772827	925.485596
1291.867676	781.690918
1290.962402	557.858093
1290.057007	521.864685
1289.151489	444.473358
1288.245728	455.436157
1287.339844	419.479645
1286.433838	389.054230
1285.527588	361.398254
1284.621216	319.960541
1283.714722	330.935547
1282.808105	358.450500
1281.901245	325.305603
1280.994263	311.466736
1280.087036	330.703033
1279.179810	311.357300
1278.272217	308.547699
1277.364624	275.440582
1276.456787	297.423553
1275.548828	291.864410
1274.640747	267.036499
1273.732544	316.534027
1272.824097	272.446594
1271.915405	280.653198
1271.006714	280.603851
1270.097778	286.055573
1269.188721	288.755341
1268.279541	269.457581
1267.370117	252.915680
1266.460571	266.614197
1265.550781	236.338013
1264.640991	299.492004
1263.730957	277.462128
1262.820679	280.159973
1261.910400	318.557251
1260.999878	288.298492
1260.089233	318.445129
1259.178345	271.728607
1258.267334	310.100311
1257.356201	323.764557
1256.444824	304.504578
1255.533447	304.450958
1254.621704	296.170410
1253.709961	361.922333
1252.797974	301.548828
1251.885864	334.386169
1250.973633	290.481110
1250.061157	345.228027
1249.148560	309.554749
1248.235840	251.982483
1247.322876	276.584198
1246.409790	279.273468
1245.496582	290.174225
1244.583130	251.804962
1243.669556	284.598938
1242.755859	276.340637
1241.841919	246.200745
1240.927856	284.448517
1240.013672	248.848572
1239.099365	273.411774
1238.184814	278.830841
1237.270142	262.382782
1236.355225	273.267212
1235.440186	245.897125
1234.525024	251.317184
1233.609741	275.853912
1232.694214	256.690063
1231.778564	264.835571
1230.862671	297.546234
1229.946777	281.117950
1229.030640	251.051361
1228.114258	335.585541
1227.197876	297.336365
1226.281128	357.286163
1225.364380	302.685242
1224.447388	324.443115
1223.530273	351.645203
1222.613037	419.719391
1221.695557	416.920349
1220.777954	457.714081
1219.860229	487.597382
1218.942261	520.193604
1218.024170	479.256104
1217.105957	484.616608
1216.187500	465.476471
1215.268921	440.899841
1214.350220	435.379730
1213.431274	370.007416
1212.512207	331.859802
1211.593018	320.922455
1210.673706	329.023376
1209.754150	290.903137
1208.834351	312.597687
1207.914551	296.235901
1206.994507	260.858917
1206.074219	263.529602
1205.153931	258.050415
1204.233398	293.310730
1203.312744	282.397430
1202.391846	266.058258
1201.470825	279.583221
1200.549683	260.536346
1199.628296	260.490295
1198.706787	252.305359
1197.785156	279.385559
1196.863281	238.656128
1195.941284	276.575226
1195.019165	260.260071
1194.096802	265.635162
1193.174438	265.588196
1192.251709	265.541199
1191.328979	254.657730
1190.406006	262.738617
1189.482788	257.275787
1188.559570	287.014832
1187.636108	251.770340
1186.712402	230.071960
1185.788696	265.212494
1184.864746	216.461670
1183.940552	227.244537
1183.016357	240.728378
1182.091919	232.572754
1181.167236	246.050858
1180.242554	237.897171
1179.317505	251.369537
1178.392456	272.944397
1177.467163	291.809631
1176.541748	297.160889
1175.616211	332.221039
1174.690430	310.558167
1173.764526	369.903748
1172.838501	369.838226
1171.912231	442.647614
1170.985840	461.459351
1170.059204	555.811584
1169.132446	639.339844
1168.205566	687.775391
1167.278564	657.989990
1166.351318	668.658203
1165.423828	601.146545
1164.496338	595.649536
1163.568604	538.953796
1162.640747	498.443848
1161.712646	525.293640
1160.784424	506.347137
1159.856079	503.564484
1158.927490	543.860901
1157.998779	481.850677
1157.069946	532.902283
1156.140869	618.918152
1155.211670	691.451050
1154.282349	745.128296
1153.352783	798.786438
1152.423096	906.206299
1151.493164	938.308228
1150.563232	892.444275
1149.632935	825.095703
1148.702637	781.955200
1147.772095	679.723511
1146.841431	601.703735
1145.910522	526.397339
1144.979492	494.081177
1144.048340	434.929016
1143.116943	381.166412
1142.185425	391.833893
1141.253784	370.297791
1140.321899	329.989410
1139.389893	321.883698
1138.457764	351.327301
1137.525391	324.450806
1136.592896	300.264740
1135.660278	313.613708
1134.727417	348.397766
1133.794434	340.297333
1132.861206	372.385223
1131.927856	431.247253
1130.994385	524.903381
1130.060669	650.657410
1129.126831	663.927368
1128.192871	693.252563
1127.258667	634.253479
1126.324341	612.735107
1125.389893	476.189789
1124.455200	395.862671
1123.520386	390.443756
1122.585327	374.331543
1121.650146	315.451904
1120.714844	310.050110
1119.779297	336.718658
1118.843628	296.580353
1117.907837	248.442032
1116.971802	267.094452
1116.035645	243.012711
1115.099365	264.329437
1114.162842	242.926239
1113.226196	256.228241
1112.289307	242.839783
1111.352417	285.486084
1110.415161	274.764771
1109.477905	282.717316
1108.540405	266.666962
1107.602661	253.288513
1106.664917	274.569183
1105.726807	295.842255
1104.788696	298.454346
1103.850342	295.736908
1102.911865	330.313934
1101.973145	322.265076
1101.034302	324.870544
1100.095337	362.086243
1099.156128	314.107117
1098.216797	292.759552
1097.277344	300.690308
1096.337646	279.352722
1095.397827	292.603088
1094.457764	265.955414
1093.517700	268.567078
1092.577271	225.981522
1091.636841	255.180710
1090.696167	236.531601
1089.755249	263.061279
1088.814209	220.507019
1087.873047	254.998795
1086.931763	228.395691
1085.990234	257.563141
1085.048584	236.278687
1084.106689	225.619171
1083.164673	265.386993
1082.222412	204.311523
1081.280151	297.127411
1080.337524	244.025391
1079.394897	249.285812
1078.452026	267.801849
1077.509033	249.196869
1076.565796	254.453506
1075.622437	243.807770
1074.678955	219.917755
1073.735229	280.808685
1072.791382	248.974579
1071.847290	270.115692
1070.903076	243.590256
1069.958740	275.313751
1069.014160	283.204895
1068.069458	240.813507
1067.124512	285.749603
1066.179565	293.634644
1065.234253	402.022491
1064.288940	438.972443
1063.343384	460.045563
1062.397583	533.980469
1061.451660	578.816040
1060.505615	520.577087
1059.559448	512.557922
1058.613037	483.408966
1057.666382	425.218231
1056.719727	380.251434
1055.772827	306.258911
1054.825684	298.285126
1053.878418	250.725845
1052.931030	287.623505
1051.983398	269.104156
1051.035645	279.607239
1050.087769	308.567902
1049.139648	290.054718
1048.191406	305.821167
1047.242920	282.043213
1046.294312	329.430817
1045.345581	339.911804
1044.396606	376.734039
1043.447510	376.666656
1042.498291	352.897217
1041.548828	392.330444
1040.599121	408.055969
1039.649414	444.833008
1038.699341	436.858368
1037.749268	473.617065
1036.798950	407.763947
1035.848511	449.775177
1034.897827	439.175507
1033.947021	391.769073
1032.996094	357.523865
1032.044922	362.716614
1031.093506	310.093445
1030.142090	299.528168
1029.190430	338.879059
1028.238525	273.155914
1027.286499	267.854919
1026.334351	238.925797
1025.381958	241.508087
1024.429443	246.714066
1023.476807	254.542313
1022.523926	233.507278
1021.570923	238.711853
1020.617737	225.555389
1019.664368	249.115372
1018.710815	264.801514
1017.757080	225.434143
1016.803223	186.080872
1015.849121	251.557205
1014.894897	225.312927
1013.940491	256.705902
1012.985962	238.327042
1012.031189	256.613861
1011.076294	259.185883
1010.121216	248.669128
1009.165955	308.817841
1008.210510	293.062653
1007.254944	279.929291
1006.299133	316.498779
1005.343201	282.444092
1004.387085	326.844238
1003.430786	311.099884
1002.474365	365.934174
1001.517700	394.615326
1000.560913	519.962646
999.603943	540.768555
998.646790	616.417786
997.689514	629.364441
996.731995	707.581543
995.774353	746.612488
994.816528	879.591736
993.858521	1103.859009
992.900330	1489.811646
991.942017	1432.153687
990.983459	1163.252808
990.024780	824.040100
989.065918	565.773987
988.106873	417.085602
987.147705	328.395905
986.188293	304.884277
985.228760	307.434875
984.269043	268.305969
983.309143	278.675507
982.349060	291.645325
981.388794	265.557831
980.428406	270.716187
979.467834	286.282959
978.507019	309.650421
977.546082	374.635681
976.585022	395.377655
975.623718	496.733917
974.662292	598.053711
973.700623	582.347595
972.738831	597.838623
971.776855	618.521729
970.814758	527.467773
969.852417	498.796051
968.889954	381.822021
967.927246	399.932068
966.964417	347.930237
966.001404	282.966949
965.038208	269.938232
964.074890	262.104370
963.111328	262.057190
962.147644	246.445084
961.183777	267.150269
960.219727	251.542816
959.255493	261.868561
958.291077	233.306229
957.326538	207.345963
956.361755	233.222214
955.396851	183.953278
954.431763	253.861618
953.466492	227.916321
952.501038	227.875275
951.535461	233.012268
950.569641	227.793182
949.603699	209.635498
948.637573	225.123489
947.671265	240.605881
946.704773	245.735916
945.738098	276.726379
944.771240	281.848022
943.804260	315.406067
942.837097	330.858185
941.869751	304.954926
940.902222	330.738922
939.934509	356.513611
938.966614	340.951538
937.998535	348.637573
937.030334	281.441803
936.061951	283.972595
935.093323	229.718216
934.124573	234.838058
933.155640	263.177612
932.186584	237.333054
931.217285	250.186447
930.247864	234.668655
929.278198	293.927460
928.308411	237.161835
927.338440	237.119034
926.368286	208.730164
925.397949	213.845398
924.427429	247.294617
923.456787	213.768204
922.485901	236.905121
921.514893	223.989395
920.543701	198.207703
919.572327	211.040222
918.600769	221.294891
917.629028	210.964005
916.657104	205.781372
915.685059	218.603226
914.712769	226.277756
913.740356	264.799988
912.767761	236.477646
911.794983	213.305420
910.822021	249.239609
909.848877	259.470642
908.875549	233.738220
907.902039	246.536423
906.928406	231.086136
905.954590	249.014481
904.980530	264.369629
904.006348	248.924469
903.031982	302.760590
902.057434	282.183411
901.082703	343.688568
900.107849	330.804535
899.132751	353.819916
898.157532	343.502136
897.182068	328.062103
896.206482	297.252502
895.230713	292.074615
894.254761	307.391357
893.278625	274.041046
892.302307	230.460098
891.325806	256.020447
890.349182	243.175415
889.372314	235.453583
888.395325	240.528595
887.418091	253.276825
886.440735	240.441528
885.463196	258.299988
884.485474	230.126633
883.507568	258.206482
882.529480	245.379532
881.551270	230.001663
880.572815	250.400909
879.594238	255.464859
878.615417	227.322540
877.636475	255.372330
876.657349	255.326065
875.677979	252.727020
874.698486	234.814880
873.718811	244.979828
872.739014	250.038269
871.758972	283.155273
870.778748	262.700073
869.798401	244.802307
868.817810	229.460571
867.837097	267.655487
866.856140	257.412415
865.875061	308.329254
864.893799	272.605377
863.912354	308.217468
862.930725	275.053314
861.948914	297.920380
860.966919	285.137024
859.984741	313.084778
859.002441	315.572906
858.019897	307.882233
857.037231	330.722565
856.054321	320.488342
855.071289	333.145660
854.088074	315.286774
853.104614	376.241730
852.121033	338.047760
851.137268	345.610168
850.153320	393.822479
849.169189	403.912292
848.184937	413.998444
847.200439	431.699158
846.215759	528.100708
845.230896	609.236328
844.245911	710.646667
843.260681	918.597778
842.275330	1123.936279
841.289795	1225.197754
840.304016	1207.221924
839.318115	1004.145081
838.332031	846.776611
837.345764	735.091614
836.359314	577.829102
835.372681	575.190247
834.385864	529.484192
833.398865	519.256165
832.411743	486.239349
831.424377	460.830597
830.436829	491.125763
829.449158	468.256439
828.461243	460.579346
827.473206	407.361511
826.484924	407.287445
825.496521	440.093964
824.507935	414.725800
823.519104	371.668304
822.530151	356.433350
821.541016	381.642883
820.551697	384.100433
819.562195	396.663147
818.572510	401.643097
817.582642	472.286774
816.592590	424.223206
815.602356	482.213623
814.611938	507.368073
813.621399	588.036072
812.630615	673.721252
811.639648	888.040100
810.648560	1135.071899
809.657227	1260.961426
808.665771	1401.933838
807.674072	1411.762573
806.682251	1182.135864
805.690186	975.273499
804.697998	745.809814
803.705566	604.600525
802.713013	564.191040
801.720276	460.839966
800.727356	448.167053
799.734253	397.738739
798.740906	369.980652
797.747437	405.143066
796.753784	329.590515
795.759949	344.623444
794.765930	321.925262
793.771729	289.177002
792.777344	311.751434
791.782776	301.639923
790.788025	283.992493
789.793091	319.119202
788.798035	298.962677
787.802734	276.301666
786.807251	281.274048
785.811584	263.646332
784.815796	238.493652
783.819763	240.960159
782.823547	263.502106
781.827148	190.690536
780.830627	240.828308
779.833862	228.243515
778.836975	250.771286
777.839844	250.725525
776.842529	248.172974
775.845093	263.165741
774.847412	225.529449
773.849609	220.477432
772.851563	258.011719
771.853394	237.928528
770.854980	240.389145
769.856445	282.906403
768.857666	227.785675
767.858765	217.733337
766.859680	230.204712
765.860352	265.187408
764.860901	280.146851
763.861206	235.080292
762.861389	252.540131
761.861389	234.994415
760.861145	184.961807
759.860779	227.411469
758.860168	257.352753
757.859436	232.324600
756.858521	229.784470
755.857361	224.748077
754.856079	227.203735
753.854614	249.628799
752.852905	224.624847
751.851074	249.537537
750.848999	244.502075
749.846802	244.457367
748.844421	256.882690
747.841797	249.355057
746.839050	241.830170
745.836121	219.352188
744.832947	239.249527
743.829651	246.680939
742.826111	239.162003
741.822449	214.210098
740.818604	241.564850
739.814514	241.520645
738.810303	214.092529
737.805847	276.278137
736.801270	238.899536
735.796448	238.855804
734.791504	236.324448
733.786316	266.127228
732.781006	238.724640
731.775452	228.735901
730.769775	243.608841
729.763855	221.196075
728.757751	243.519623
727.751526	236.021698
726.745056	248.398392
725.738403	260.770538
724.731628	233.408951
723.724609	238.331421
722.717407	250.698578
721.710083	253.134354
720.702515	208.425385
719.694763	260.483978
718.686829	245.554169
717.678711	252.948837
716.670410	255.381912
715.661987	235.503235
714.653320	235.460068
713.644470	227.982681
712.635437	237.851349
711.626221	210.558929
710.616821	235.287415
709.607178	269.911835
708.597412	262.434937
707.587463	259.911438
706.577332	220.265472
705.567017	240.020584
704.556458	244.924515
703.545776	239.932510
702.534912	244.834641
701.523804	244.789719
700.512573	274.410828
699.501099	294.134186
698.489502	261.953796
697.477661	254.493286
696.465698	205.039459
695.453491	254.399841
694.441101	244.475342
693.428589	222.209503
692.415833	232.042862
691.402893	264.085388
690.389771	244.295822
689.376465	241.783768
688.362976	246.672806
687.349304	219.498474
686.335449	251.513824
685.321411	244.071518
684.307190	248.956497
683.292725	243.981827
682.278137	236.544952
681.263367	251.282822
680.248352	258.625946
679.233215	283.204926
678.217834	273.304077
677.202332	241.251129
676.186584	253.513245
675.170654	209.171494
674.154541	226.355759
673.138306	241.073746
672.121826	253.326828
671.105164	236.067017
670.088318	240.940750
669.071289	240.896439
668.054016	231.021423
667.036621	265.380035
666.019043	257.960907
665.001282	213.699692
663.983276	250.498367
662.965149	265.184753
661.946777	213.581741
660.928223	247.905579
659.909546	240.497772
658.890625	250.267914
657.871521	272.300232
656.852234	245.270370
655.832764	247.677460
654.813110	272.149872
653.793274	281.905151
652.773254	254.893341
651.752991	232.792389
650.732605	264.599426
649.711975	262.101135
648.691223	301.238342
647.670227	296.285553
646.649048	315.816498
645.627747	264.355774
644.606201	247.176056
643.584473	286.279877
642.562561	271.548798
641.540466	276.390625
640.518127	244.548386
639.495667	286.068848
638.473022	283.571533
637.450134	295.739899
636.427063	317.678497
635.403870	332.279297
634.380432	288.247986
633.356812	293.079498
632.333008	295.467316
631.309021	300.295654
630.284851	307.563202
629.260498	300.184875
628.235901	312.329865
627.211182	280.557098
626.186218	282.944519
625.161133	290.208466
624.135803	273.086975
623.110291	251.096130
622.084595	311.984192
621.058716	282.683472
620.032654	275.321869
619.006409	323.991577
617.979919	289.833679
616.953308	253.253235
615.926453	277.553253
614.899414	279.936218
613.872253	272.583191
612.844849	296.866119
611.817261	245.720810
610.789490	287.026733
609.761475	226.174179
608.733337	226.132401
607.705017	289.298737
606.676453	252.785782
605.647705	284.331451
604.618774	238.113953
603.589722	286.655640
602.560425	259.885468
601.530884	269.550964
600.501221	264.645264
599.471375	308.291138
598.441284	305.807068
597.411011	252.365509
596.380615	274.154114
595.349976	254.697876
594.319153	274.052734
593.288147	305.524384
592.256897	273.951355
591.225525	269.052856
590.193970	281.120331
589.162170	298.029327
588.130188	283.438873
587.098022	261.587463
586.065674	283.333954
585.033142	273.596680
584.000427	244.496902
582.967468	268.654785
581.934387	287.963959
580.901062	285.491211
579.867554	326.560852
578.833862	343.430023
577.799988	287.750732
576.765930	319.126587
575.731628	321.484650
574.697205	292.424347
573.662537	299.619019
572.627747	299.563507
571.592712	309.169556
570.557434	265.643341
569.522034	282.495575
568.486450	258.302765
567.450623	267.909302
566.414673	318.535797
565.378479	287.111603
564.342102	318.417694
563.305542	318.358673
562.268799	325.533752
561.231812	313.418823
560.194702	325.413025
559.157349	308.482544
558.119812	342.159363
557.082092	344.505035
556.044189	337.215088
555.006042	325.111359
553.967773	378.022339
552.929260	320.176086
551.890625	327.337341
550.851746	353.747498
549.812683	317.591888
548.773376	324.749603
547.733948	331.904633
546.694275	370.317596
545.654419	346.206726
544.614441	331.719849
543.574158	358.094788
542.533752	360.431183
541.493164	372.376404
540.452332	377.111206
539.411316	369.836578
538.370178	408.185333
537.328735	376.901123
536.287170	420.034698
535.245422	439.154694
534.203430	417.479340
533.161255	446.188110
532.118896	460.495697
531.076355	424.440582
530.033630	455.529510
528.990723	500.989319
527.947571	467.343353
526.904236	491.218353
525.860718	419.254791
524.817017	416.781555
523.773132	495.734131
522.729004	433.387421
521.684692	450.064545
520.640198	433.226257
519.595520	440.324890
518.550659	437.850372
517.505615	449.729828
516.460327	401.811462
515.414856	361.084778
514.369202	399.271118
513.323364	401.587219
512.277283	401.512512
511.231079	387.100739
510.184631	387.028687
509.138000	365.459045
508.091187	365.391022
507.044159	353.384338
505.996948	379.578735
504.949554	353.252777
503.901947	379.437408
502.854126	362.665070
501.806152	381.681610
500.757965	350.604675
499.709564	391.077942
