#Wave		#Intensity
3200.600830	21.049261
3200.007080	42.098522
3199.413086	25.255297
3198.819092	33.668640
3198.224854	12.623831
3197.630615	12.621923
3197.036377	46.273388
3196.442139	46.266392
3195.847656	16.821600
3195.252930	37.842876
3194.658447	50.449543
3194.063721	4.203493
3193.468750	16.811428
3192.873779	16.808887
3192.278809	29.411104
3191.683838	33.607605
3191.088623	25.201893
3190.493164	25.198082
3189.897949	8.398090
3189.302490	25.190460
3188.706787	41.977749
3188.111328	25.182840
3187.515381	16.786020
3186.919678	12.587610
3186.323730	54.538059
3185.727783	41.946007
3185.131592	25.163795
3184.535400	25.159988
3183.939209	-4.192697
3183.342773	16.768250
3182.746338	20.957140
3182.149902	29.335556
3181.553223	25.140957
3180.956543	8.379050
3180.359619	16.755566
3179.762695	8.376514
3179.165771	37.688606
3178.568604	29.308924
3177.971436	29.304487
3177.374268	12.557164
3176.776855	8.370175
3176.179443	29.291180
3175.581787	41.838207
3174.984131	58.564617
3174.386475	37.642982
3173.788574	33.455360
3173.190674	45.994156
3172.592773	45.987190
3171.994629	29.260143
3171.396484	45.973259
3170.798340	29.251280
3170.199951	12.534364
3169.601563	29.242418
3169.002930	33.414845
3168.404297	0.000000
3167.805664	20.877949
3167.206787	16.699829
3166.607910	54.266220
3166.008789	16.694769
3165.409912	37.557537
3164.810547	37.551846
3164.211426	20.858974
3163.612061	25.026976
3163.012695	25.023182
3162.413086	25.019390
3161.813477	12.507798
3161.213623	25.011805
3160.614014	29.176016
3160.013916	29.171593
3159.414063	37.500645
3158.813965	29.162746
3158.213867	29.158325
3157.613525	20.824217
3157.013184	33.313694
3156.412598	37.472225
3155.812256	24.977694
3155.211426	16.649271
3154.610840	20.808432
3154.010010	37.449497
3153.409180	37.443817
3152.808105	33.278343
3152.207031	20.795809
3151.605957	33.268250
3151.004639	20.789501
3150.403320	16.629078
3149.801758	12.469915
3149.200195	20.780039
3148.598633	29.087641
3147.996826	33.237972
3147.395020	29.078814
3146.793213	49.841827
3146.191162	29.069988
3145.589111	33.217800
3144.986816	16.606379
3144.384766	4.150965
3143.782227	33.202675
3143.179932	24.898228
3142.577393	20.745373
3141.974609	4.148445
3141.371826	29.034704
3140.769043	8.294370
3140.166260	16.586222
3139.563232	41.459255
3138.960205	29.017073
3138.356934	33.157333
3137.753662	24.864223
3137.150391	29.003855
3136.546875	20.713892
3135.943359	12.426448
3135.339600	8.283040
3134.735840	41.408909
3134.132080	24.841572
3133.528076	28.977430
3132.924072	45.529045
3132.320068	8.276751
3131.715820	20.688732
3131.111572	33.096943
3130.507080	24.818933
3129.902588	45.494465
3129.298096	12.405696
3128.693604	33.076828
3128.088867	45.473724
3127.483887	45.466812
3126.878906	45.459904
3126.273926	45.452991
3125.668945	28.920235
3125.063721	20.654171
3124.458252	12.390618
3123.853027	20.647890
3123.247559	24.773701
3122.641846	49.539871
3122.036133	28.893864
3121.430420	28.889469
3120.824707	24.758636
3120.218750	49.509743
3119.612549	20.625921
3119.006592	53.619240
3118.400391	32.991436
3117.793945	4.123302
3117.187500	45.349426
3116.581055	28.854336
3115.974609	28.849947
3115.367920	28.845558
3114.760986	16.480667
3114.154297	20.597700
3113.547363	20.594566
3112.940186	20.591433
3112.333008	32.941280
3111.725830	24.702200
3111.118408	28.814846
3110.510986	32.926243
3109.903564	28.806076
3109.295898	32.916218
3108.688232	20.569506
3108.080566	37.019474
3107.472656	41.126488
3106.864746	24.672134
3106.256592	45.225361
3105.648438	45.218475
3105.040039	16.440578
3104.431885	45.204708
3103.823486	45.197823
3103.214844	32.866138
3102.606201	28.753492
3101.997559	45.177177
3101.388672	32.851124
3100.779785	20.528826
3100.170898	28.735979
3099.561768	49.254173
3098.952637	8.207778
3098.343262	8.206528
3097.733887	41.026390
3097.124512	32.816109
3096.514893	20.506945
3095.905273	16.403055
3095.295410	36.901253
3094.685791	28.696600
3094.075684	24.593336
3093.465820	32.786118
3092.855713	32.781120
3092.245361	36.873142
3091.635254	20.481956
3091.024658	40.957668
3090.414307	12.285427
3089.803711	40.945183
3089.193115	49.126728
3088.582275	40.932697
3087.971436	40.926456
3087.360596	40.920216
3086.749512	20.456989
3086.138428	36.816963
3085.527100	12.270451
3084.915771	40.895264
3084.304443	40.889027
3083.692871	49.059349
3083.081299	28.613588
3082.469482	49.044384
3081.857910	28.604860
3081.245850	53.115208
3080.634033	32.681293
3080.021973	44.929924
3079.409668	24.503492
3078.797607	40.832924
3078.185059	32.661354
3077.572754	32.656372
3076.960205	24.488541
3076.347656	32.646404
3075.734863	44.881954
3075.122070	28.556885
3074.509033	36.710392
3073.895996	40.783096
3073.282959	16.310749
3072.669922	28.539454
3072.056641	24.458654
3071.443115	44.834023
3070.829834	44.827175
3070.216064	32.596603
3069.602539	48.887444
3068.988770	4.073331
3068.375000	69.236061
3067.760986	40.720875
3067.146973	36.643188
3066.532715	40.708439
3065.918701	24.421331
3065.304199	52.904804
3064.689941	36.620808
3064.075439	32.546856
3063.460693	32.541885
3062.846191	20.335571
3062.231445	36.598438
3061.616455	40.658718
3061.001465	28.456753
3060.386475	32.517033
3059.771240	32.512066
3059.156006	44.697258
3058.540771	20.313831
3057.925293	16.248581
3057.309814	12.184573
3056.694092	36.548134
3056.078369	28.421980
3055.462646	24.357973
3054.846680	20.295208
3054.230713	40.584213
3053.614502	28.404606
3052.998291	28.400263
3052.382080	32.452480
3051.765625	24.335638
3051.149170	8.110640
3050.532715	40.546993
3049.916016	20.270397
3049.299316	52.694973
3048.682373	36.475555
3048.065430	32.417755
3047.448486	28.361198
3046.831299	28.356861
3046.214111	24.302162
3045.596680	20.248703
3044.979248	60.736816
3044.361816	28.339512
3043.744141	76.909767
3043.126465	32.378105
3042.508545	28.326506
3041.890869	48.552292
3041.272705	56.635674
3040.654785	52.582222
3040.036621	24.265003
3039.418213	52.566128
3038.799805	56.601009
3038.181396	28.296173
3037.562988	32.333534
3036.944336	32.328583
3036.325439	44.444996
3035.706543	48.478027
3035.087646	44.431389
3034.468750	44.424587
3033.849609	36.341824
3033.230469	52.485706
3032.611084	44.404182
3031.991699	56.505760
3031.372070	36.319569
3030.752441	52.453564
3030.132813	52.445530
3029.513184	36.302883
3028.893066	28.231249
3028.273193	16.129671
3027.653076	40.318001
3027.032959	36.280643
3026.412598	36.275082
3025.792480	16.119789
3025.171875	48.351955
3024.551270	32.229698
3023.930664	32.224758
3023.310059	36.247299
3022.689209	24.161163
3022.068115	24.157459
3021.447266	48.307514
3020.826172	56.350128
3020.204834	48.292706
3019.583496	32.190201
3018.962158	52.301060
3018.340576	32.180332
3017.718994	52.285023
3017.097412	52.277008
3016.475586	44.227608
3015.853760	44.220829
3015.231689	48.233505
3014.609619	44.207264
3013.987549	40.182259
3013.365234	36.158489
3012.742920	44.186928
3012.120361	40.163773
3011.497803	48.189137
3010.875244	52.196888
3010.252441	76.276062
3009.629639	44.153049
3009.006836	36.119678
3008.383789	40.126820
3007.760498	20.060331
3007.137451	64.183212
3006.514160	48.130020
3005.890625	68.173737
3005.267090	56.134457
3004.643555	48.107864
3004.019775	40.083736
3003.395996	32.062065
3002.772217	44.078575
3002.148193	48.078335
3001.524170	40.059128
3000.899902	32.042385
3000.275635	60.070244
2999.651367	28.028477
2999.026855	60.051800
2998.402344	44.031223
2997.777588	40.022240
2997.152832	32.012875
2996.528076	8.001989
2995.903076	28.002663
2995.278076	47.997192
2994.653076	43.990669
2994.027832	39.985374
2993.402344	35.981308
2992.777100	51.965015
2992.151367	59.950424
2991.525879	67.933372
2990.900146	47.945602
2990.274414	43.943382
2989.648438	43.936630
2989.022461	51.917130
2988.396240	67.881203
2987.770264	67.870766
2987.143799	43.909630
2986.517578	47.894051
2985.891113	35.915016
2985.264404	59.849163
2984.637695	31.914646
2984.010986	51.853329
2983.384033	51.845356
2982.757080	43.862404
2982.130127	39.868782
2981.502930	39.862652
2980.875732	51.813480
2980.248291	55.790550
2979.620850	43.828693
2978.993408	27.886696
2978.365723	63.731216
2977.738037	47.791061
2977.110107	71.675568
2976.482178	51.757725
2975.854248	59.711266
2975.226074	39.801388
2974.597900	43.774792
2973.969482	59.683712
2973.341309	51.717926
2972.712646	67.620728
2972.083984	39.770779
2971.455322	51.694057
2970.826660	43.734394
2970.197754	59.628632
2969.568604	55.644825
2968.939697	55.636261
2968.310547	71.521324
2967.681152	67.537521
2967.051758	59.582756
2966.422363	67.516731
2965.792725	51.622490
2965.163086	75.436638
2964.533203	47.636860
2963.903564	63.506031
2963.273438	71.433289
2962.643311	47.614857
2962.013184	47.607525
2961.383057	59.500240
2960.752686	63.457150
2960.122314	67.412834
2959.491699	75.332153
2958.861084	79.284790
2958.230225	63.418064
2957.599609	87.186401
2956.968506	83.210564
2956.337646	55.465164
2955.706299	59.417805
2955.075195	75.250954
2954.443848	51.479565
2953.812500	55.430988
2953.180908	63.339935
2952.549316	47.497631
2951.917725	63.320415
2951.285889	106.836731
2950.653809	63.300900
2950.021973	59.335445
2949.389893	67.236473
2948.757568	75.135063
2948.125244	67.215744
2947.492920	67.205383
2946.860352	59.289722
2946.227783	59.280582
2945.595215	51.368580
2944.962402	55.311481
2944.329590	86.904640
2943.696533	55.294422
2943.063477	55.285896
2942.430420	55.277367
2941.797119	43.425518
2941.163574	43.418819
2940.530273	74.984573
2939.896729	59.189217
2939.262939	63.125423
2938.629150	39.447304
2937.995361	90.714798
2937.361328	82.813774
2936.727295	74.915192
2936.093262	70.961334
2935.458984	86.717133
2934.824707	86.703751
2934.190186	82.749901
2933.555664	90.616852
2932.921143	55.149570
2932.286377	66.957001
2931.651367	82.698822
2931.016602	70.873764
2930.381592	70.862816
2929.746338	90.532959
2929.111084	66.905334
2928.475830	74.764999
2927.840332	90.491028
2927.204834	98.344627
2926.569336	66.864014
2925.933594	70.786263
2925.297607	102.231033
2924.661865	55.038975
2924.025879	86.476463
2923.389648	43.231552
2922.753418	62.872543
2922.117188	94.294243
2921.480713	54.996479
2920.844238	106.048248
2920.207764	94.250549
2919.571045	102.088982
2918.934082	90.295532
2918.297363	62.804577
2917.660156	113.815704
2917.023193	66.709236
2916.385986	74.545860
2915.748779	101.994362
2915.111328	105.900848
2914.473877	101.962830
2913.836182	78.420822
2913.198486	94.090439
2912.560791	94.075897
2911.922852	86.222908
2911.284912	54.860638
2910.646729	86.196243
2910.008545	66.595886
2909.370361	94.003189
2908.731934	113.569618
2908.093506	105.720879
2907.455078	93.959579
2906.816406	97.859421
2906.177490	93.930519
2905.538574	74.350159
2904.899658	86.076340
2904.260498	101.710846
2903.621338	93.872406
2902.982178	70.393410
2902.342773	89.933220
2901.703369	78.190704
2901.063721	113.358971
2900.424072	101.616455
2899.784424	109.416168
2899.144531	93.770775
2898.504639	105.475792
2897.864502	97.647659
2897.224365	117.159050
2896.583984	81.998642
2895.943848	85.890038
2895.303223	105.394188
2894.662842	89.766335
2894.021973	89.752434
2893.381348	97.541885
2892.740479	78.021431
2892.099609	93.611214
2891.458496	97.496582
2890.817383	58.488892
2890.176025	97.466385
2889.534668	89.655190
2888.893311	101.333649
2888.251709	109.111641
2887.610107	97.406013
2886.968262	128.556015
2886.326416	112.955971
2885.684570	81.783028
2885.042480	81.770363
2884.400391	109.010254
2883.758057	108.993362
2883.115723	97.300423
2882.473389	116.742409
2881.830811	85.597832
2881.188232	93.364983
2880.545410	73.902489
2879.902588	105.003052
2879.259766	136.093964
2878.616699	120.521683
2877.973633	93.292648
2877.330322	112.711136
2876.687012	132.123611
2876.043457	104.905418
2875.399902	93.234802
2874.756348	143.714691
2874.112549	128.158096
2873.468750	128.138229
2872.824707	128.118347
2872.180664	131.980255
2871.536621	120.316269
2870.892334	124.178177
2870.248047	108.639053
2869.603760	81.466652
2868.958984	112.484108
2868.314453	93.075851
2867.669678	120.204330
2867.024902	108.554802
2866.379883	96.908890
2865.734863	116.272629
2865.089844	112.379433
2864.444580	108.487442
2863.799316	69.731102
2863.153809	81.340324
2862.508301	77.454956
2861.862549	104.547958
2861.216797	89.045547
2860.571045	104.515503
2859.925049	127.721336
2859.279053	104.483047
2858.632813	108.335968
2857.986572	96.713524
2857.340332	104.434387
2856.693848	88.948814
2856.047363	116.002174
2855.400635	127.582573
2854.753906	96.638458
2854.107178	85.028633
2853.460205	108.201447
2852.813232	65.683533
2852.166016	92.715286
2851.518799	81.113274
2850.871338	104.272293
2850.223877	88.810745
2849.576416	104.239899
2848.928711	69.482468
2848.281006	92.628891
2847.633301	104.191307
2846.985352	92.600105
2846.337158	123.447617
2845.688965	100.285599
2845.040771	84.843857
2844.392578	104.110367
2843.743896	96.383507
2843.095459	111.787483
2842.446777	119.478394
2841.798096	104.045647
2841.149170	77.058868
2840.500244	88.603920
2839.851074	92.441887
2839.202148	92.427513
2838.552734	92.413139
2837.903320	84.698868
2837.253906	111.631142
2836.604492	80.823776
2835.954834	92.355659
2835.304932	84.646187
2834.655029	100.020836
2834.005127	61.541710
2833.354980	107.681236
2832.704834	103.819328
2832.054688	123.025978
2831.404297	123.006836
2830.753906	96.084137
2830.103271	103.754723
2829.452637	119.107254
2828.801758	88.356148
2828.150879	126.752129
2827.500000	96.009392
2826.848877	119.033119
2826.197754	92.140327
2825.546387	95.964569
2824.895020	111.301567
2824.243408	69.072975
2823.591797	95.919754
2822.940186	88.232437
2822.288330	103.561073
2821.636475	95.874954
2820.984619	88.191223
2820.332520	92.011292
2819.680176	80.497345
2819.028076	91.982635
2818.375488	118.792397
2817.723145	80.459732
2817.070557	91.939659
2816.417725	80.434669
2815.764893	95.740639
2815.112061	91.896690
2814.458984	107.196106
2813.805908	72.728882
2813.152832	76.544785
2812.499512	103.319359
2811.845947	99.477211
2811.192383	80.334457
2810.538818	107.095917
2809.885010	99.430702
2809.231201	95.591545
2808.577393	114.691971
2807.923340	76.449394
2807.269287	72.615608
2806.614990	110.817062
2805.960693	57.310234
2805.306152	99.322250
2804.651611	87.848289
2803.997070	103.110176
2803.342285	91.639198
2802.687500	122.166542
2802.032471	95.427727
2801.377441	83.963295
2800.722412	95.397957
2800.067139	122.090340
2799.411621	106.812378
2798.756348	91.539185
2798.100586	49.575993
2797.445068	91.510628
2796.789307	99.121048
2796.133301	102.917328
2795.477539	76.223167
2794.821289	95.264084
2794.165283	110.489098
2793.509033	87.615608
2792.852539	110.454613
2792.196045	118.053741
2791.539551	106.612541
2790.882813	106.595901
2790.226074	87.547249
2789.569092	83.727776
2788.912109	106.545982
2788.255127	60.873913
2787.597900	79.884537
2786.940430	140.726974
2786.283203	98.873779
2785.625488	87.451607
2784.968018	106.446198
2784.310303	98.827461
2783.652588	83.610176
2782.994629	102.596458
2782.336426	79.784782
2781.678467	106.363091
2781.020264	106.346474
2780.361816	121.519844
2779.703369	91.125641
2779.044922	121.481873
2778.386230	87.301453
2777.727539	106.263420
2777.068604	83.479637
2776.409668	113.818085
2775.750732	136.560349
2775.091553	121.368011
2774.432373	106.180412
2773.772949	102.372246
2773.113525	109.938187
2772.453857	102.340240
2771.794189	94.744675
2771.134521	106.097443
2770.474609	109.869453
2769.814697	98.488243
2769.154541	90.898010
2768.494385	109.817924
2767.833984	113.586983
2767.173584	113.569214
2766.513184	151.401947
2765.852539	109.749237
2765.191895	109.732071
2764.531006	98.365089
2763.870117	94.567017
2763.209229	90.770134
2762.548096	121.007912
2761.886719	68.056305
2761.225586	105.848793
2760.563965	105.832230
2759.902588	98.257408
2759.240967	109.577652
2758.579102	109.560501
2757.917236	124.652786
2757.255371	128.410034
2756.593262	98.180542
2755.931152	135.921005
2755.269043	117.024773
2754.606689	109.457649
2753.944092	105.666702
2753.281494	113.196594
2752.618896	132.042023
2751.956055	113.161148
2751.293213	109.371979
2750.630371	113.125710
2749.967285	113.107994
2749.303955	139.478012
2748.640625	139.456161
2747.977295	101.749374
2747.313721	109.269241
2746.650146	97.950180
2745.986572	120.535187
2745.322754	101.685631
2744.658691	90.373062
2743.994873	101.653770
2743.330566	120.459663
2742.666504	109.149460
2742.002197	101.605988
2741.337646	124.165634
2740.673096	139.194199
2740.008545	97.796806
2739.343750	120.346436
2738.678955	109.046860
2738.013916	90.231537
2737.348877	135.326080
2736.683594	120.270996
2736.018311	105.220619
2735.353027	131.505157
2734.687500	93.917526
2734.021973	120.195580
2733.356201	112.665688
2732.690430	138.932556
2732.024658	127.647728
2731.358643	112.612686
2730.692383	146.373535
2730.026367	108.824783
2729.359863	157.583588
2728.693604	116.293449
2728.027100	123.776833
2727.360352	116.256958
2726.693604	146.235809
2726.026855	123.718575
2725.359863	89.963028
2724.692871	149.914856
2724.025635	131.154907
2723.358398	97.414070
2722.691162	123.621529
2722.023682	97.383499
2721.355957	149.797241
2720.688477	168.495453
2720.020508	119.800179
2719.352783	123.524536
2718.684814	116.019981
2718.016602	145.937714
2717.348389	123.466362
2716.680176	130.928619
2716.011719	108.466675
2715.343262	108.449638
2714.674561	115.910721
2714.005859	123.369453
2713.337158	145.777359
2712.668213	145.754456
2711.999023	127.048035
2711.329834	127.028076
2710.660645	141.950256
2709.991455	141.927948
2709.321777	130.702576
2708.652344	134.415802
2707.982666	145.594238
2707.312988	138.106171
2706.643066	119.424400
2705.972900	123.137062
2705.302979	111.925186
2704.632813	134.289124
2703.962402	126.808678
2703.291992	137.975983
2702.621582	182.696228
2701.950928	164.027969
2701.280273	134.183594
2700.609375	137.889236
2699.938477	152.772156
2699.267334	145.297012
2698.596191	141.549179
2697.925049	156.424500
2697.253662	152.676086
2696.582031	122.866302
2695.910645	137.737518
2695.239014	137.715866
2694.567139	122.808334
2693.895264	156.276932
2693.223145	137.650879
2692.551270	159.947479
2691.878906	163.641434
2691.206543	145.022995
2690.534180	148.718124
2689.861816	156.129471
2689.189209	144.954544
2688.516357	130.066940
2687.843506	159.771378
2687.170654	122.595947
2686.497559	144.863312
2685.824463	155.982086
2685.151123	115.111511
2684.477783	167.071045
2683.804199	122.499481
2683.130615	129.903244
2682.457031	152.148407
2681.783203	159.545151
2681.109375	144.680954
2680.435303	144.658173
2679.761230	174.304184
2679.086914	148.320633
2678.412598	159.419571
2677.738281	129.739670
2677.063721	137.131760
2676.389160	144.521515
2675.714355	155.614044
2675.039551	159.294037
2674.364502	140.749298
2673.689453	125.913742
2673.014404	151.813232
2672.339111	122.171883
2671.663574	136.959015
2670.988037	170.246536
2670.312500	140.616272
2669.636719	159.093338
2668.960938	166.466782
2668.285156	159.043182
2667.609131	151.621918
2666.932861	166.388077
2666.256592	162.664917
2665.580322	184.817352
2664.903809	136.743271
2664.227295	155.197617
2663.550781	140.394760
2662.874023	166.230728
2662.197021	166.204514
2661.520020	169.871155
2660.843018	188.305695
2660.165771	166.125885
2659.488525	162.408569
2658.811035	143.930344
2658.133545	143.907639
2657.455811	177.089157
2656.778076	151.239792
2656.100342	132.774963
2655.422363	162.254898
2654.744385	176.977417
2654.066162	173.263031
2653.387939	151.120499
2652.709473	147.411362
2652.031006	169.496307
2651.352539	165.785446
2650.673828	154.708649
2649.994873	136.269440
2649.316162	162.024567
2648.636963	184.089752
2647.958008	180.379471
2647.278809	150.905930
2646.599365	154.562164
2645.919922	150.858276
2645.240479	161.871124
2644.560791	143.454025
2643.880859	158.142273
2643.201172	154.440155
2642.520996	191.181412
2641.841064	191.151215
2641.160889	135.989960
2640.480469	183.741180
2639.800049	172.689423
2639.119629	205.725098
2638.438965	220.384933
2637.758301	150.572571
2637.077393	154.220703
2636.396484	157.867676
2635.715332	161.513474
2635.034180	179.838852
2634.353027	146.784027
2633.671631	139.422791
2632.989990	135.732300
2632.308350	165.053741
2631.626709	179.696762
2630.944824	150.334747
2630.262939	179.639954
2629.581055	150.287216
2628.898926	161.258331
2628.216553	183.219131
2627.534180	164.871140
2626.851807	161.181839
2626.169189	183.132217
2625.486572	168.455002
2624.803711	179.412811
2624.120850	172.062622
2623.437988	164.714737
2622.754883	157.369186
2622.071533	190.276810
2621.388184	139.026443
2620.704834	197.532639
2620.021240	160.927048
2619.337646	186.499557
2618.653809	179.157501
2617.969971	201.063324
2617.286133	171.790558
2616.602051	168.108826
2615.917725	186.352020
2615.233398	208.242828
2614.549072	175.334610
2613.864502	178.959091
2613.179932	186.234055
2612.495117	167.949219
2611.810303	200.777054
2611.125488	204.395172
2610.440430	197.064133
2609.755127	175.140381
2609.069824	197.001724
2608.384521	164.142105
2607.698975	196.939316
2607.013428	175.029449
2606.327637	196.876938
2605.641846	218.717499
2604.956055	178.590988
2604.270020	163.986145
2603.583740	178.534409
2602.897461	185.792084
2602.211182	182.120239
2601.524658	178.449554
2600.838135	178.421265
2600.151367	185.674332
2599.464600	200.205292
2598.777832	214.731644
2598.090820	221.975494
2597.403564	203.748474
2596.716309	170.976074
2596.029053	178.223389
2595.341553	167.285233
2594.654053	181.802948
2593.966309	167.232193
2593.278564	185.380203
2592.590820	178.082138
2591.902832	214.391434
2591.214600	156.226593
2590.526367	199.793030
2589.838135	196.129318
2589.149658	217.886887
2588.461182	167.020126
2587.772461	221.448059
2587.083740	181.486008
2586.394775	203.232086
2585.705811	261.256927
2585.016846	217.679565
2584.327637	184.998276
2583.638184	199.476273
2582.948975	199.444626
2582.259277	206.664352
2581.569824	206.631546
2580.879883	210.223282
2580.190186	199.318024
2579.500244	199.286392
2578.810059	188.386307
2578.119873	217.334305
2577.429688	206.434814
2576.739258	202.780945
2576.048584	220.851318
2575.358154	217.196304
2574.667236	209.923080
2573.976563	199.033386
2573.285645	213.474625
2572.594482	206.205444
2571.903320	188.087372
2571.212158	195.290466
2570.520752	173.563950
2569.829102	216.920471
2569.137451	234.959839
2568.445801	206.008972
2567.753906	173.453674
2567.062012	184.265244
2566.370117	198.685837
2565.677979	216.713745
2564.985596	191.400055
2564.293213	231.087860
2563.600830	216.610428
2562.908203	220.185608
2562.215332	191.278397
2561.522705	209.290253
2560.829590	162.354553
2560.136719	209.223709
2559.443604	201.976974
2558.750244	223.581802
2558.056885	205.518326
2557.363525	241.535767
2556.669922	198.244095
2555.976074	187.400970
2555.282227	205.387619
2554.588379	205.354950
2553.894287	230.537308
2553.200195	216.094345
2552.505859	234.064972
2551.811523	219.626022
2551.117188	208.791519
2550.422607	241.151825
2549.727783	212.323792
2549.032959	255.467621
2548.338135	208.658661
2547.643066	237.401367
2546.947998	197.802994
2546.252686	251.709198
2545.557373	226.502213
2544.861816	244.439667
2544.166260	204.865341
2543.470703	251.548950
2542.774902	247.915924
2542.078857	219.137146
2541.382813	262.204346
2540.686768	226.249908
2539.990479	251.348755
2539.294189	229.767975
2538.597656	254.858261
2537.901123	211.749893
2537.204346	251.188675
2536.507568	229.621628
2535.810791	225.997787
2535.113770	236.721863
2534.416504	258.200897
2533.719238	222.304245
2533.021973	204.343918
2532.324463	250.908676
2531.626953	283.123230
2530.929199	222.162582
2530.231445	261.536835
2529.533447	211.345398
2528.835449	243.545700
2528.137451	229.182953
2527.439209	225.566010
2526.740723	293.547058
2526.042236	236.231903
2525.343750	207.564636
2524.645020	232.578461
2523.946289	207.498459
2523.247314	268.274170
2522.548340	232.467224
2521.849121	225.278442
2521.149902	232.393082
2520.450684	218.057175
2519.751221	253.763779
2519.051514	260.870422
2518.351807	250.109833
2517.652100	275.076935
2516.952148	267.889313
2516.252197	232.133713
2515.552002	217.813797
2514.851807	228.489487
2514.151367	221.313873
2513.450928	228.416580
2512.750244	242.653885
2512.049561	221.207932
2511.348877	231.874527
2510.647949	288.905212
2509.946777	224.668182
2509.245605	281.681793
2508.544434	278.071808
2507.843018	242.382874
2507.141602	245.908066
2506.439941	263.685364
2505.738281	267.206024
2505.036377	295.660767
2504.334473	245.751038
2503.632568	263.516998
2502.930420	256.353943
2502.228027	266.992706
2501.525635	270.509399
2500.823242	231.319778
2500.120605	245.515610
2499.417969	241.918762
2498.715088	241.880112
2498.012207	291.632355
2497.309082	248.914673
2496.605957	273.762390
2495.902588	284.382996
2495.199219	266.566467
2494.495605	252.309250
2493.791992	248.715836
2493.088379	269.991180
2492.384521	241.532440
2491.680664	269.904877
2490.976563	287.615784
2490.272461	234.316132
2489.568115	269.775421
2488.863770	234.241211
2488.159180	259.043549
2487.454590	269.646057
2486.749756	266.055511
2486.044922	283.747162
2485.339844	251.785339
2484.634766	248.199356
2483.929688	276.520752
2483.224365	280.021088
2482.519043	272.888306
2481.813477	283.474945
2481.107666	262.172363
2480.402100	272.757355
2479.696045	265.630219
2478.990234	265.587708
2478.284180	297.410645
2477.577881	279.662872
2476.871582	315.012817
2476.165039	258.339935
2475.458496	272.451935
2474.751953	283.021637
2474.045166	261.753113
2473.338379	290.004303
2472.631348	243.988937
2471.924072	275.769440
2471.217041	289.865021
2470.509521	293.352997
2469.802246	279.170776
2469.094482	247.326904
2468.386963	275.548706
2467.679199	293.165131
2466.971191	296.649719
2466.263184	310.726105
2465.554932	285.963440
2464.846680	296.507172
2464.138428	292.930389
2463.429932	271.711151
2462.721436	271.667633
2462.012695	313.955109
2461.303955	285.688660
2460.594971	296.222229
2459.885986	285.597107
2459.176758	299.652618
2458.467529	306.654114
2457.758057	260.790436
2457.048584	274.843140
2456.338867	324.122009
2455.629150	302.935028
2454.919434	274.710968
2454.209473	299.316528
2453.499512	316.872559
2452.789307	285.139587
2452.078857	274.534821
2451.368408	288.567261
2450.657959	277.965332
2449.947266	316.618561
2449.236572	327.120056
2448.525879	281.348450
2447.814697	316.466248
2447.103760	337.509827
2446.392578	274.182739
2445.681152	298.740967
2444.969727	284.636871
2444.258301	302.158569
2443.546631	337.239166
2442.834717	305.573944
2442.122803	316.060242
2441.410889	305.475861
2440.698730	312.448151
2439.986572	326.438354
2439.274170	326.385956
2438.561768	329.842529
2437.849121	305.230774
2437.136475	252.564224
2436.423584	291.103668
2435.710693	280.536804
2434.997803	283.997894
2434.284424	326.019318
2433.571289	332.976990
2432.857910	301.383392
2432.144287	280.311615
2431.430908	329.313232
2430.717041	308.243713
2430.003174	304.692017
2429.289307	308.144714
2428.575195	276.585449
2427.861084	332.549316
2427.146729	290.496399
2426.432373	297.448517
2425.717773	307.897217
2425.003174	314.844269
2424.288330	318.291382
2423.573486	286.765930
2422.858643	297.209595
2422.143555	353.098145
2421.428223	311.095886
2420.712891	297.066284
2419.997559	317.984528
2419.281982	300.464539
2418.566162	349.321198
2417.850586	331.801788
2417.134521	370.161407
2416.418457	321.220490
2415.702393	317.677856
2414.986084	300.174744
2414.269775	303.616302
2413.553223	341.949585
2412.836670	317.473541
2412.120117	362.768524
2411.403076	348.759766
2410.686279	331.268494
2409.969238	289.377472
2409.251953	320.704132
2408.534668	345.050018
2407.817383	338.024902
2407.099854	337.970490
2406.382080	337.916107
2405.664307	303.030609
2404.946533	330.842255
2404.228516	306.415070
2403.510498	403.845734
2402.792236	337.644226
2402.073975	334.109558
2401.355469	344.495026
2400.636963	361.835480
2399.918213	347.862701
2399.199463	299.113739
2398.480469	316.453125
2397.761475	337.263824
2397.042480	333.733124
2396.323242	337.155212
2395.603760	347.526703
2394.884277	347.470703
2394.164795	357.837189
2393.445068	385.568237
2392.725098	347.302795
2392.005127	357.664246
2391.285156	312.471802
2390.564941	378.377075
2389.844727	360.962158
2389.124268	371.314667
2388.403809	326.149109
2387.683105	381.602325
2386.962402	346.855286
2386.241455	339.863403
2385.520508	332.873749
2384.799316	370.955688
2384.078125	377.828522
2383.356689	370.836090
2382.635254	332.659119
2381.913818	349.928680
2381.192139	325.623657
2380.470215	367.133423
2379.748291	370.537170
2379.026367	360.090210
2378.304199	398.112427
2377.581787	353.051453
2376.859375	342.612305
2376.136963	352.937561
2375.414307	345.961395
2374.691650	352.823700
2373.968750	373.517731
2373.245850	380.373352
2372.522705	345.738159
2371.799316	356.052826
2371.076172	397.470551
2370.352783	366.305023
2369.629150	366.245911
2368.905518	369.641388
2368.181641	369.581696
2367.457764	369.522034
2366.733643	379.821136
2366.009521	383.212189
2365.285400	355.535858
2364.561035	386.539673
2363.836426	376.125183
2363.111816	331.212738
2362.387207	358.755829
2361.662354	389.739044
2360.937256	406.918427
2360.212158	386.165253
2359.487061	368.866150
2358.761719	386.040497
2358.036377	375.639435
2357.310791	348.013336
2356.584961	361.737579
2355.859375	403.013885
2355.133301	368.508698
2354.407471	423.544342
2353.681152	389.046967
2352.955078	413.080444
2352.228516	378.595856
2351.502197	426.711792
2350.775635	371.592133
2350.048828	350.891388
2349.322021	378.351105
2348.594971	385.167938
2347.867920	398.859436
2347.140869	422.860168
2346.413330	412.479767
2345.686035	371.171783
2344.958496	353.930634
2344.230713	388.230042
2343.502930	391.602356
2342.775146	391.539001
2342.047119	367.437683
2341.319092	415.446442
2340.590820	370.751709
2339.862305	398.150360
2339.133789	463.289673
2338.405273	401.452759
2337.676514	353.358490
2336.947754	367.021729
2336.218750	360.103241
2335.489746	473.201935
2334.760498	452.554657
2334.031250	397.635193
2333.301758	370.152130
2332.572266	376.945770
2331.842529	397.442108
2331.112793	363.121063
2330.382813	376.762726
2329.652832	407.522766
2328.922607	414.304779
2328.192383	390.273529
2327.462158	448.399597
2326.731689	424.370575
2326.000977	393.505737
2325.270264	434.496796
2324.539307	448.109131
2323.808350	379.634033
2323.077393	471.900970
2322.346191	403.444153
2321.614746	420.471100
2320.883301	468.253723
2320.151855	403.248077
2319.420166	430.517151
2318.688232	450.944855
2317.956299	426.961914
2317.224365	402.986725
2316.492188	443.896454
2315.760010	385.785919
2315.027588	440.339081
2314.295166	433.441833
2313.562500	423.134430
2312.829590	429.889465
2312.096924	426.408478
2311.363770	436.571503
2310.630615	467.192139
2309.897461	453.477936
2309.164063	432.950073
2308.430664	487.415894
2307.697021	425.993744
2306.963379	422.517242
2306.229492	395.193939
2305.495605	463.255646
2304.761719	425.717377
2304.027344	435.863861
2303.293213	432.388489
2302.558838	428.914246
2301.824219	462.879944
2301.089600	442.386963
2300.354736	408.290924
2299.619873	483.065826
2298.885010	472.783447
2298.149658	435.298279
2297.414551	462.429321
2296.679199	475.952911
2295.943604	431.687195
2295.208008	441.812775
2294.472412	445.139038
2293.736572	404.297302
2293.000488	472.169739
2292.264404	455.111267
2291.528320	455.037354
2290.791992	488.915955
2290.055420	407.363770
2289.318848	437.844940
2288.582275	471.709747
2287.845459	458.060944
2287.108398	430.846588
2286.371582	474.871826
2285.634277	457.837708
2284.896973	417.073242
2284.159668	437.347198
2283.422119	511.850342
2282.684570	450.761780
2281.946777	433.745361
2281.208740	484.496124
2280.470703	430.216827
2279.732666	450.468781
2278.994385	484.259888
2278.256104	440.164673
2277.517578	484.102417
2276.779053	446.791107
2276.040283	483.945007
2275.301514	514.319397
2274.562500	429.657532
2273.823486	544.595337
2273.084229	453.191986
2272.344971	493.696014
2271.605469	463.187347
2270.865967	459.731628
2270.126221	503.594604
2269.386475	513.650513
2268.646484	462.885986
2267.906494	530.374268
2267.166260	486.378784
2266.426025	482.922546
2265.685547	499.726624
2264.945068	526.653137
2264.204346	509.690247
2263.463623	482.608215
2262.722656	496.027008
2261.981689	499.320038
2261.240723	573.449890
2260.499268	522.766235
2259.758057	465.354828
2259.016602	522.596008
2258.274902	441.606018
2257.533203	468.498016
2256.791260	502.121124
2256.049316	528.994507
2255.307129	515.432922
2254.564941	579.346558
2253.822754	488.323090
2253.080322	525.282715
2252.337646	498.263916
2251.594971	548.674255
2250.852051	521.660461
2250.109131	501.385406
2249.366211	508.032623
2248.623047	561.772339
2247.879639	517.957153
2247.136230	507.784271
2246.392578	531.237366
2245.648926	534.512451
2244.905273	571.398132
2244.161377	541.059448
2243.417236	517.450745
2242.673096	520.725891
2241.928955	547.512817
2241.184570	537.348267
2240.439941	523.829102
2239.695313	493.527679
2238.950439	560.582886
2238.205566	516.860352
2237.460693	496.641937
2236.715576	493.205780
2235.970215	536.735046
2235.224854	533.293457
2234.479492	539.913452
2233.733887	486.178101
2232.988037	509.565613
2232.242188	512.834351
2231.496338	552.966370
2230.750244	562.928467
2230.003906	542.735291
2229.257568	495.751282
2228.511230	485.622986
2227.764648	485.543732
2227.017822	535.684937
2226.270996	562.377380
2225.523926	535.510010
2224.776855	535.422607
2224.029785	548.718567
2223.282471	545.283630
2222.534912	578.642151
2221.787354	528.384521
2221.039795	618.577087
2220.291992	524.868835
2219.543945	534.810852
2218.795898	501.303253
2218.047852	558.026428
2217.299561	561.276184
2216.551025	537.801819
2215.802490	534.374146
2215.053955	547.643982
2214.305176	510.828278
2213.556152	597.538025
2212.807129	560.726135
2212.058105	500.566528
2211.308838	530.513794
2210.559326	550.443176
2209.809814	617.062683
2209.060303	596.952271
2208.310547	553.507690
2207.560547	553.417175
2206.810547	563.326599
2206.060303	569.899963
2205.310059	589.799988
2204.559814	556.386963
2203.809326	516.322632
2203.058594	576.188416
2202.307861	586.084229
2201.557129	585.988342
2200.806152	529.300598
2200.054932	515.900452
2199.303711	575.717285
2198.552246	598.914185
2197.800781	535.607849
2197.049316	598.718201
2196.297607	581.991882
2195.545654	565.271057
2194.793701	611.722656
2194.041504	568.410095
2193.289307	601.551941
2192.537109	564.901062
2191.784668	617.967041
2191.031982	534.819397
2190.279297	581.230225
2189.526367	547.927368
2188.773438	587.680420
2188.020508	587.584167
2187.267090	617.360229
2186.513916	547.568542
2185.760498	617.158020
2185.006836	603.786926
2184.253174	560.567444
2183.499268	590.323425
2182.745361	610.122009
2181.991211	603.391357
2181.237061	623.181274
2180.482666	599.879395
2179.728271	629.604492
2178.973877	622.875000
2178.218994	616.147705
2177.464355	579.613831
2176.709229	635.814941
2175.954346	612.533813
2175.198975	632.296082
2174.443848	661.981628
2173.688232	569.210876
2172.932861	625.367554
2172.177002	661.656128
2171.421387	592.085144
2170.665283	605.216797
2169.909424	608.424255
2169.153076	618.242798
2168.396729	601.613525
2167.640381	598.209839
2166.883789	611.329651
2166.127197	598.013611
2165.370361	624.342712
2164.613525	611.028870
2163.856445	610.928650
2163.099365	627.337280
2162.342041	597.523254
2161.584473	630.432129
2160.826904	613.827942
2160.069336	640.124023
2159.311523	587.233948
2158.553711	580.540466
2157.795654	629.914978
2157.037354	619.919250
2156.279053	649.489563
2155.520752	642.790222
2154.762207	626.205627
2154.003662	685.417786
2153.244873	635.884216
2152.485840	629.191406
2151.726807	675.199280
2150.967773	622.398560
2150.208252	632.174072
2149.448975	582.689697
2148.689453	661.589844
2147.929688	664.772095
2147.169922	635.049194
2146.410156	595.466431
2145.650146	585.500610
2144.889893	605.137146
2144.129639	670.802673
2143.369141	690.418701
2142.608643	601.551697
2141.847900	644.179016
2141.087158	630.928772
2140.326416	650.538391
2139.565186	653.716431
2138.804199	683.169189
2138.042725	643.649780
2137.281494	659.960876
2136.519775	689.398010
2135.758301	620.356201
2134.996338	643.226563
2134.234619	662.808167
2133.472412	649.576416
2132.710449	685.551208
2131.947998	600.168579
2131.185547	675.488525
2130.423096	675.377380
2129.660400	649.042358
2128.897705	658.767944
2128.134766	727.474731
2127.371826	671.656677
2126.608643	661.718689
2125.845215	677.986267
2125.081787	766.293152
2124.318359	667.940491
2123.554688	697.293640
2122.790771	661.174377
2122.026855	674.155945
2121.262939	696.949402
2120.498779	739.364502
2119.734375	667.281067
2118.969971	670.441650
2118.205322	647.441895
2117.440674	676.759644
2116.676025	738.755981
2115.911133	696.146545
2115.145996	748.315979
2114.380859	676.313965
2113.615479	708.869324
2112.850098	698.954163
2112.084473	695.573425
2111.318848	705.254028
2110.552979	714.931396
2109.787109	763.773438
2109.020996	727.749634
2108.254883	743.944275
2107.488525	740.559326
2106.722168	789.364868
2105.955566	697.918335
2105.188965	691.281799
2104.422119	668.346252
2103.655029	730.170166
2102.887939	759.382141
2102.120850	729.929443
2101.353516	733.067200
2100.585938	658.022888
2099.818359	690.484436
2099.050781	719.678772
2098.282959	752.119385
2097.514893	709.675232
2096.746826	748.616455
2095.978760	816.833618
2095.210449	732.100586
2094.441895	699.447388
2093.673340	731.859070
2092.904541	774.016541
2092.135742	757.630676
2091.366699	695.734802
2090.597656	718.373962
2089.828369	763.755737
2089.059082	714.887390
2088.289551	795.993225
2087.520020	730.893494
2086.750244	730.772888
2085.980469	711.168213
2085.210449	759.752869
2084.440186	736.903564
2083.670166	720.553223
2082.899658	775.602661
2082.129150	752.761963
2081.358643	749.393494
2080.587891	781.705688
2079.816895	794.548828
2079.045898	723.082153
2078.274902	726.204712
2077.503662	813.603882
2076.732178	768.096680
2075.960693	732.325623
2075.188965	780.802307
2074.417236	793.630493
2073.645264	744.917786
2072.873291	748.032959
2072.101074	764.097839
2071.328857	831.952087
2070.556396	747.662170
2069.783936	786.371765
2069.011230	828.304077
2068.238525	753.761536
2067.465576	740.698975
2066.692627	688.833191
2065.919434	753.387756
2065.145996	766.194763
2064.372559	788.694519
2063.599121	801.491394
2062.825439	820.746582
2062.051514	785.072571
2061.277588	781.712524
2060.503662	775.123840
2059.729248	765.308228
2058.955078	849.125610
2058.180664	765.055054
2057.406006	768.156006
2056.631348	855.158264
2055.856445	858.243225
2055.081543	803.260132
2054.306396	848.282959
2053.531250	825.568481
2052.755859	731.925903
2051.980225	822.071411
2051.204590	747.799988
2050.428955	815.353821
2049.653076	741.108032
2048.877197	773.202087
2048.101074	882.592896
2047.324707	888.888000
2046.548340	830.779419
2045.771851	808.105103
2044.995239	743.591064
2044.218506	843.240662
2043.441528	778.742188
2042.664551	833.309143
2041.887329	755.966064
2041.110107	810.518677
2040.332642	816.816040
2039.555176	839.187683
2038.777466	810.115906
2037.999634	851.766479
2037.221802	787.351746
2036.443726	845.057922
2035.665527	864.193542
2034.887207	799.808655
2034.108765	796.464539
2033.330200	805.965576
2032.551514	812.252991
2031.772705	892.367188
2030.993774	821.611938
2030.214600	818.266846
2029.435425	843.798035
2028.656128	862.905090
2027.876587	849.932800
2027.097046	878.652710
2026.317261	856.063416
2025.537476	859.127075
2024.757446	855.779419
2023.977295	836.409668
2023.197021	842.679138
2022.416626	845.742920
2021.636230	880.836060
2020.855591	855.069824
2020.074707	842.120056
2019.293823	845.181763
2018.512817	899.457031
2017.731689	902.508179
2016.950439	899.158508
2016.168945	886.211975
2015.387451	914.854004
2014.605713	949.882996
2013.823975	879.375305
2013.041992	885.623718
2012.260010	895.066650
2011.477783	837.387573
2010.695435	840.444153
2009.912964	881.840576
2009.130371	916.834106
2008.347656	916.681824
2007.564819	846.272949
2006.781860	894.026672
2005.998779	852.376709
2005.215576	849.043213
2004.432129	861.667603
2003.648682	871.096924
2002.864990	921.997009
2002.081299	896.325684
2001.297363	829.202637
2000.513428	864.140686
1999.729248	953.266113
1998.944946	927.606506
1998.160522	917.890930
1997.375977	917.738403
1996.591309	895.283386
1995.806519	965.216248
1995.021606	980.980835
1994.236572	898.021423
1993.451416	881.952393
1992.666016	948.657410
1991.880615	900.756409
1991.094971	935.612488
1990.309326	916.365967
1989.523438	922.576111
1988.737549	938.326477
1987.951416	903.187805
1987.165161	918.936096
1986.378784	912.424866
1985.592285	963.131470
1984.805664	934.368103
1984.018921	924.679871
1983.232056	930.880127
1982.444946	895.783325
1981.657837	959.154358
1980.870605	936.766357
1980.083130	968.359985
1979.295654	939.628967
1978.507935	907.733643
1977.720093	926.622681
1976.932129	961.369629
1976.144165	929.486511
1975.355957	948.362427
1974.567627	897.464417
1973.779053	960.729492
1972.990479	973.250244
1972.201782	995.275818
1971.412964	944.403809
1970.623901	941.077881
1969.834839	937.753052
1969.045532	991.445313
1968.256226	940.607666
1967.466675	927.784912
1966.677002	937.128235
1965.887207	959.130249
1965.097290	974.794983
1964.307251	980.961304
1963.517090	1002.944885
1962.726807	955.327698
1961.936401	964.656860
1961.145874	1011.930298
1960.355103	967.497009
1959.564331	1046.366455
1958.773315	970.335144
1957.982178	982.814087
1957.191040	1023.725586
1956.399658	995.122803
1955.608154	960.212341
1954.816528	956.894104
1954.024780	1004.097595
1953.232910	972.359985
1952.440918	984.823730
1951.648682	1013.063110
1950.856445	997.116943
1950.063965	955.936768
1949.271484	993.629822
1948.478760	987.156311
1947.685913	1021.678223
1946.893066	1090.869385
1946.099976	1018.184937
1945.306763	1065.291260
1944.513428	1014.693909
1943.719971	1058.634277
1942.926270	1023.805664
1942.132568	970.090759
1941.338745	1014.016479
1940.544678	1051.630371
1939.750610	1004.233704
1938.956299	1004.065979
1938.161865	985.016235
1937.367310	991.144714
1936.572632	984.687256
1935.777832	1047.431641
1934.982910	996.937988
1934.187866	1069.092407
1933.392700	1059.482178
1932.597290	1068.735229
1931.801880	971.129456
1931.006226	1043.239868
1930.210571	1077.624878
1929.414673	936.089050
1928.618652	1011.309753
1927.822510	1029.981934
1927.026245	1092.603027
1926.229858	1007.663635
1925.433350	1070.267456
1924.636719	1098.331299
1923.839844	1157.761475
1923.042969	1054.045532
1922.245850	1066.415405
1921.448730	1028.605225
1920.651367	1040.974976
1919.853882	1056.475708
1919.056274	1062.567749
1918.258545	1065.523926
1917.460693	1118.613037
1916.662720	1030.706299
1915.864624	1030.533813
1915.066284	1080.470215
1914.267944	1064.633057
1913.469360	1080.108643
1912.670776	1076.797729
1911.871948	1123.562988
1911.072998	1057.662231
1910.273926	1073.128540
1909.474731	1079.205200
1908.675415	1050.876099
1907.875977	1100.733521
1907.076294	1103.675781
1906.276611	1125.373291
1905.476807	1109.557251
1904.676758	1040.621704
1903.876587	1068.567749
1903.076294	1062.140869
1902.275879	1158.789063
1901.475342	1052.416504
1900.674683	1092.831055
1899.873901	1077.038818
1899.072998	1195.468872
1898.271851	1082.919556
1897.470703	1170.106079
1896.669312	1088.796265
1895.867920	1126.044678
1895.066284	985.513855
1894.264526	1125.667358
1893.462646	1084.948975
1892.660645	1172.047363
1891.858521	1128.218140
1891.056152	1099.984131
1890.253784	1121.608765
1889.451172	1158.801514
1888.648560	1155.492676
1887.845703	1183.325073
1887.042725	1189.353638
1886.239624	1145.572632
1885.436401	1142.268066
1884.633057	1163.859985
1883.829590	1169.887695
1883.025879	1235.019897
1882.222168	1172.605591
1881.418213	1113.322021
1880.614258	1175.321533
1879.810059	1159.580444
1879.005737	1165.602417
1878.201294	1177.837891
1877.396729	1165.211304
1876.592041	1137.055420
1875.787231	1093.377930
1874.982178	1236.055176
1874.177124	1158.219116
1873.371826	1158.024658
1872.566406	1148.517944
1871.760986	1160.739502
1870.955322	1176.059937
1870.149536	1172.760010
1869.343506	1222.195313
1868.537476	1122.742188
1867.731323	1162.866333
1866.924927	1168.872070
1866.118530	1215.174805
1865.311890	1165.380005
1864.505127	1174.480957
1863.698242	1208.365845
1862.891235	1155.499268
1862.084106	1130.526489
1861.276855	1186.079224
1860.469482	1188.976318
1859.661865	1278.553833
1858.854126	1185.481445
1858.046387	1197.661133
1857.238403	1219.119385
1856.430298	1225.101929
1855.622070	1206.336914
1854.813721	1237.060669
1854.005249	1215.207886
1853.196533	1221.186768
1852.387817	1236.436890
1851.578857	1202.232788
1850.769775	1158.769897
1849.960693	1229.634277
1849.151367	1235.605591
1848.341919	1331.141113
1847.532227	1204.310181
1846.722534	1197.932739
1845.912720	1194.644287
1845.102661	1280.863037
1844.292603	1222.015503
1843.482300	1200.212280
1842.671875	1249.368042
1841.861328	1246.073486
1841.050659	1128.678589
1840.239868	1288.820435
1839.428833	1248.527344
1838.617798	1288.386719
1837.806519	1229.616699
1836.995117	1220.166016
1836.183716	1232.283447
1835.372070	1296.760010
1834.560303	1250.346558
1833.748291	1237.819458
1832.936279	1249.925659
1832.124146	1338.980469
1831.311768	1323.367065
1830.499390	1292.373413
1829.686768	1319.844727
1828.874023	1242.721436
1828.061157	1227.134399
1827.248169	1220.777710
1826.434937	1269.763916
1825.621704	1269.549927
1824.808228	1281.629883
1823.994751	1262.976318
1823.181030	1308.849731
1822.367188	1317.844971
1821.553223	1339.122559
1820.739136	1246.770874
1819.924927	1209.716553
1819.110474	1289.328247
1818.296021	1322.873291
1817.481323	1325.719116
1816.666626	1285.608032
1815.851685	1266.984741
1815.036621	1300.510742
1814.221436	1355.492554
1813.406006	1297.005981
1812.590576	1299.852905
1811.774902	1290.438232
1810.959229	1305.543823
1810.143311	1216.463623
1809.327271	1249.958252
1808.511108	1286.504639
1807.694824	1264.849487
1806.878418	1353.436157
1806.061768	1322.592285
1805.245117	1337.674316
1804.428223	1303.782837
1803.611206	1361.702881
1802.794067	1309.461792
1801.976807	1266.415161
1801.159424	1312.078247
1800.341919	1281.277344
1799.524170	1323.864990
1798.706421	1332.812256
1797.888428	1350.925537
1797.070313	1338.473877
1796.252075	1353.524780
1795.433716	1322.747681
1794.615234	1276.709351
1793.796509	1371.161987
1792.977783	1407.569946
1792.158813	1343.223755
1791.339844	1400.989990
1790.520630	1318.355957
1789.701294	1388.311646
1788.881714	1385.026367
1788.062134	1339.039307
1787.242432	1299.167114
1786.422485	1381.275269
1785.602417	1332.263306
1784.782349	1322.893677
1783.962036	1417.146606
1783.141479	1362.058960
1782.320923	1303.943359
1781.500244	1434.704468
1780.679321	1349.186035
1779.858398	1321.552490
1779.037231	1339.596313
1778.215942	1509.834961
1777.394531	1372.621826
1776.572998	1381.518677
1775.751221	1378.242554
1774.929443	1411.471069
1774.107422	1441.646729
1773.285278	1338.011108
1772.463013	1422.916504
1771.640625	1364.917603
1770.818115	1468.026001
1769.995483	1352.300293
1769.172607	1352.071411
1768.349731	1400.448242
1767.526611	1397.173828
1766.703369	1278.501465
1765.880005	1369.374268
1765.056519	1372.178223
1764.232910	1356.769531
1763.409058	1411.165649
1762.585083	1441.269287
1761.761108	1425.856567
1760.936890	1419.548706
1760.112549	1440.537231
1759.288086	1403.906982
1758.463379	1430.954346
1757.638672	1473.148315
1756.813721	1430.469604
1755.988647	1466.589111
1755.163574	1532.992432
1754.338257	1505.470703
1753.512695	1438.586426
1752.687134	1423.202271
1751.861328	1410.850708
1751.035522	1471.152954
1750.209473	1449.717773
1749.383301	1440.394043
1748.557007	1549.068726
1747.730591	1382.430542
1746.903931	1478.980225
1746.077271	1539.209229
1745.250366	1505.690063
1744.423340	1405.677002
1743.596313	1378.236694
1742.768921	1444.485596
1741.941528	1474.454834
1741.114014	1395.661133
1740.286255	1489.056885
1739.458374	1443.505981
1738.630493	1443.261108
1737.802368	1530.563354
1736.973999	1503.138550
1736.145630	1539.097656
1735.317139	1578.061768
1734.488403	1451.087769
1733.659546	1450.841553
1732.830566	1513.927002
1732.001465	1522.715820
1731.172241	1498.339355
1730.342896	1473.970947
1729.513306	1434.542114
1728.683594	1539.761719
1727.853882	1485.271362
1727.023926	1545.263428
1726.193726	1490.790527
1725.363525	1421.280029
1724.533203	1550.497803
1723.702637	1459.929565
1722.871948	1498.807129
1722.041138	1591.835938
1721.210205	1447.151367
1720.379150	1528.124756
1719.547974	1500.796631
1718.716553	1512.570068
1717.885010	1518.326294
1717.053467	1542.116943
1716.221558	1544.860474
1715.389648	1529.572754
1714.557617	1586.399170
1713.725342	1565.101318
1712.893066	1582.856445
1712.060547	1510.515137
1711.227905	1657.380981
1710.395142	1500.995728
1709.562256	1656.817505
1708.729126	1521.492188
1707.895874	1545.237183
1707.062622	1586.973755
1706.229126	1544.711670
1705.395508	1502.463989
1704.561646	1589.162720
1703.727783	1513.944580
1702.893677	1567.640381
1702.059570	1621.317749
1701.225220	1600.067261
1700.390747	1542.873535
1699.556030	1557.587769
1698.721313	1584.276489
1697.886353	1625.927734
1697.051392	1595.712646
1696.216187	1565.507935
1695.380859	1661.011475
1694.545410	1555.998169
1693.709717	1546.757935
1692.874023	1603.329102
1692.038086	1612.028442
1691.202026	1620.724854
1690.365845	1542.715210
1689.529541	1623.162231
1688.692993	1524.257446
1687.856445	1613.644775
1687.019653	1658.185913
1686.182739	1705.698853
1685.345703	1636.714111
1684.508545	1537.890869
1683.671143	1615.256836
1682.833740	1671.700073
1681.996094	1722.154663
1681.158325	1590.558105
1680.320435	1599.238037
1679.482422	1676.527344
1678.644287	1664.311035
1677.805908	1643.152588
1676.967407	1723.376221
1676.128784	1556.140259
1675.290039	1576.739258
1674.451172	1600.311279
1673.612183	1686.446411
1672.772949	1632.535522
1671.933594	1614.385742
1671.094116	1590.286011
1670.254517	1637.655762
1669.414795	1571.881348
1668.574829	1613.284912
1667.734863	1675.506470
1666.894653	1704.975830
1666.054321	1683.859985
1665.213867	1734.139404
1664.373169	1650.571411
1663.532471	1718.680298
1662.691528	1664.873169
1661.850464	1652.699219
1661.009277	1670.249023
1660.167969	1598.648804
1659.326538	1732.069214
1658.484863	1743.655396
1657.643066	1627.529907
1656.801147	1627.252075
1655.959106	1606.191772
1655.116943	1623.728149
1654.274658	1706.552612
1653.432129	1712.196045
1652.589478	1700.036011
1651.746704	1622.619385
1650.903809	1649.035278
1650.060791	1699.165283
1649.217529	1722.593994
1648.374146	1562.223755
1647.530640	1677.547607
1646.687012	1724.674805
1645.843262	1756.971558
1644.999390	1706.311401
1644.155273	1753.409302
1643.311035	1711.651123
1642.466675	1631.416260
1641.622192	1716.986694
1640.777588	1725.572754
1639.932739	1692.725464
1639.087769	1665.806885
1638.242798	1766.104248
1637.397461	1724.393188
1636.552124	1732.970215
1635.706665	1779.982422
1634.860962	1741.246582
1634.015137	1749.816040
1633.169189	1752.472168
1632.323120	1820.131836
1631.476929	1864.134399
1630.630493	1686.590576
1629.783936	1789.665649
1628.937256	1815.934204
1628.090454	1774.292236
1627.243530	1759.229980
1626.396484	1832.709595
1625.549194	1755.677368
1624.701782	1814.381104
1623.854248	1790.473022
1623.006592	1704.639648
1622.158691	1831.141968
1621.310791	1771.864624
1620.462646	1824.619751
1619.614380	1856.726440
1618.765991	1770.954834
1617.917358	1841.359863
1617.068726	1841.044556
1616.219849	1775.935669
1615.370850	1834.524780
1614.521729	1834.210571
1613.672363	1710.262939
1612.822998	1830.639160
1611.973389	1806.784424
1611.123657	1838.838501
1610.273804	1935.597534
1609.423828	1858.796509
1608.573608	1802.606079
1607.723389	1852.279297
1606.872925	1828.444946
1606.022339	1804.618652
1605.171509	1836.634155
1604.320679	1842.195557
1603.469604	1836.004639
1602.618408	1856.249634
1601.767090	1794.262817
1600.915649	1876.165894
1600.064087	1887.586670
1599.212280	1890.198120
1598.360352	1848.789795
1597.508301	1889.549927
1596.656128	1810.019165
1595.803833	1856.637939
1594.951294	1914.971069
1594.098633	1885.321777
1593.245850	1952.424561
1592.392944	1872.950806
1591.539795	1857.976685
1590.686646	1910.398926
1589.833252	1866.127808
1588.979736	1883.381958
1588.126099	1888.915771
1587.272217	1844.670898
1586.418335	1820.933960
1585.564209	1940.630249
1584.709961	1893.472412
1583.855591	1875.591187
1583.000977	1878.194702
1582.146362	1869.097168
1581.291504	1892.172485
1580.436523	1903.543701
1579.581421	1909.063965
1578.726074	1894.120972
1577.870605	1861.647827
1577.015137	1849.640015
1576.159424	1878.537476
1575.303467	1907.425049
1574.447510	1927.541016
1573.591309	1979.770142
1572.734985	1848.051880
1571.878540	1906.114502
1571.021973	1934.972168
1570.165161	1882.115479
1569.308350	1972.234741
1568.451294	1898.970581
1567.594116	1965.723877
1566.736694	1939.141968
1565.879272	1959.217041
1565.021606	1961.795288
1564.163818	1958.543457
1563.305908	1999.002686
1562.447876	1957.870117
1561.589600	1910.925415
1560.731201	1971.759277
1559.872681	1927.740234
1559.014038	2003.107544
1558.155273	1941.632080
1557.296265	1982.045044
1556.437134	1920.594238
1555.577881	1981.363159
1554.718506	1983.931152
1553.859009	1948.687988
1552.999268	1994.880493
1552.139404	1974.184814
1551.279419	1950.589111
1550.419312	1932.814453
1549.558960	1958.635742
1548.698608	2004.786377
1547.838013	1926.006592
1546.977173	1992.478271
1546.116333	2029.887085
1545.255249	1942.432983
1544.394165	1956.613403
1543.532837	2063.668457
1542.671265	2025.587280
1541.809692	2051.351807
1540.947876	2094.513428
1540.085938	2047.744751
1539.223877	2087.991943
1538.361694	2029.642456
1537.499268	2032.191772
1536.636841	2040.537109
1535.774170	2164.799072
1534.911377	2080.398926
1534.048340	2135.083252
1533.185303	2024.648560
1532.322021	2122.763428
1531.458618	2035.532715
1530.594971	2150.981689
1529.731323	2202.711670
1528.867432	2167.604004
1528.003418	2126.721436
1527.139282	2192.893799
1526.275024	2334.248047
1525.410522	2383.009766
1524.545898	2278.504639
1523.681152	2324.367676
1522.816284	2430.915527
1521.951172	2346.686035
1521.086060	2401.181885
1520.220703	2331.431396
1519.355225	2281.924561
1518.489502	2333.515137
1517.623779	2330.224854
1516.757813	2214.342041
1515.891724	2260.144287
1515.025513	2219.350098
1514.159058	2213.196045
1513.292480	2077.217773
1512.425781	2128.780762
1511.558960	2064.964600
1510.692017	2102.093994
1509.824829	2139.210449
1508.957520	2127.311035
1508.090088	2060.656982
1507.222534	2080.471924
1506.354736	2203.997314
1505.486938	2099.916992
1504.618896	2185.955811
1503.750610	2165.421387
1502.882324	2127.619629
1502.013794	2032.259888
1501.145142	2109.616211
1500.276367	2068.966064
1499.407471	2218.215820
1498.538330	2056.744873
1497.669067	2185.812500
1496.799683	2159.554443
1495.930176	2121.805420
1495.060547	2150.184326
1494.190674	2103.827393
1493.320679	2135.073242
1492.450562	2180.673584
1491.580200	2154.443115
1490.709717	2142.582275
1489.839233	2081.908203
1488.968384	2170.552490
1488.097534	2175.918213
1487.226440	2181.282227
1486.355347	2137.860596
1485.483887	2166.182129
1484.612427	2194.493652
1483.740845	2105.202148
1482.869019	2228.145752
1481.997070	2147.480713
1481.124878	2095.509766
1480.252686	2143.871338
1479.380249	2249.529297
1478.507690	2145.994629
1477.635010	2197.187012
1476.762207	2211.127441
1475.889160	2270.881592
1475.015991	2176.003906
1474.142700	2167.039307
1473.269165	2169.526367
1472.395630	2189.182373
1471.521851	2188.803223
1470.647949	2239.916748
1469.773804	2282.431641
1468.899658	2156.209717
1468.025269	2235.893799
1467.150757	2204.060791
1466.276001	2246.552246
1465.401245	2349.040771
1464.526245	2337.204834
1463.651123	2262.525146
1462.775879	2253.564453
1461.900391	2284.586914
1461.024780	2292.756836
1460.149048	2292.359375
1459.273193	2286.253662
1458.397217	2257.319824
1457.520996	2316.846924
1456.644653	2245.126221
1455.768188	2261.850586
1454.891479	2304.235107
1454.014648	2315.240723
1453.137695	2269.226563
1452.260620	2294.485840
1451.383423	2353.933594
1450.505981	2333.580322
1449.628418	2395.849365
1448.750732	2361.253906
1447.872803	2392.170410
1446.994873	2329.114258
1446.116699	2291.701172
1445.238403	2333.998779
1444.359863	2296.597656
1443.481201	2350.260986
1442.602417	2347.008057
1441.723511	2386.421875
1440.844482	2263.721191
1439.965210	2280.388672
1439.085815	2339.693359
1438.206299	2282.439453
1437.326538	2304.778320
1436.446777	2298.695313
1435.566772	2267.046143
1434.686646	2235.407959
1433.806274	2345.776855
1432.925781	2163.645752
1432.045166	2276.827637
1431.164429	2313.331787
1430.283569	2267.522705
1429.402466	2332.390381
1428.521240	2269.572021
1427.639893	2280.523682
1426.758301	2314.159180
1425.876709	2254.211670
1424.994873	2330.364990
1424.112793	2312.952881
1423.230713	2272.874756
1422.348389	2365.985840
1421.465942	2272.084717
1420.583374	2268.857178
1419.700562	2293.951172
1418.817627	2270.899902
1417.934570	2276.167236
1417.051392	2304.077148
1416.167969	2275.375732
1415.284546	2413.629395
1414.400757	2300.046143
1413.516968	2364.703857
1412.633057	2344.495605
1411.748901	2358.225830
1410.864624	2306.927490
1409.980103	2419.591309
1409.095459	2348.516846
1408.210815	2387.667236
1407.325806	2350.524902
1406.440796	2347.291260
1405.555542	2327.113525
1404.670166	2329.532227
1403.784668	2444.877197
1402.899048	2345.657471
1402.013184	2359.360107
1401.127197	2327.910645
1400.241089	2426.247803
1399.354736	2248.119629
1398.468262	2436.684082
1397.581665	2393.963379
1396.694946	2370.992432
1395.807983	2452.323730
1394.920898	2412.440674
1394.033691	2386.660645
1393.146362	2490.484619
1392.258789	2360.477783
1391.371094	2331.903564
1390.483276	2446.945801
1389.595337	2373.320801
1388.707153	2395.426025
1387.818848	2386.565430
1386.930420	2524.028564
1386.041748	2439.187744
1385.152954	2447.201172
1384.264038	2421.463135
1383.375000	2350.743652
1382.485718	2485.281250
1381.596313	2470.793213
1380.706787	2490.035400
1379.817139	2380.013672
1378.927246	2475.119873
1378.037231	2373.565918
1377.147095	2446.171875
1376.256714	2485.056885
1375.366333	2526.735596
1374.475586	2453.312988
1373.584839	2455.691406
1372.693970	2430.009033
1371.802856	2485.695557
1370.911499	2499.286865
1370.020142	2473.609863
1369.128540	2403.076660
1368.236816	2422.282227
1367.344971	2421.859375
1366.453003	2424.239258
1365.560791	2535.900146
1364.668457	2541.060547
1363.775879	2442.577637
1362.883301	2425.347412
1361.990479	2576.131592
1361.097534	2466.495361
1360.204346	2502.453613
1359.311035	2597.171631
1358.417603	2599.516113
1357.524048	2576.680664
1356.630249	2450.355957
1355.736450	2424.757324
1354.842285	2544.571777
1353.948120	2535.739990
1353.053711	2448.644043
1352.159180	2515.290527
1351.264526	2570.736572
1350.369751	2486.473633
1349.474731	2575.424561
1348.579590	2588.938477
1347.684204	2580.108887
1346.788818	2579.657959
1345.893188	2657.364746
1344.997314	2522.938721
1344.101440	2542.030273
1343.205322	2681.080078
1342.309082	2683.400391
1341.412720	2741.498291
1340.516113	2785.633545
1339.619385	2718.235840
1338.722534	2809.746094
1337.825439	2678.267578
1336.928223	2649.934326
1336.030884	2855.633545
1335.133423	2752.070313
1334.235718	2754.373779
1333.337891	2767.814453
1332.439941	2753.409912
1331.541870	2761.278564
1330.643555	2699.568115
1329.745117	2732.486328
1328.846436	2770.957275
1327.947754	2561.852295
1327.048828	2736.613770
1326.149780	2647.154541
1325.250488	2685.613037
1324.351074	2632.329346
1323.451538	2698.568115
1322.551880	2667.530029
1321.651978	2611.499023
1320.751953	2688.817383
1319.851807	2682.791992
1318.951416	2624.010498
1318.050903	2601.340820
1317.150269	2587.006348
1316.249512	2680.912109
1315.348511	2627.721436
1314.447388	2771.524414
1313.546021	2734.979248
1312.644653	2723.406494
1311.743042	2700.746338
1310.841309	2644.825928
1309.939331	2641.590332
1309.037231	2618.956299
1308.135010	2709.936523
1307.232666	2717.772705
1306.330078	2744.995361
1305.427368	2672.508545
1304.524536	2818.794434
1303.621460	2757.393555
1302.718262	2704.318359
1301.814941	2759.193848
1300.911499	2614.825195
1300.007813	2664.164063
1299.104004	2705.187012
1298.199951	2765.554688
1297.295898	2671.056885
1296.391602	2659.530029
1295.487061	2802.796387
1294.582520	2655.832764
1293.677734	2685.760986
1292.772827	2740.542480
1291.867676	2795.304443
1290.962402	2681.585205
1290.057007	2659.024902
1289.151489	2691.686523
1288.245728	2793.341797
1287.339844	2618.988037
1286.433838	2582.657715
1285.527588	2684.278564
1284.621216	2689.323486
1283.714722	2716.429199
1282.808105	2699.408203
1281.901245	2660.338379
1280.994263	2635.063721
1280.087036	2653.891846
1279.179810	2587.296387
1278.272217	2735.605713
1277.364624	2580.878418
1276.456787	2709.859131
1275.548828	2665.327637
1274.640747	2659.353271
1273.732544	2774.489502
1272.824097	2774.001709
1271.915405	2751.501953
1271.006714	2742.765137
1270.097778	2794.542969
1269.188721	2728.050293
1268.279541	2683.577637
1267.370117	2647.367432
1266.460571	2726.611084
1265.550781	2756.360840
1264.640991	2623.989502
1263.730957	2623.528076
1262.820679	2645.039795
1261.910400	2790.122070
1260.999878	2688.040039
1260.089233	2824.827881
1259.178345	2637.688965
1258.267334	2752.483154
1257.356201	2817.849121
1256.444824	2732.311279
1255.533447	2814.114258
1254.621704	2714.895508
1253.709961	2739.093994
1252.797974	2733.128906
1251.885864	2795.687744
1250.973633	2776.012695
1250.061157	2849.501221
1249.148560	2783.253174
1248.235840	2848.497559
1247.322876	2694.642334
1246.409790	2735.237061
1245.496582	2756.655273
1244.583130	2690.481201
1243.669556	2802.204834
1242.755859	2741.518066
1241.841919	2697.265869
1240.927856	2746.022217
1240.013672	2663.500244
1239.099365	2810.673096
1238.184814	2747.303955
1237.270142	2724.954346
1236.355225	2787.325439
1235.440186	2784.101807
1234.525024	2693.464600
1233.609741	2851.400879
1232.694214	2850.897949
1231.778564	2784.868896
1230.862671	2806.216064
1229.946777	2786.615967
1229.030640	2843.429688
1228.114258	2832.014648
1227.197876	2896.983643
1226.281128	2844.652344
1225.364380	2928.684082
1224.447388	2800.025879
1223.530273	2840.420898
1222.613037	2905.330322
1221.695557	2820.343506
1220.777954	2931.549805
1219.860229	2936.480225
1218.942261	2906.003174
1218.024170	2840.136963
1217.105957	2839.635498
1216.187500	2871.799316
1215.268921	2933.888916
1214.350220	2971.466553
1213.431274	2957.338623
1212.512207	2845.289795
1211.593018	2847.506836
1210.673706	2955.771973
1209.754150	2911.750244
1208.834351	2905.799316
1207.914551	2916.156982
1206.994507	3018.898438
1206.074219	2934.144043
1205.153931	2846.703369
1204.233398	2973.844727
1203.312744	2908.150635
1202.391846	2885.917480
1201.470825	2955.981689
1200.549683	2928.320068
1199.628296	2805.697510
1198.706787	2962.553223
1197.785156	2902.354736
1196.863281	2912.689697
1195.941284	2950.135986
1195.019165	2949.614258
1194.096802	2892.170654
1193.174438	3062.394287
1192.251709	2869.470703
1191.328979	3012.546875
1190.406006	2898.250732
1189.482788	3022.313477
1188.559570	2951.378906
1187.636108	2791.131348
1186.712402	2955.748047
1185.788696	2968.756104
1184.864746	2870.822998
1183.940552	2986.642334
1183.016357	2937.427002
1182.091919	3004.515381
1181.167236	3031.022217
1180.242554	2981.824707
1179.317505	2951.564941
1178.392456	3013.197998
1177.467163	2961.327393
1176.541748	2944.594238
1175.616211	2979.185547
1174.690430	2921.947266
1173.764526	3021.330566
1172.838501	2920.912109
1171.912231	3020.260254
1170.985840	3041.313965
1170.059204	3005.699463
1169.132446	2970.097656
1168.205566	2945.296875
1167.278564	3055.338867
1166.351318	3106.025146
1165.423828	3024.602783
1164.496338	2986.333252
1163.568604	2985.803955
1162.640747	3095.740479
1161.712646	3108.660645
1160.784424	3081.176270
1159.856079	3080.629883
1158.927490	3058.544434
1157.998779	3039.158691
1157.069946	3052.076904
1156.140869	3038.080811
1155.211670	3010.637207
1154.282349	3198.402588
1153.352783	2993.431885
1152.423096	3135.419922
1151.493164	3067.649414
1150.563232	3077.857422
1149.632935	3133.751221
1148.702637	3100.949463
1147.772095	3060.099121
1146.841431	3013.891113
1145.910522	3155.698242
1144.979492	3074.581299
1144.048340	3165.316895
1143.116943	3151.333496
1142.185425	3231.287842
1141.253784	3230.713867
1140.321899	3157.703613
1139.389893	3014.977539
1138.457764	3207.537842
1137.525391	3105.074463
1136.592896	3225.165039
1135.660278	3039.640381
1134.727417	3060.540283
1133.794434	3068.034912
1132.861206	3204.120361
1131.927856	3128.551514
1130.994385	3211.016113
1130.060669	3122.084473
1129.126831	3035.861572
1128.192871	3161.124512
1127.258667	3147.181641
1126.324341	3189.433350
1125.389893	3084.532715
1124.455200	3172.250977
1123.520386	3054.018799
1122.585327	3136.363525
1121.650146	3002.139648
1120.714844	3127.229492
1119.779297	3156.069336
1118.843628	3078.022949
1117.907837	3088.161133
1116.971802	2962.077393
1116.035645	3175.187988
1115.099365	3163.943115
1114.162842	3174.058105
1113.226196	3186.838623
1112.289307	3167.591553
1111.352417	3244.402588
1110.415161	3177.134521
1109.477905	3291.256348
1108.540405	3229.336914
1107.602661	3284.752197
1106.664917	3241.515869
1105.726807	3174.307617
1104.788696	3187.066162
1103.850342	3127.884033
1102.911865	3199.250244
1101.973145	3291.897705
1101.034302	3179.470703
1100.095337	3210.853027
1099.156128	3117.113770
1098.216797	3143.172852
1097.277344	3171.883789
1096.337646	3280.399170
1095.397827	3194.693848
1094.457764	3210.081787
1093.517700	3164.305420
1092.577271	3192.986084
1091.636841	3211.023926
1090.696167	3199.820801
1089.755249	3164.707031
1088.814209	3238.530762
1087.873047	3256.547119
1086.931763	3287.835449
1085.990234	3255.385742
1085.048584	3204.363770
1084.106689	3219.718262
1083.164673	3184.643799
1082.222412	3186.729248
1081.280151	3225.954590
1080.337524	3397.788330
1079.394897	3291.103027
1078.452026	3285.212891
1077.509033	3279.324707
1076.565796	3209.824951
1075.622437	3360.307129
1074.678955	3251.073242
1073.735229	3149.825684
1072.791382	3257.858887
1071.847290	3270.518311
1070.903076	3171.968750
1069.958740	3197.875000
1069.014160	3252.886230
1068.069458	3276.122070
1067.124512	3275.537109
1066.179565	3285.533691
1065.234253	3091.870361
1064.288940	3165.361572
1063.343384	3281.129639
1062.397583	3359.847412
1061.451660	3229.740479
1060.505615	3369.217285
1059.559448	3318.416260
1058.613037	3304.615479
1057.666382	3288.178223
1056.719727	3303.434570
1055.772827	3310.764648
1054.825684	3376.165039
1053.878418	3267.353516
1052.931030	3340.654541
1051.983398	3226.611328
1051.035645	3315.719971
1050.087769	3291.391113
1049.139648	3441.103516
1048.191406	3340.305420
1047.242920	3323.892578
1046.294312	3407.632324
1045.345581	3333.243652
1044.396606	3385.337402
1043.447510	3310.979004
1042.498291	3376.225586
1041.548828	3372.988525
1040.599121	3251.284424
1039.649414	3450.746094
1038.699341	3342.229736
1037.749268	3289.007568
1036.798950	3427.847900
1035.848511	3479.839600
1034.897827	3466.067627
1033.947021	3436.524658
1032.996094	3317.611084
1032.044922	3419.523926
1031.093506	3463.586182
1030.142090	3473.475830
1029.190430	3341.505127
1028.238525	3422.328369
1027.286499	3342.934570
1026.334351	3444.732422
1025.381958	3425.739746
1024.429443	3461.870850
1023.476807	3385.150146
1022.523926	3442.264648
1021.570923	3449.517578
1020.617737	3399.067383
1019.664368	3532.193848
1018.710815	3389.983643
1017.757080	3394.618896
1016.803223	3333.730713
1015.849121	3477.254395
1014.894897	3439.952148
1013.940491	3468.149414
1012.985962	3457.051514
1012.031189	3503.564941
1011.076294	3424.395508
1010.121216	3470.897461
1009.165955	3441.486816
1008.210510	3511.518799
1007.254944	3442.868652
1006.299133	3507.643311
1005.343201	3564.549072
1004.387085	3542.991455
1003.430786	3492.684326
1002.474365	3447.622803
1001.517700	3494.044189
1000.560913	3668.479980
999.603943	3479.728271
998.646790	3580.969238
997.689514	3567.269043
996.731995	3480.465576
995.774353	3521.609375
994.816528	3612.329346
993.858521	3580.365479
992.900330	3527.540039
991.942017	3513.863281
990.983459	3440.202881
990.024780	3442.192871
989.065918	3519.792236
988.106873	3579.115967
987.147705	3547.197021
986.188293	3418.873291
985.228760	3501.631104
984.269043	3480.162598
983.309143	3591.528320
982.349060	3476.308105
981.388794	3569.409668
980.428406	3547.943604
979.467834	3693.050049
978.507019	3609.118896
977.546082	3592.860107
976.585022	3594.815430
975.623718	3505.745117
974.662292	3661.128906
973.700623	3624.073730
972.738831	3693.603027
971.776855	3677.345703
970.814758	3619.520264
969.852417	3551.323975
968.889954	3690.946289
967.927246	3685.088379
966.964417	3577.968994
966.001404	3613.669678
965.038208	3716.841797
964.074890	3622.749512
963.111328	3663.611572
962.147644	3686.299561
961.183777	3657.105469
960.219727	3640.887939
959.255493	3640.232422
958.291077	3706.976563
957.326538	3589.677002
956.361755	3695.276367
955.396851	3679.065674
954.431763	3572.195557
953.466492	3610.401611
952.501038	3754.762939
951.535461	3707.484131
950.569641	3629.159668
949.603699	3757.910400
948.637573	3746.882813
947.671265	3580.629395
946.704773	3706.732178
945.738098	3612.960205
944.771240	3695.053467
943.804260	3578.049072
942.837097	3680.797363
941.869751	3693.055664
940.902222	3702.725586
939.934509	3800.228516
938.966614	3753.049805
937.998535	3711.053223
937.030334	3831.739746
936.061951	3810.395996
935.093323	3644.518311
934.124573	3729.021973
933.155640	3777.372559
932.186584	3606.430664
931.217285	3794.064697
930.247864	3695.386719
929.278198	3686.985107
928.308411	3797.166992
927.338440	3747.511719
926.368286	3754.566162
925.397949	3759.041504
924.427429	3778.970703
923.456787	3819.497070
922.485901	3751.856201
921.514893	3769.200928
920.543701	3825.151123
919.572327	3785.855469
918.600769	3751.720459
917.629028	3833.370361
916.657104	3848.111572
915.685059	3834.557617
914.712769	3818.437012
913.740356	3815.176270
912.767761	3817.057617
911.794983	3847.207275
910.822021	3864.498535
909.848877	3722.504395
908.875549	3896.493408
907.902039	3805.906006
906.928406	3802.650635
905.954590	3861.008057
904.980530	3950.144531
904.006348	3841.648682
903.031982	3848.651611
902.057434	3850.520996
901.082703	3860.084229
900.107849	3808.098633
899.132751	3933.041748
898.157532	3781.086914
897.182068	4057.205566
896.206482	3889.907715
895.230713	4007.058838
894.254761	3868.007813
893.278625	3857.063477
892.302307	3963.913818
891.325806	3904.311768
890.349182	3837.052002
889.372314	3869.628418
888.395325	3917.545410
887.418091	3819.619141
886.440735	3911.011719
885.463196	3943.550293
884.485474	3845.671875
883.507568	3890.992676
882.529480	3977.193359
881.551270	4035.251465
880.572815	4003.859375
879.594238	3926.494873
878.615417	3928.337891
877.636475	3994.023193
876.657349	3952.447510
875.677979	3877.700439
874.698486	3922.939941
873.718811	4057.478516
872.739014	4000.612305
871.758972	3994.785400
870.778748	4042.520752
869.798401	4016.287842
868.817810	3951.820801
867.837097	3991.890137
866.856140	4118.598633
865.875061	3954.768555
864.893799	3951.503906
863.912354	4045.035889
862.930725	4097.785156
861.948914	4089.402832
860.966919	3989.372559
859.984741	4128.645996
859.002441	4089.723145
858.019897	4109.337402
857.037231	4050.079346
856.054321	4074.780273
855.071289	4043.523682
854.088074	4131.782227
853.104614	3955.622559
852.121033	4122.657715
851.137268	4045.672119
850.153320	4128.783691
849.169189	4059.445557
848.184937	4112.045898
847.200439	4116.378418
846.215759	4207.033203
845.230896	4178.345703
844.245911	4106.522461
843.260681	4235.192383
842.275330	4186.218262
841.289795	3974.916992
840.304016	4151.727539
839.318115	4206.759277
838.332031	4180.642578
837.345764	4048.073486
836.359314	4120.833984
835.372681	4254.380859
834.385864	4124.403320
833.398865	4197.109863
832.411743	4272.321777
831.424377	4165.199707
830.436829	4204.947754
829.449158	4133.312500
828.461243	4147.744629
827.473206	4096.386719
826.484924	4088.052979
825.496521	4196.068359
824.507935	4210.478516
823.519104	4270.393066
822.530151	4226.642090
821.541016	4162.687500
820.551697	4164.457520
819.562195	4224.336426
818.572510	4173.046387
817.582642	4278.362305
816.592590	4103.349609
815.602356	4211.164063
814.611938	4364.375000
813.621399	4373.675781
812.630615	4138.212891
811.639648	4215.667969
810.648560	4242.646484
809.657227	4312.488281
808.665771	4341.960449
807.674072	4172.262695
806.682251	4209.311035
805.690186	4175.783691
804.697998	4197.699707
803.705566	4181.820313
802.713013	4228.914063
801.720276	4293.618164
800.727356	4214.784668
799.734253	4284.501953
798.740906	4354.193848
797.747437	4320.687012
796.753784	4365.187012
795.759949	4200.884277
794.765930	4240.359375
793.771729	4302.451172
792.777344	4276.525391
791.782776	4210.390625
790.788025	4154.332520
789.793091	4223.932129
788.798035	4333.703125
787.802734	4330.400879
786.807251	4377.327148
785.811584	4391.594727
784.815796	4451.044434
783.819763	4284.572754
782.823547	4364.096680
781.827148	4328.173340
780.830627	4272.193848
779.833862	4464.543457
778.836975	4345.866211
777.839844	4450.377930
776.842529	4356.814453
775.845093	4345.994141
774.847412	4430.400879
773.849609	4479.700684
772.851563	4368.664551
771.853394	4485.578613
770.854980	4392.109863
769.856445	4408.833008
768.857666	4325.424316
767.858765	4442.260742
766.859680	4373.889648
765.860352	4263.012695
764.860901	4409.811523
763.861206	4439.016113
762.861389	4370.694824
761.861389	4442.394531
760.861145	4369.097656
759.860779	4405.784668
758.860168	4444.957031
757.859436	4454.137207
756.858521	4423.351074
755.857361	4440.022949
754.856079	4474.166016
753.854614	4400.955566
752.852905	4462.546875
751.851074	4486.685059
750.848999	4388.562500
749.846802	4425.177246
748.844421	4576.502441
747.841797	4647.978516
746.839050	4724.414063
745.836121	4810.792480
744.832947	4545.741211
743.829651	4497.566895
742.826111	4554.042969
741.822449	4578.118164
740.818604	4492.608398
739.814514	4481.826660
738.810303	4535.773926
737.805847	4485.164063
736.801270	4489.320313
735.796448	4535.771973
734.791504	4539.916992
733.786316	4563.957520
732.781006	4453.706543
731.775452	4569.745117
730.769775	4521.678223
729.763855	4431.377930
728.757751	4537.416504
727.751526	4471.990234
726.745056	4478.623047
725.738403	4636.748535
724.731628	4501.812988
723.724609	4508.436035
722.717407	4539.878418
721.710083	4548.973145
720.702515	4429.039551
719.694763	4420.785156
718.686829	4571.276367
717.678711	4538.199707
716.670410	4539.847168
715.661987	4598.510742
714.653320	4543.140137
713.644470	4589.390625
712.635437	4595.981934
711.626221	4669.454102
710.616821	4542.285156
709.607178	4590.977539
708.597412	4713.925293
707.587463	4554.638672
706.577332	4573.602051
705.567017	4637.098633
704.556458	4705.519531
703.545776	4605.714844
702.534912	4743.361816
701.523804	4623.805664
700.512573	4553.736328
699.501099	4627.052246
698.489502	4814.018555
697.477661	4632.766113
696.465698	4683.792969
695.453491	4680.463379
694.441101	4662.317871
693.428589	4797.256348
692.415833	4714.913574
691.402893	4627.664551
690.389771	4604.605957
689.376465	4709.849121
688.362976	4669.516113
687.349304	4629.198242
686.335449	4761.501953
685.321411	4674.339355
684.307190	4661.155762
683.292725	4689.873047
682.278137	4898.451660
681.263367	4668.440918
680.248352	4943.450195
679.233215	5060.749023
678.217834	4978.566406
677.202332	4866.872559
676.186584	4772.448242
675.170654	4862.622070
674.154541	4849.425781
673.138306	4649.279297
672.121826	4675.478516
671.105164	4760.685059
670.088318	4681.134766
669.071289	4584.406738
668.054016	4711.362305
667.036621	4739.982422
666.019043	4628.555664
665.001282	4743.150879
663.983276	4727.542969
662.965149	4741.405273
661.946777	4713.527832
660.928223	4653.751953
659.909546	4689.706543
658.890625	4786.987305
657.871521	4668.354492
656.852234	4731.265625
655.832764	4835.841309
654.813110	4910.956543
653.793274	4686.979492
652.773254	4811.111816
651.752991	4829.829102
650.732605	4801.989746
649.711975	4776.609863
648.691223	4599.395020
647.670227	4691.596191
646.649048	4793.555664
645.627747	4802.463379
644.606201	4681.661133
643.584473	4717.500977
642.562561	4704.399414
641.540466	4962.801270
640.518127	5005.905273
639.495667	4716.468750
638.473022	4779.158203
637.450134	4856.489258
636.427063	4823.826172
635.403870	4800.947266
634.380432	4809.833008
633.356812	4865.119629
632.333008	4861.780273
631.309021	4912.153320
630.284851	4872.191895
629.260498	4805.398438
628.235901	4858.193848
627.211182	4752.393066
626.186218	4866.157715
625.161133	4796.975098
624.135803	4822.911133
623.110291	4919.533691
622.084595	4955.186523
621.058716	4985.951660
620.032654	4838.842773
619.006409	4911.030273
617.979919	4961.270508
616.953308	4899.476074
615.926453	4939.960938
614.899414	4844.113770
613.872253	4782.374512
612.844849	4932.357422
611.817261	4909.550293
610.789490	4821.076172
609.761475	4861.528809
608.733337	4850.904785
607.705017	4925.371582
606.676453	4965.782227
605.647705	4838.495117
604.618774	4944.509277
603.589722	4856.141113
602.560425	4901.391113
601.530884	5041.331543
600.501221	5023.403809
599.471375	4949.650391
598.441284	5077.368164
597.411011	4906.567871
596.380615	5009.984863
595.349976	5096.383301
594.319153	4865.041992
593.288147	5099.347656
592.256897	5040.219727
591.225525	4896.277344
590.193970	4972.921875
589.162170	4867.812500
588.130188	4852.376465
587.098022	4895.076172
586.065674	5078.216309
585.033142	4922.318848
584.000427	4882.675781
582.967468	4964.062500
581.934387	4951.043945
580.901062	5066.259766
579.867554	4915.345215
578.833862	5018.431641
577.799988	5099.716797
576.765930	5069.760742
575.731628	4933.459961
574.697205	5154.885254
573.662537	5016.202148
572.627747	4942.797852
571.592712	4929.805176
570.557434	4953.041016
569.522034	4952.123047
568.486450	4876.370117
567.450623	4803.058594
566.414673	4920.412598
565.378479	4987.056152
564.342102	4906.527344
563.305542	5031.031738
562.268799	4907.119629
561.231812	4961.660645
560.194702	4919.762695
559.157349	5022.481445
558.119812	5072.150879
557.082092	4989.299805
556.044189	5113.625977
555.006042	5074.145508
553.967773	5073.204102
552.929260	5089.114258
551.890625	4972.639160
550.851746	4822.517090
549.812683	4992.448242
548.773376	4861.621582
547.733948	4954.518555
546.694275	4900.696289
545.654419	4916.616211
544.614441	4903.684570
543.574158	5006.117188
542.533752	4969.144531
541.493164	4965.819336
540.452332	5008.132813
539.411316	4999.998047
538.370178	5073.503418
537.328735	5070.160645
536.287170	5098.020996
535.245422	5130.670410
534.203430	4988.158203
533.161255	5016.017578
532.118896	4991.101563
531.076355	4896.653320
530.033630	4977.259277
528.990723	4849.289063
527.947571	4845.991211
526.904236	4816.335938
525.860718	4882.521484
524.817017	4884.009277
523.773132	4969.315430
522.729004	4934.870117
521.684692	4979.437500
520.640198	5009.627441
519.595520	5157.065918
518.550659	5141.750977
517.505615	5128.833496
516.460327	5144.621582
515.414856	5162.794922
514.369202	5023.165527
513.323364	5046.134766
512.277283	5021.296387
511.231079	4986.908691
510.184631	4823.523926
509.138000	4868.010254
508.091187	4695.155273
507.044159	4656.077637
505.996948	4650.436035
504.949554	4699.694336
503.901947	4703.591797
502.854126	4702.715820
501.806152	4949.933105
500.757965	4898.925293
499.709564	4883.705078
