#Wave		#Intensity
3200.600830	4.209852
3200.007080	16.839409
3199.413086	29.464512
3198.819092	25.251478
3198.224854	21.039719
3197.630615	16.829231
3197.036377	0.000000
3196.442139	0.000000
3195.847656	4.205400
3195.252930	16.819057
3194.658447	12.612386
3194.063721	12.610478
3193.468750	0.000000
3192.873779	16.808887
3192.278809	-4.201586
3191.683838	0.000000
3191.088623	25.201893
3190.493164	20.998402
3189.897949	8.398090
3189.302490	20.992050
3188.706787	25.186649
3188.111328	16.788559
3187.515381	33.572041
3186.919678	20.979351
3186.323730	25.171412
3185.727783	12.583802
3185.131592	29.357761
3184.535400	20.966658
3183.939209	8.385394
3183.342773	29.344437
3182.746338	16.765713
3182.149902	12.572381
3181.553223	25.140957
3180.956543	33.516201
3180.359619	0.000000
3179.762695	8.376514
3179.165771	-8.375246
3178.568604	12.560967
3177.971436	8.372710
3177.374268	8.371443
3176.776855	20.925440
3176.179443	29.291180
3175.581787	16.735283
3174.984131	12.549562
3174.386475	16.730215
3173.788574	8.363840
3173.190674	12.543860
3172.592773	20.903269
3171.994629	0.000000
3171.396484	8.358774
3170.798340	0.000000
3170.199951	8.356242
3169.601563	-4.177488
3169.002930	16.707422
3168.404297	4.176223
3167.805664	0.000000
3167.206787	16.699829
3166.607910	20.871622
3166.008789	-8.347384
3165.409912	33.384476
3164.810547	29.206989
3164.211426	20.858974
3163.612061	33.369301
3163.012695	12.511591
3162.413086	-8.339796
3161.813477	4.169266
3161.213623	25.011805
3160.614014	20.840012
3160.013916	8.334741
3159.414063	20.833693
3158.813965	4.166107
3158.213867	20.827375
3157.613525	24.989061
3157.013184	8.328424
3156.412598	16.654322
3155.812256	12.488847
3155.211426	0.000000
3154.610840	0.000000
3154.010010	12.483166
3153.409180	12.481272
3152.808105	16.639172
3152.207031	24.954971
3151.605957	4.158531
3151.004639	20.789501
3150.403320	24.943615
3149.801758	8.313277
3149.200195	29.092054
3148.598633	12.466131
3147.996826	12.464240
3147.395020	16.616465
3146.793213	-8.306972
3146.191162	20.764277
3145.589111	0.000000
3144.986816	29.061163
3144.384766	12.452894
3143.782227	33.202675
3143.179932	4.149704
3142.577393	16.596298
3141.974609	16.593779
3141.371826	16.591259
3140.769043	4.147185
3140.166260	20.732777
3139.563232	20.729628
3138.960205	12.435888
3138.356934	24.868000
3137.753662	16.576149
3137.150391	29.003855
3136.546875	37.285007
3135.943359	8.284299
3135.339600	24.849121
3134.735840	4.140891
3134.132080	8.280524
3133.528076	33.117062
3132.924072	8.278008
3132.320068	-8.276751
3131.715820	24.826479
3131.111572	33.096943
3130.507080	4.136489
3129.902588	20.679302
3129.298096	8.270464
3128.693604	4.134604
3128.088867	0.000000
3127.483887	20.666733
3126.878906	-4.132719
3126.273926	4.132090
3125.668945	37.183159
3125.063721	33.046673
3124.458252	33.041649
3123.853027	12.388735
3123.247559	12.386850
3122.641846	33.026581
3122.036133	41.276947
3121.430420	20.635336
3120.824707	28.885077
3120.218750	16.503248
3119.612549	20.625921
3119.006592	16.498228
3118.400391	28.867508
3117.793945	8.246605
3117.187500	24.736052
3116.581055	8.244096
3115.974609	28.849947
3115.367920	12.362382
3114.760986	8.240334
3114.154297	4.119540
3113.547363	24.713480
3112.940186	16.473146
3112.333008	8.235320
3111.725830	20.585167
3111.118408	20.582033
3110.510986	20.578901
3109.903564	32.921230
3109.295898	24.687164
3108.688232	20.569506
3108.080566	28.792923
3107.472656	28.788540
3106.864746	28.784159
3106.256592	8.222793
3105.648438	20.553852
3105.040039	-8.220289
3104.431885	16.438076
3103.823486	24.653358
3103.214844	28.757872
3102.606201	28.753492
3101.997559	20.535080
3101.388672	24.638344
3100.779785	32.846123
3100.170898	20.525700
3099.561768	-4.104515
3098.952637	8.207778
3098.343262	20.516319
3097.733887	16.410555
3097.124512	12.306042
3096.514893	36.912498
3095.905273	8.201528
3095.295410	20.500694
3094.685791	8.199028
3094.075684	20.494448
3093.465820	0.000000
3092.855713	20.488201
3092.245361	4.097016
3091.635254	20.481956
3091.024658	16.383068
3090.414307	28.665997
3089.803711	16.378073
3089.193115	32.751152
3088.582275	16.373079
3087.971436	28.648520
3087.360596	8.184044
3086.749512	16.365591
3086.138428	16.363096
3085.527100	24.540901
3084.915771	8.179052
3084.304443	12.266707
3083.692871	16.353115
3083.081299	32.701244
3082.469482	0.000000
3081.857910	24.518452
3081.245850	20.428926
3080.634033	16.340647
3080.021973	20.422693
3079.409668	20.419577
3078.797607	36.749630
3078.185059	-4.082669
3077.572754	24.492277
3076.960205	20.407116
3076.347656	12.242401
3075.734863	20.400888
3075.122070	0.000000
3074.509033	32.631458
3073.895996	12.234929
3073.282959	16.310749
3072.669922	44.847713
3072.056641	8.152884
3071.443115	24.454920
3070.829834	36.676781
3070.216064	8.149151
3069.602539	36.665581
3068.988770	40.733315
3068.375000	8.145419
3067.760986	20.360437
3067.146973	8.142931
3066.532715	12.212531
3065.918701	20.351110
3065.304199	4.069601
3064.689941	12.206936
3064.075439	20.341785
3063.460693	36.609623
3062.846191	24.402685
3062.231445	44.731422
3061.616455	24.395229
3061.001465	28.456753
3060.386475	44.710922
3059.771240	16.256033
3059.156006	40.633873
3058.540771	12.188298
3057.925293	44.683598
3057.309814	8.123049
3056.694092	20.304518
3056.078369	16.241131
3055.462646	8.119325
3054.846680	20.295208
3054.230713	24.350527
3053.614502	16.231203
3052.998291	20.285902
3052.382080	44.622162
3051.765625	8.111879
3051.149170	16.221279
3050.532715	8.109399
3049.916016	28.378555
3049.299316	16.213837
3048.682373	8.105679
3048.065430	16.208878
3047.448486	4.051600
3046.831299	12.152940
3046.214111	24.302162
3045.596680	16.198963
3044.979248	8.098243
3044.361816	16.194008
3043.744141	20.239412
3043.126465	32.378105
3042.508545	28.326506
3041.890869	8.092049
3041.272705	16.181622
3040.654785	28.313503
3040.036621	12.132502
3039.418213	16.174192
3038.799805	16.171717
3038.181396	36.380795
3037.562988	0.000000
3036.944336	32.328583
3036.325439	36.364090
3035.706543	32.318687
3035.087646	12.117652
3034.468750	20.192993
3033.849609	28.265863
3033.230469	16.149448
3032.611084	32.293949
3031.991699	28.252880
3031.372070	16.142031
3030.752441	24.209337
3030.132813	28.239901
3029.513184	24.201921
3028.893066	12.099107
3028.273193	24.194508
3027.653076	28.222601
3027.032959	12.093547
3026.412598	8.061130
3025.792480	40.299473
3025.171875	8.058660
3024.551270	28.200987
3023.930664	16.112379
3023.310059	20.137388
3022.689209	24.161163
3022.068115	12.078730
3021.447266	16.102505
3020.826172	28.175064
3020.204834	40.243923
3019.583496	16.095100
3018.962158	32.185268
3018.340576	32.180332
3017.718994	24.131550
3017.097412	20.106541
3016.475586	36.186226
3015.853760	28.140526
3015.231689	20.097294
3014.609619	16.075369
3013.987549	40.182259
3013.365234	16.070438
3012.742920	36.152943
3012.120361	20.081886
3011.497803	20.078806
3010.875244	28.106018
3010.252441	32.116234
3009.629639	32.111309
3009.006836	20.066488
3008.383789	28.088774
3007.760498	32.096531
3007.137451	16.045803
3006.514160	20.054176
3005.890625	16.040878
3005.267090	32.076832
3004.643555	32.071911
3004.019775	16.033493
3003.395996	28.054308
3002.772217	28.050001
3002.148193	32.052223
3001.524170	32.047302
3000.899902	52.068874
3000.275635	24.028097
2999.651367	4.004068
2999.026855	36.031082
2998.402344	16.011354
2997.777588	32.017792
2997.152832	28.011265
2996.528076	36.008953
2995.903076	16.001522
2995.278076	15.999063
2994.653076	27.994061
2994.027832	27.989761
2993.402344	39.979233
2992.777100	35.975780
2992.151367	11.990085
2991.525879	47.952969
2990.900146	27.968267
2990.274414	39.948528
2989.648438	39.942390
2989.022461	27.955378
2988.396240	27.951082
2987.770264	31.939184
2987.143799	0.000000
2986.517578	11.973513
2985.891113	27.933903
2985.264404	15.959777
2984.637695	51.861301
2984.010986	39.887177
2983.384033	11.964314
2982.757080	27.912439
2982.130127	23.921268
2981.502930	31.890121
2980.875732	23.913914
2980.248291	39.850395
2979.620850	47.813118
2978.993408	31.870510
2978.365723	35.848808
2977.738037	35.843296
2977.110107	63.711617
2976.482178	23.888182
2975.854248	39.807510
2975.226074	35.821247
2974.597900	43.774792
2973.969482	71.620453
2973.341309	35.804718
2972.712646	47.732277
2972.083984	79.541557
2971.455322	59.646988
2970.826660	51.686100
2970.197754	47.702904
2969.568604	39.746304
2968.939697	63.584297
2968.310547	55.627697
2967.681152	43.700748
2967.051758	47.666206
2966.422363	27.801006
2965.792725	71.477295
2965.163086	47.644196
2964.533203	47.636860
2963.903564	51.598652
2963.273438	59.527737
2962.643311	63.486477
2962.013184	71.411285
2961.383057	75.366974
2960.752686	71.389297
2960.122314	91.205605
2959.491699	47.578205
2958.861084	87.213272
2958.230225	87.199837
2957.599609	95.112442
2956.968506	79.248154
2956.337646	55.465164
2955.706299	55.456619
2955.075195	63.369225
2954.443848	95.039192
2953.812500	87.105835
2953.180908	43.546207
2952.549316	55.413902
2951.917725	63.320415
2951.285889	63.310658
2950.653809	83.082428
2950.021973	71.202530
2949.389893	67.236473
2948.757568	55.362675
2948.125244	55.354141
2947.492920	63.252121
2946.860352	86.958260
2946.227783	59.280582
2945.595215	47.417152
2944.962402	67.163940
2944.329590	67.153580
2943.696533	51.344822
2943.063477	59.234886
2942.430420	59.225750
2941.797119	23.686646
2941.163574	39.471653
2940.530273	51.305237
2939.896729	55.243271
2939.262939	39.453392
2938.629150	90.728798
2937.995361	35.497097
2937.361328	67.039726
2936.727295	63.086475
2936.093262	70.961334
2935.458984	63.067005
2934.824707	63.057274
2934.190186	70.928482
2933.555664	63.037811
2932.921143	63.028080
2932.286377	59.079704
2931.651367	70.884705
2931.016602	74.811195
2930.381592	94.483757
2929.746338	82.660522
2929.111084	74.776550
2928.475830	82.635002
2927.840332	86.556633
2927.204834	94.410843
2926.569336	78.663551
2925.933594	86.516541
2925.297607	55.047478
2924.661865	70.764397
2924.025879	102.199455
2923.389648	82.532959
2922.753418	125.745087
2922.117188	82.507462
2921.480713	62.853119
2920.844238	94.265114
2920.207764	62.833698
2919.571045	70.676987
2918.934082	98.147316
2918.297363	62.804577
2917.660156	86.342949
2917.023193	78.481461
2916.385986	86.316261
2915.748779	66.688622
2915.111328	113.745354
2914.473877	74.511299
2913.836182	101.947067
2913.198486	86.249573
2912.560791	86.236237
2911.922852	82.303680
2911.284912	97.965424
2910.646729	94.032265
2910.008545	74.430702
2909.370361	90.086388
2908.731934	125.318199
2908.093506	70.480583
2907.455078	117.449478
2906.816406	97.859421
2906.177490	97.844292
2905.538574	105.655487
2904.899658	93.901459
2904.260498	117.358665
2903.621338	97.783760
2902.982178	89.947136
2902.342773	54.741962
2901.703369	97.738380
2901.063721	105.541115
2900.424072	97.708130
2899.784424	78.154411
2899.144531	105.492119
2898.504639	105.475792
2897.864502	89.835846
2897.224365	78.106033
2896.583984	101.522125
2895.943848	97.602318
2895.303223	81.973259
2894.662842	78.057678
2894.021973	89.752434
2893.381348	109.246918
2892.740479	105.328926
2892.099609	78.009346
2891.458496	97.496582
2890.817383	120.877037
2890.176025	89.669075
2889.534668	120.839600
2888.893311	105.231094
2888.251709	105.214790
2887.610107	81.821053
2886.968262	109.077835
2886.326416	132.431137
2885.684570	120.727333
2885.042480	147.965408
2884.400391	147.942490
2883.758057	140.134323
2883.115723	97.300423
2882.473389	147.873718
2881.830811	132.287567
2881.188232	120.596436
2880.545410	175.032211
2879.902588	132.226059
2879.259766	139.982361
2878.616699	143.848465
2877.973633	93.292648
2877.330322	116.597725
2876.687012	89.377731
2876.043457	132.103119
2875.399902	112.658722
2874.756348	143.714691
2874.112549	104.856628
2873.468750	97.074409
2872.824707	116.471230
2872.180664	155.270889
2871.536621	97.029251
2870.892334	116.417038
2870.248047	159.078613
2869.603760	131.898376
2868.958984	120.241631
2868.314453	151.248260
2867.669678	158.979919
2867.024902	100.800888
2866.379883	116.290672
2865.734863	124.024132
2865.089844	120.129738
2864.444580	104.612885
2863.799316	116.218506
2863.153809	123.947166
2862.508301	89.073196
2861.862549	77.442932
2861.216797	92.917091
2860.571045	61.935112
2859.925049	92.888245
2859.279053	77.394852
2858.632813	50.298843
2857.986572	100.582069
2857.340332	92.830566
2856.693848	85.081474
2856.047363	77.334785
2855.400635	69.590492
2854.753906	88.907379
2854.107178	77.298759
2853.460205	85.015427
2852.813232	88.865959
2852.166016	65.673332
2851.518799	65.663124
2850.871338	61.790989
2850.223877	88.810745
2849.576416	81.075478
2848.928711	73.342606
2848.281006	92.628891
2847.633301	61.743000
2846.985352	84.883430
2846.337158	96.443451
2845.688965	84.857048
2845.040771	92.556938
2844.392578	53.983154
2843.743896	107.949524
2843.095459	88.659042
2842.446777	77.082832
2841.798096	88.631477
2841.149170	80.911812
2840.500244	92.456261
2839.851074	103.997124
2839.202148	84.725220
2838.552734	53.907661
2837.903320	84.698868
2837.253906	88.535042
2836.604492	84.672523
2835.954834	88.507507
2835.304932	53.865753
2834.655029	73.092155
2834.005127	100.005280
2833.354980	69.223656
2832.704834	80.748367
2832.054688	80.735802
2831.404297	76.879272
2830.753906	88.397408
2830.103271	76.855347
2829.452637	42.263863
2828.801758	46.098858
2828.150879	34.568764
2827.500000	42.244133
2826.848877	42.237560
2826.197754	46.070164
2825.546387	26.870079
2824.895020	46.055820
2824.243408	30.699100
2823.591797	69.062225
2822.940186	30.689543
2822.288330	72.876312
2821.636475	49.854977
2820.984619	61.350414
2820.332520	65.174667
2819.680176	38.332066
2819.028076	53.656536
2818.375488	53.648178
2817.723145	68.965485
2817.070557	61.293106
2816.417725	65.113777
2815.764893	38.296257
2815.112061	22.974173
2814.458984	42.112755
2813.805908	42.106194
2813.152832	42.099632
2812.499512	61.226288
2811.845947	38.260468
2811.192383	53.556305
2810.538818	38.248539
2809.885010	26.769806
2809.231201	42.060280
2808.577393	34.407593
2807.923340	49.692108
2807.269287	57.328110
2806.614990	26.748947
2805.960693	49.668869
2805.306152	38.200867
2804.651611	53.472874
2803.997070	34.370056
2803.342285	49.637897
2802.687500	41.994747
2802.032471	38.171089
2801.377441	53.431190
2800.722412	72.502449
2800.067139	76.306458
2799.411621	68.665100
2798.756348	41.955460
2798.100586	41.948914
2797.445068	64.820030
2796.789307	45.748173
2796.133301	38.117531
2795.477539	49.545055
2794.821289	41.916199
2794.165283	49.529594
2793.509033	0.000000
2792.852539	34.279018
2792.196045	22.849112
2791.539551	26.653135
2790.882813	60.911942
2790.226074	30.451218
2789.569092	57.087116
2788.912109	60.883419
2788.255127	34.241577
2787.597900	34.236229
2786.940430	34.230885
2786.283203	22.817026
2785.625488	38.022438
2784.968018	49.421448
2784.310303	49.413731
2783.652588	49.406013
2782.994629	49.398296
2782.336426	37.992752
2781.678467	45.584183
2781.020264	26.586618
2780.361816	53.164932
2779.703369	49.359722
2779.044922	41.759392
2778.386230	56.935730
2777.727539	56.926834
2777.068604	41.739819
2776.409668	41.733299
2775.750732	45.520119
2775.091553	64.476753
2774.432373	34.129417
2773.772949	72.039726
2773.113525	26.536804
2772.453857	30.323036
2771.794189	30.318295
2771.134521	60.627110
2770.474609	68.194832
2769.814697	45.456116
2769.154541	45.449005
2768.494385	68.162849
2767.833984	56.793491
2767.173584	49.213326
2766.513184	60.560776
2765.852539	37.844566
2765.191895	60.541832
2764.531006	56.749088
2763.870117	41.609489
2763.209229	64.295517
2762.548096	64.285454
2761.886719	45.370869
2761.225586	56.704712
2760.563965	56.695839
2759.902588	45.349571
2759.240967	49.121017
2758.579102	75.558968
2757.917236	33.996212
2757.255371	49.097958
2756.593262	60.418797
2755.931152	75.511673
2755.269043	37.749928
2754.606689	52.841621
2753.944092	49.059540
2753.281494	49.051857
2752.618896	56.589436
2751.956055	37.720383
2751.293213	75.428955
2750.630371	52.792000
2749.967285	60.324265
2749.303955	64.084496
2748.640625	75.381714
2747.977295	56.527428
2747.313721	52.750668
2746.650146	37.673145
2745.986572	48.967419
2745.322754	67.790421
2744.658691	52.717621
2743.994873	56.474316
2743.330566	45.172375
2742.666504	67.747940
2742.002197	71.500511
2741.337646	37.625950
2740.673096	56.430080
2740.008545	63.944069
2739.343750	52.651566
2738.678955	33.842129
2738.013916	67.673653
2737.348877	30.072462
2736.683594	93.961716
2736.018311	45.094551
2735.353027	41.330193
2734.687500	41.323711
2734.021973	41.317230
2733.356201	30.044184
2732.690430	60.078941
2732.024658	48.806484
2731.358643	37.537563
2730.692383	63.803848
2730.026367	67.546417
2729.359863	63.783833
2728.693604	41.265415
2728.027100	60.013008
2727.360352	60.003593
2726.693604	71.243088
2726.026855	74.980957
2725.359863	97.459946
2724.692871	86.201042
2724.025635	59.956532
2723.358398	52.453732
2722.691162	74.922142
2722.023682	59.928307
2721.355957	71.153694
2720.688477	78.631210
2720.020508	59.900089
2719.352783	71.120186
2718.684814	63.623863
2718.016602	82.323837
2717.348389	74.828102
2716.680176	67.334717
2716.011719	41.142532
2715.343262	52.355000
2714.674561	48.607719
2714.005859	37.384682
2713.337158	56.068214
2712.668213	74.745880
2711.999023	56.050602
2711.329834	41.097317
2710.660645	63.504059
2709.991455	59.759136
2709.321777	74.687187
2708.652344	56.006588
2707.982666	74.663719
2707.312988	48.523788
2706.643066	82.104279
2705.972900	59.702816
2705.302979	44.770077
2704.632813	41.032787
2703.962402	59.674671
2703.291992	48.478050
2702.621582	37.284946
2701.950928	78.286072
2701.280273	41.000546
2700.609375	44.720833
2699.938477	63.344555
2699.267334	78.236855
2698.596191	52.149700
2697.925049	67.039070
2697.253662	59.580914
2696.582031	40.955437
2695.910645	67.007446
2695.239014	26.054352
2694.567139	70.707832
2693.895264	33.487915
2693.223145	59.524704
2692.551270	44.636505
2691.878906	59.505978
2691.206543	29.748306
2690.534180	52.051346
2689.861816	70.629997
2689.189209	63.185314
2688.516357	55.742973
2687.843506	55.734200
2687.170654	52.010399
2686.497559	66.859993
2685.824463	81.704903
2685.151123	63.125668
2684.477783	63.115730
2683.804199	55.681583
2683.130615	48.249775
2682.457031	70.507797
2681.783203	55.655285
2681.109375	44.517216
2680.435303	55.637760
2679.761230	48.211796
2679.086914	70.452301
2678.412598	59.318909
2677.738281	37.068478
2677.063721	77.831543
2676.389160	74.113602
2675.714355	22.230577
2675.039551	55.567688
2674.364502	44.447147
2673.689453	59.253525
2673.014404	51.838665
2672.339111	51.830498
2671.663574	59.225517
2670.988037	62.917198
2670.312500	51.805996
2669.636719	51.797832
2668.960938	62.887451
2668.285156	29.589430
2667.609131	51.773342
2666.932861	40.672642
2666.256592	59.150879
2665.580322	88.712326
2664.903809	55.436462
2664.227295	77.598808
2663.550781	88.670372
2662.874023	59.104259
2662.197021	62.788372
2661.520020	55.392765
2660.843018	29.538149
2660.165771	62.758667
2659.488525	47.984352
2658.811035	73.810432
2658.133545	44.279274
2657.455811	62.719074
2656.778076	81.153053
2656.100342	51.634705
2655.422363	66.377007
2654.744385	47.931381
2654.066162	70.042503
2653.387939	47.916256
2652.709473	58.964546
2652.031006	62.639942
2651.352539	66.314178
2650.673828	40.518932
2649.994873	58.927326
2649.316162	44.188519
2648.636963	58.908722
2647.958008	73.624275
2647.278809	55.209488
2646.599365	66.240929
2645.919922	66.230469
2645.240479	62.541119
2644.560791	33.104774
2643.880859	88.265457
2643.201172	33.094318
2642.520996	80.884445
2641.841064	73.519699
2641.160889	44.104851
2640.480469	55.122353
2639.800049	47.765160
2639.119629	73.473251
2638.438965	51.423149
2637.758301	62.432529
2637.077393	66.094582
2636.396484	51.398777
2635.715332	58.732174
2635.034180	58.722893
2634.353027	58.713612
2633.671631	77.049431
2632.989990	66.031937
2632.308350	88.028656
2631.626709	55.009216
2630.944824	99.000931
2630.262939	69.656311
2629.581055	62.314209
2628.898926	43.979546
2628.216553	47.636974
2627.534180	65.948456
2626.851807	36.632236
2626.169189	69.590240
2625.486572	87.889565
2624.803711	54.922287
2624.120850	84.200851
2623.437988	65.885895
2622.754883	76.854721
2622.071533	76.842560
2621.388184	73.171814
2620.704834	80.476257
2620.021240	43.889194
2619.337646	76.793938
2618.653809	58.500408
2617.969971	62.146847
2617.286133	69.447243
2616.602051	91.363495
2615.917725	73.079224
2615.233398	62.107510
2614.549072	62.097675
2613.864502	87.653427
2613.179932	62.078014
2612.495117	65.719254
2611.810303	65.708855
2611.125488	62.048534
2610.440430	47.441364
2609.755127	51.082611
2609.069824	69.315422
2608.384521	65.656837
2607.698975	76.587517
2607.013428	65.636040
2606.327637	47.396297
2605.641846	58.324665
2604.956055	91.117851
2604.270020	76.526871
2603.583740	51.009830
2602.897461	65.573677
2602.211182	98.344925
2601.524658	72.836548
2600.838135	105.596260
2600.151367	65.532120
2599.464600	98.282600
2598.777832	58.232307
2598.090820	21.833654
2597.403564	58.213848
2596.716309	61.842411
2596.029053	61.832607
2595.341553	76.369347
2594.654053	72.721176
2593.966309	47.261269
2593.278564	87.237740
2592.590820	76.320915
2591.902832	76.308815
2591.214600	69.030357
2590.526367	72.652008
2589.838135	54.480366
2589.149658	50.840275
2588.461182	68.986572
2587.772461	65.345329
2587.083740	58.075523
2586.394775	58.066311
2585.705811	54.428528
2585.016846	50.791901
2584.327637	72.548340
2583.638184	87.044197
2582.948975	58.020252
2582.259277	65.262428
2581.569824	90.627869
2580.879883	72.490791
2580.190186	76.103249
2579.500244	57.974220
2578.810059	61.587833
2578.119873	68.822533
2577.429688	86.919922
2576.739258	94.148300
2576.048584	94.133347
2575.358154	79.638649
2574.667236	61.529182
2573.976563	75.994560
2573.285645	50.654995
2572.594482	72.352783
2571.903320	79.575424
2571.212158	50.630863
2570.520752	68.702400
2569.829102	65.076141
2569.137451	93.983940
2568.445801	39.756119
2567.753906	83.113220
2567.062012	75.873924
2566.370117	65.024460
2565.677979	72.237915
2564.985596	57.781147
2564.293213	72.214958
2563.600830	39.711914
2562.908203	79.411201
2562.215332	57.744419
2561.522705	72.169052
2560.829590	72.157578
2560.136719	61.324188
2559.443604	57.707706
2558.750244	72.123161
2558.056885	108.167542
2557.363525	79.310249
2556.669922	57.671009
2555.976074	75.681160
2555.282227	90.082291
2554.588379	46.835342
2553.894287	68.440765
2553.200195	68.429878
2552.505859	72.019989
2551.811523	68.408104
2551.117188	68.397224
2550.422607	68.386337
2549.727783	89.967705
2549.032959	75.560844
2548.338135	89.939072
2547.643066	79.133789
2546.947998	32.367764
2546.252686	64.725220
2545.557373	82.691284
2544.861816	64.704620
2544.166260	82.664963
2543.470703	89.838913
2542.774902	82.638641
2542.078857	71.848244
2541.382813	68.244965
2540.686768	86.190445
2539.990479	75.404625
2539.294189	71.802490
2538.597656	86.149269
2537.901123	82.546570
2537.204346	43.060913
2536.507568	68.168922
2535.810791	100.443459
2535.113770	78.907288
2534.416504	68.136345
2533.719238	93.224358
2533.021973	78.869583
2532.324463	78.857010
2531.626953	64.509094
2530.929199	68.082085
2530.231445	82.402016
2529.533447	71.642509
2528.835449	68.049538
2528.137451	103.848526
2527.439209	75.188667
2526.740723	78.756523
2526.042236	71.585426
2525.343750	93.046219
2524.645020	93.031380
2523.946289	93.016548
2523.247314	93.001717
2522.548340	82.257629
2521.849121	82.244514
2521.149902	75.080841
2520.450684	85.792992
2519.751221	57.186203
2519.051514	100.059891
2518.351807	78.605949
2517.652100	89.310692
2516.952148	78.580872
2516.252197	92.853485
2515.552002	74.985077
2514.851807	82.113411
2514.151367	85.669884
2513.450928	71.380180
2512.750244	71.368790
2512.049561	78.493134
2511.348877	82.047913
2510.647949	60.634426
2509.946777	71.323235
2509.245605	71.311852
2508.544434	60.605396
2507.843018	74.853539
2507.141602	71.277702
2506.439941	74.829636
2505.738281	74.817688
2505.036377	89.054451
2504.334473	124.656319
2503.632568	81.903931
2502.930420	71.209435
2502.228027	67.638153
2501.525635	96.102028
2500.823242	71.175316
2500.120605	92.513130
2499.417969	78.267838
2498.715088	85.369453
2498.012207	85.355812
2497.309082	88.898094
2496.605957	85.328537
2495.902588	85.314896
2495.199219	127.951897
2494.495605	85.287636
2493.791992	85.274002
2493.088379	85.260368
2492.384521	92.350639
2491.680664	67.476219
2490.976563	95.871925
2490.272461	81.655624
2489.568115	102.940628
2488.863770	78.080406
2488.159180	67.422295
2487.454590	63.863537
2486.749756	85.137764
2486.044922	74.483627
2485.339844	85.110535
2484.634766	81.551216
2483.929688	77.993034
2483.224365	95.703415
2482.519043	88.600098
2481.813477	74.412178
2481.107666	77.943138
2480.402100	102.726791
2479.696045	81.459938
2478.990234	74.364563
2478.284180	81.433868
2477.577881	63.720654
2476.871582	92.026215
2476.165039	99.089294
2475.458496	84.920082
2474.751953	95.519798
2474.045166	77.818489
2473.338379	84.879311
2472.631348	88.401794
2471.924072	120.207184
2471.217041	88.373482
2470.509521	88.359337
2469.802246	95.412804
2469.094482	105.997246
2468.386963	91.849564
2467.679199	91.834854
2466.971191	63.567795
2466.263184	74.150551
2465.554932	84.729904
2464.846680	81.186485
2464.138428	67.056351
2463.429932	102.332771
2462.721436	95.260078
2462.012695	98.772400
2461.303955	88.175507
2460.594971	91.687836
2459.885986	91.673141
2459.176758	91.658447
2458.467529	77.544716
2457.758057	91.629066
2457.048584	105.708900
2456.338867	84.553566
2455.629150	105.675011
2454.919434	91.570328
2454.209473	70.427422
2453.499512	109.144997
2452.789307	102.087013
2452.078857	98.550964
2451.368408	66.863144
2450.657959	95.000809
2449.947266	98.503555
2449.236572	91.452919
2448.525879	56.269691
2447.814697	112.521332
2447.103760	105.471825
2446.392578	84.363922
2445.681152	94.894188
2444.969727	122.991241
2444.258301	87.836792
2443.546631	101.874329
2442.834717	91.320946
2442.122803	126.424095
2441.410889	115.870155
2440.698730	94.787636
2439.986572	101.792603
2439.274170	56.152420
2438.561768	98.250961
2437.849121	105.251991
2437.136475	108.742928
2436.423584	80.667282
2435.710693	70.134201
2434.997803	80.641380
2434.284424	70.111679
2433.571289	87.625526
2432.857910	105.133743
2432.144287	80.589592
2431.430908	98.093307
2430.717041	101.580322
2430.003174	84.052963
2429.289307	84.039467
2428.575195	84.025963
2427.861084	91.013504
2427.146729	101.498749
2426.432373	87.484863
2425.717773	87.470802
2425.003174	97.951553
2424.288330	97.935814
2423.573486	94.422928
2422.858643	97.904335
2422.143555	111.872681
2421.428223	90.881943
2420.712891	101.352028
2419.997559	118.807411
2419.281982	69.875473
2418.566162	118.769211
2417.850586	111.764809
2417.134521	90.794304
2416.418457	66.339012
2415.702393	97.747040
2414.986084	94.240913
2414.269775	87.246071
2413.553223	108.167725
2412.836670	97.684166
2412.120117	108.132927
2411.403076	90.677544
2410.686279	101.124062
2409.969238	90.648369
2409.251953	97.605606
2408.534668	87.133842
2407.817383	97.574196
2407.099854	83.621567
2406.382080	76.640770
2405.664307	125.391983
2404.946533	107.959045
2404.228516	97.495705
2403.510498	87.035721
2402.792236	97.464317
2402.073975	107.889549
2401.355469	86.993690
2400.636963	90.458870
2399.918213	93.922928
2399.199463	76.517471
2398.480469	90.415176
2397.761475	73.015884
2397.042480	121.673538
2396.323242	93.847321
2395.603760	93.832207
2394.884277	114.665337
2394.164795	100.750275
2393.445068	131.996338
2392.725098	107.663864
2392.005127	97.229118
2391.285156	100.685356
2390.564941	118.025879
2389.844727	124.948441
2389.124268	97.166458
2388.403809	97.150795
2387.683105	131.826263
2386.962402	124.867905
2386.241455	90.167839
2385.520508	100.555611
2384.799316	100.539398
2384.078125	97.056870
2383.356689	100.506981
2382.635254	121.281967
2381.913818	86.616005
2381.192139	90.066124
2380.470215	93.515121
2379.748291	83.111145
2379.026367	86.560143
2378.304199	110.779114
2377.581787	96.916092
2376.859375	103.821915
2376.136963	96.884819
2375.414307	103.788422
2374.691650	114.148842
2373.968750	76.086945
2373.245850	124.485825
2372.522705	117.550972
2371.799316	93.334236
2371.076172	100.231705
2370.352783	107.126945
2369.629150	131.295700
2368.905518	117.456139
2368.181641	103.621040
2367.457764	124.325172
2366.733643	93.228828
2366.009521	120.832672
2365.285400	127.716766
2364.561035	106.988663
2363.836426	100.070007
2363.111816	86.253311
2362.387207	96.588112
2361.662354	137.960724
2360.937256	100.005371
2360.212158	127.572449
2359.487061	110.315109
2358.761719	117.190865
2358.036377	89.602066
2357.310791	93.033264
2356.584961	86.127998
2355.859375	93.003204
2355.133301	103.320198
2354.407471	89.529701
2353.681152	106.729698
2352.955078	89.500763
2352.228516	99.811638
2351.502197	134.207748
2350.775635	92.898033
2350.048828	120.403908
2349.322021	116.944893
2348.594971	96.291985
2347.867920	110.030190
2347.140869	103.136620
2346.413330	113.431938
2345.686035	99.666496
2344.958496	109.959038
2344.230713	133.990906
2343.502930	127.099007
2342.775146	109.905685
2342.047119	127.057892
2341.319092	109.870132
2340.590820	82.389267
2339.862305	102.969925
2339.133789	120.112137
2338.405273	109.799042
2337.676514	123.503937
2336.947754	99.473183
2336.218750	106.316193
2335.489746	123.443985
2334.760498	109.710220
2334.031250	106.264572
2333.301758	89.110703
2332.572266	113.083733
2331.842529	95.934303
2331.112793	89.067429
2330.382813	99.328354
2329.652832	126.708755
2328.922607	130.112244
2328.192383	119.820824
2327.462158	85.572441
2326.731689	106.092644
2326.000977	126.606194
2325.270264	92.373337
2324.539307	126.565178
2323.808350	106.023918
2323.077393	123.104599
2322.346191	92.313492
2321.614746	126.483177
2320.883301	116.208954
2320.151855	99.103340
2319.420166	116.171295
2318.688232	95.654968
2317.956299	95.639465
2317.224365	102.454247
2316.492188	102.437645
2315.760010	95.592972
2315.027588	126.298805
2314.295166	136.517105
2313.562500	105.783607
2312.829590	116.001923
2312.096924	109.160576
2311.363770	95.500015
2310.630615	112.535332
2309.897461	129.565125
2309.164063	115.907890
2308.430664	95.438072
2307.697021	112.462341
2306.963379	115.851501
2306.229492	122.646393
2305.495605	149.876831
2304.761719	122.606598
2304.027344	143.017822
2303.293213	119.162186
2302.558838	129.355087
2301.824219	98.702339
2301.089600	136.119064
2300.354736	115.682426
2299.619873	125.869263
2298.885010	115.644875
2298.149658	91.820732
2297.414551	102.006470
2296.679199	122.387894
2295.943604	115.569801
2295.208008	122.348152
2294.472412	135.920319
2293.736572	105.321144
2293.000488	118.891655
2292.264404	98.494232
2291.528320	105.269836
2290.791992	125.624237
2290.055420	84.867455
2289.318848	108.612694
2288.582275	111.988647
2287.845459	159.473068
2287.108398	88.204811
2286.371582	111.934074
2285.634277	101.741714
2284.896973	115.288536
2284.159668	115.269806
2283.422119	145.758713
2282.684570	111.843155
2281.946777	138.934052
2281.208740	125.359138
2280.470703	145.663956
2279.732666	121.931396
2278.994385	128.684448
2278.256104	118.505875
2277.517578	125.257271
2276.779053	125.236900
2276.040283	131.985001
2275.301514	131.963531
2274.562500	108.260162
2273.823486	94.712234
2273.084229	114.989014
2272.344971	142.022141
2271.605469	125.094391
2270.865967	135.215179
2270.126221	114.914207
2269.386475	125.033348
2268.646484	148.664108
2267.906494	135.127197
2267.166260	111.461807
2266.426025	118.197823
2265.685547	158.696960
2264.945068	108.031410
2264.204346	138.392715
2263.463623	175.493896
2262.722656	141.722000
2261.981689	104.587303
2261.240723	121.436455
2260.499268	141.652786
2259.758057	165.234680
2259.016602	121.377144
2258.274902	144.954651
2257.533203	117.967125
2256.791260	101.098213
2256.049316	121.298096
2255.307129	121.278343
2254.564941	114.521996
2253.822754	154.916290
2253.080322	127.953476
2252.337646	131.299286
2251.594971	127.911789
2250.852051	121.159843
2250.109131	124.505104
2249.366211	121.120361
2248.623047	117.736717
2247.879639	107.627457
2247.136230	124.423965
2246.392578	137.852722
2245.648926	147.915405
2244.905273	141.168961
2244.161377	120.982239
2243.417236	134.402786
2242.673096	134.380875
2241.928955	120.923073
2241.184570	124.261780
2240.439941	130.957275
2239.695313	157.794571
2238.950439	161.125610
2238.205566	137.605682
2237.460693	151.005997
2236.715576	144.271088
2235.970215	127.474579
2235.224854	124.099731
2234.479492	120.725990
2233.733887	110.647430
2232.988037	147.505844
2232.242188	134.074341
2231.496338	130.701141
2230.750244	167.538223
2230.003906	107.206963
2229.257568	137.336502
2228.511230	110.521095
2227.764648	103.805901
2227.017822	154.009415
2226.270996	147.289307
2225.523926	153.959137
2224.776855	127.162865
2224.029785	133.833801
2223.282471	137.157242
2222.534912	150.513855
2221.787354	120.391418
2221.039795	113.684433
2220.291992	160.469452
2219.543945	143.730408
2218.795898	147.048950
2218.047852	130.317551
2217.299561	130.296265
2216.551025	130.274979
2215.802490	140.273209
2215.053955	143.589584
2214.305176	120.194885
2213.556152	170.248260
2212.807129	163.545135
2212.058105	126.810188
2211.308838	113.443199
2210.559326	136.776794
2209.809814	143.425385
2209.060303	136.732086
2208.310547	143.378494
2207.560547	160.024246
2206.810547	123.331856
2206.060303	146.640930
2205.310059	119.959320
2204.559814	133.266342
2203.809326	113.257858
2203.058594	113.239342
2202.307861	143.191040
2201.557129	149.826569
2200.806152	156.459930
2200.054932	136.463989
2199.303711	169.720123
2198.552246	143.073944
2197.800781	163.011078
2197.049316	139.700912
2196.297607	169.609070
2195.545654	159.605942
2194.793701	166.228989
2194.041504	156.229675
2193.289307	146.233627
2192.537109	156.178528
2191.784668	182.732193
2191.031982	159.449265
2190.279297	122.888680
2189.526367	132.830872
2188.773438	139.449585
2188.020508	149.385803
2187.267090	159.318771
2186.513916	155.974075
2185.760498	145.994370
2185.006836	145.970459
2184.253174	162.531387
2183.499268	99.492714
2182.745361	142.582855
2181.991211	155.820847
2181.237061	155.795319
2180.482666	169.026794
2179.728271	175.626526
2178.973877	129.213425
2178.218994	159.005859
2177.464355	145.731476
2176.709229	142.396057
2175.954346	148.994705
2175.198975	142.349380
2174.443848	152.255768
2173.688232	145.612091
2172.932861	175.367615
2172.177002	132.331223
2171.421387	132.309525
2170.665283	162.052597
2169.909424	145.492752
2169.153076	115.713890
2168.396729	135.528320
2167.640381	145.421173
2166.883789	171.833206
2166.127197	165.197128
2165.370361	142.046234
2164.613525	135.417206
2163.856445	138.697311
2163.099365	158.485214
2162.342041	174.965378
2161.584473	155.132507
2160.826904	155.107056
2160.069336	158.381210
2159.311523	122.065475
2158.553711	125.343971
2157.795654	178.091141
2157.037354	171.467026
2156.279053	181.329575
2155.520752	154.928925
2154.762207	145.016037
2154.003662	148.287506
2153.244873	131.789474
2152.485840	158.121399
2151.726807	141.627167
2150.967773	148.190125
2150.208252	141.580643
2149.448975	161.309586
2148.689453	141.534134
2147.929688	134.928986
2147.169922	131.616409
2146.410156	157.913742
2145.650146	157.887802
2144.889893	161.150650
2144.129639	115.088692
2143.369141	138.083740
2142.608643	147.922546
2141.847900	161.044754
2141.087158	144.587845
2140.326416	170.848465
2139.565186	151.110336
2138.804199	157.654434
2138.042725	147.776733
2137.281494	164.169373
2136.519775	137.879593
2135.758301	157.550781
2134.996338	187.060776
2134.234619	187.030029
2133.472412	180.437881
2132.710449	141.046417
2131.947998	160.700882
2131.185547	160.674454
2130.423096	173.762146
2129.660400	173.733566
2128.897705	137.653000
2128.134766	150.738007
2127.371826	163.818710
2126.608643	193.274261
2125.845215	144.113022
2125.081787	173.562119
2124.318359	134.242935
2123.554688	144.041885
2122.790771	170.203293
2122.026855	157.084869
2121.262939	186.507584
2120.498779	153.761642
2119.734375	150.465347
2118.969971	183.145035
2118.205322	173.305161
2117.440674	153.660400
2116.676025	163.441589
2115.911133	153.609802
2115.145996	147.048981
2114.380859	169.895294
2113.615479	169.867310
2112.850098	166.573181
2112.084473	140.420929
2111.318848	143.662857
2110.552979	199.136139
2109.787109	156.671478
2109.020996	179.489822
2108.254883	185.986069
2107.488525	166.381165
2106.722168	163.091919
2105.955566	159.803726
2105.188965	146.734344
2104.422119	143.449936
2103.655029	179.282852
2102.887939	149.920944
2102.120850	166.189301
2101.353516	172.678040
2100.585938	143.331726
2099.818359	162.850098
2099.050781	159.566788
2098.282959	182.331970
2097.514893	185.557281
2096.746826	159.487854
2095.978760	201.767670
2095.210449	169.196579
2094.441895	169.168671
2093.673340	156.129944
2092.904541	152.852005
2092.135742	185.343124
2091.366699	165.805969
2090.597656	191.783096
2089.828369	169.001266
2089.059082	162.474411
2088.289551	159.198639
2087.520020	178.662857
2086.750244	139.658813
2085.980469	172.109192
2085.210449	188.314819
2084.440186	185.037460
2083.670166	197.989853
2082.899658	155.769577
2082.129150	178.456497
2081.358643	158.962265
2080.587891	152.448822
2079.816895	178.368103
2079.045898	168.611084
2078.274902	175.067200
2077.503662	178.279739
2076.732178	168.527542
2075.960693	184.701599
2075.188965	158.752335
2074.417236	194.358490
2073.645264	152.222336
2072.873291	184.579559
2072.101074	171.598251
2071.328857	145.672546
2070.556396	181.251434
2069.783936	184.457565
2069.011230	181.191513
2068.238525	145.576263
2067.465576	181.131622
2066.692627	158.463974
2065.919434	181.071732
2065.145996	181.041794
2064.372559	168.082443
2063.599121	180.981934
2062.825439	232.652573
2062.051514	167.999069
2061.277588	174.431717
2060.503662	197.010651
2059.729248	154.999130
2058.955078	161.430725
2058.180664	158.175934
2057.406006	164.604858
2056.631348	177.485672
2055.856445	183.909256
2055.081543	170.975052
2054.306396	193.524628
2053.531250	196.717484
2052.755859	170.890182
2051.980225	164.414276
2051.204590	180.503448
2050.428955	199.810028
2049.653076	167.554855
2048.877197	180.413818
2048.101074	177.162811
2047.324707	157.809830
2046.548340	189.984451
2045.771851	196.392075
2044.995239	199.578552
2044.218506	144.831421
2043.441528	176.986862
2042.664551	164.087906
2041.887329	189.795746
2041.110107	170.466232
2040.332642	160.790558
2039.555176	176.840317
2038.777466	163.952026
2037.999634	212.138062
2037.221802	170.325073
2036.443726	186.362579
2035.665527	173.481232
2034.887207	211.997482
2034.108765	163.789078
2033.330200	195.872116
2032.551514	163.734787
2031.772705	192.597229
2030.993774	192.565308
2030.214600	182.906708
2029.435425	205.334885
2028.656128	157.183456
2027.876587	173.193863
2027.097046	169.958374
2026.317261	176.342651
2025.537476	214.781769
2024.757446	179.489319
2023.977295	160.231735
2023.197021	189.042084
2022.416626	169.789291
2021.636230	188.979370
2020.855591	201.758057
2020.074707	198.522598
2019.293823	172.878082
2018.512817	211.260376
2017.731689	217.626083
2016.950439	175.991882
2016.168945	182.361313
2015.387451	182.331039
2014.605713	201.490341
2013.823975	188.665970
2013.041992	191.831848
2012.260010	156.636658
2011.477783	191.768158
2010.695435	178.953888
2009.912964	194.899551
2009.130371	210.839905
2008.347656	201.222839
2007.564819	178.835037
2006.781860	201.156006
2005.998779	223.469543
2005.215576	204.281067
2004.432129	181.907608
2003.648682	165.923233
2002.864990	165.895660
2002.081299	194.576035
2001.297363	191.354462
2000.513428	175.379105
1999.729248	194.479050
1998.944946	229.510880
1998.160522	191.227280
1997.375977	188.008896
1996.591309	187.977646
1995.806519	184.760864
1995.021606	216.580185
1994.236572	187.883911
1993.451416	171.932953
1992.666016	165.537537
1991.880615	178.241547
1991.094971	219.582520
1990.309326	216.364182
1989.523438	187.696518
1988.737549	178.123001
1987.951416	222.616714
1987.165161	209.860840
1986.378784	200.288376
1985.592285	206.612366
1984.805664	206.577988
1984.018921	200.188431
1983.232056	181.092712
1982.444946	212.827942
1981.657837	222.320557
1980.870605	190.528763
1980.083130	225.421509
1979.295654	196.814178
1978.507935	206.303101
1977.720093	174.535095
1976.932129	203.061569
1976.144165	177.649292
1975.355957	231.539978
1974.567627	212.473907
1973.779053	225.121429
1972.990479	228.254135
1972.201782	196.519440
1971.412964	209.163269
1970.623901	228.140091
1969.834839	205.925507
1969.045532	215.393860
1968.256226	202.689865
1967.466675	212.155594
1966.677002	224.784149
1965.887207	221.581238
1965.097290	215.214478
1964.307251	202.521042
1963.517090	227.798203
1962.726807	211.943558
1961.936401	218.233841
1961.145874	227.684311
1960.355103	214.999344
1959.564331	224.447174
1958.773315	214.927658
1957.982178	218.051987
1957.191040	252.771744
1956.399658	233.774872
1955.608154	243.211670
1954.816528	214.748520
1954.024780	236.815475
1953.232910	252.561035
1952.440918	205.171616
1951.648682	224.073151
1950.856445	211.414032
1950.063965	205.068939
1949.271484	223.961014
1948.478760	230.231354
1947.685913	204.966309
1946.893066	239.612915
1946.099976	195.441071
1945.306763	198.560211
1944.513428	239.492966
1943.719971	185.891144
1942.926270	211.061478
1942.132568	217.325531
1941.338745	198.394531
1940.544678	232.995941
1939.750610	232.957031
1938.956299	220.327957
1938.161865	213.997131
1937.367310	201.375427
1936.572632	242.239349
1935.777832	251.635208
1934.982910	235.868607
1934.187866	220.107254
1933.392700	207.495041
1932.597290	216.890381
1931.801880	235.711029
1931.006226	188.537323
1930.210571	207.356400
1929.414673	213.604218
1928.618652	219.849945
1927.822510	226.093582
1927.026245	213.497131
1926.229858	219.739731
1925.433350	229.118835
1924.636719	219.666275
1923.839844	191.391464
1923.042969	244.689148
1922.245850	216.419586
1921.448730	232.063354
1920.651367	235.160019
1919.853882	225.715866
1919.056274	203.737183
1918.258545	241.309845
1917.460693	225.602631
1916.662720	256.893341
1915.864624	203.600906
1915.066284	250.543808
1914.267944	275.552094
1913.469360	247.329224
1912.670776	222.246033
1911.871948	253.505859
1911.072998	203.396591
1910.273926	247.163712
1909.474731	228.353561
1908.675415	234.570557
1907.875977	275.183380
1907.076294	237.618591
1906.276611	250.082947
1905.476807	237.539032
1904.676758	246.874222
1903.876587	231.210556
1903.076294	206.180283
1902.275879	262.367340
1901.475342	256.077606
1900.674683	246.667587
1899.873901	237.260712
1899.072998	196.643707
1898.271851	227.818817
1897.470703	258.983490
1896.669312	252.700577
1895.867920	240.181274
1895.066284	252.615891
1894.264526	277.519104
1893.462646	233.825226
1892.660645	271.191803
1891.858521	233.746857
1891.056152	236.823776
1890.253784	252.361984
1889.451172	230.514267
1888.648560	252.277374
1887.845703	258.463104
1887.042725	221.057877
1886.239624	224.133774
1885.436401	242.770874
1884.633057	211.610916
1883.829590	248.912262
1883.025879	248.870514
1882.222168	251.939133
1881.418213	245.677200
1880.614258	251.854614
1879.810059	242.485992
1879.005737	264.203217
1878.201294	214.434860
1877.396729	261.007324
1876.592041	279.603790
1875.787231	251.601181
1874.982178	239.136292
1874.177124	270.147614
1873.371826	260.788391
1872.566406	270.056915
1871.760986	294.840240
1870.955322	232.729538
1870.149536	241.998093
1869.343506	260.569580
1868.537476	257.424316
1867.731323	238.775238
1866.924927	269.739685
1866.118530	241.794983
1865.311890	275.847931
1864.505127	238.614868
1863.698242	285.050385
1862.891235	291.198212
1862.084106	235.397308
1861.276855	229.164139
1860.469482	272.473724
1859.661865	235.278687
1858.854126	272.382172
1858.046387	259.957458
1857.238403	272.290619
1856.430298	241.307953
1855.622070	250.546906
1854.813721	281.431305
1854.005249	259.739075
1853.196533	278.245087
1852.387817	244.196289
1851.578857	275.060974
1850.769775	284.284882
1849.960693	225.535934
1849.151367	296.545319
1848.341919	253.256531
1847.532227	243.950012
1846.722534	256.258820
1845.912720	302.519745
1845.102661	271.604706
1844.292603	283.902588
1843.482300	234.488770
1842.671875	256.043335
1841.861328	262.168945
1841.050659	240.538071
1840.239868	243.580902
1839.428833	271.284943
1838.617798	280.486084
1837.806519	280.438873
1836.995117	277.310455
1836.183716	295.748016
1835.372070	271.056732
1834.560303	264.851746
1833.748291	270.965454
1832.936279	320.177979
1832.124146	258.561737
1831.311768	236.975021
1830.499390	310.785034
1829.686768	258.431152
1828.874023	252.235535
1828.061157	270.646179
1827.248169	298.275665
1826.434937	307.448883
1825.621704	288.953278
1824.808228	295.051483
1823.994751	273.491241
1823.181030	291.879639
1822.367188	273.399078
1821.553223	285.638519
1820.739136	288.661255
1819.924927	294.753296
1819.110474	310.052734
1818.296021	239.406311
1817.481323	282.329071
1816.666626	285.349762
1815.851685	282.233887
1815.036621	282.186310
1814.221436	282.138702
1813.406006	285.157349
1812.590576	242.189590
1811.774902	272.800476
1810.959229	263.560486
1810.143311	266.580170
1809.327271	284.916962
1808.511108	251.174713
1807.694824	284.820831
1806.878418	287.834839
1806.061768	290.847839
1805.245117	281.615631
1804.428223	336.657532
1803.611206	293.760620
1802.794067	278.413605
1801.976807	284.484558
1801.159424	275.261169
1800.341919	272.156769
1799.524170	290.455353
1798.706421	284.292511
1797.888428	272.018951
1797.070313	259.749512
1796.252075	308.591400
1795.433716	277.990845
1794.615234	268.780914
1793.796509	271.789337
1792.977783	314.489594
1792.158813	290.014221
1791.339844	265.547119
1790.520630	253.295258
1789.701294	305.123444
1788.881714	280.666138
1788.062134	305.020355
1787.242432	298.869446
1786.422485	301.868103
1785.602417	256.087219
1784.782349	286.525360
1783.962036	316.953217
1783.141479	332.135193
1782.320923	292.473297
1781.500244	268.055206
1780.679321	283.237701
1779.858398	316.685394
1779.037231	292.275543
1778.215942	273.962006
1777.394531	292.176697
1776.572998	273.869354
1775.751221	304.247803
1774.929443	298.112427
1774.107422	295.020538
1773.285278	328.420929
1772.463013	294.920746
1771.640625	291.830933
1770.818115	303.939117
1769.995483	288.693329
1769.172607	328.143188
1768.349731	285.557770
1767.526611	340.181458
1766.703369	300.645233
1765.880005	300.594330
1765.056519	267.149750
1764.232910	330.845367
1763.409058	306.511230
1762.585083	276.116852
1761.761108	312.474945
1760.936890	315.455261
1760.112549	294.172882
1759.288086	291.090851
1758.463379	318.326691
1757.638672	330.397461
1756.813721	300.034943
1755.988647	312.104706
1755.163574	351.437012
1754.338257	327.144531
1753.512695	314.974701
1752.687134	293.724701
1751.861328	330.005859
1751.035522	314.814636
1750.209473	338.973694
1749.383301	302.603790
1748.557007	302.552490
1747.730591	296.451202
1746.903931	308.498932
1746.077271	278.206787
1745.250366	287.230042
1744.423340	305.319092
1743.596313	302.244873
1742.768921	284.062012
1741.941528	244.735336
1741.114014	308.132996
1740.286255	314.121521
1739.458374	305.008575
1738.630493	320.053711
1737.802368	280.754211
1736.973999	295.798340
1736.145630	295.748169
1735.317139	301.732635
1734.488403	307.715088
1733.659546	325.760681
1732.830566	340.784363
1732.001465	316.604279
1731.172241	298.461945
1730.342896	322.525330
1729.513306	316.443115
1728.683594	301.323242
1727.853882	289.221191
1727.023926	331.343018
1726.193726	319.239990
1725.363525	337.252899
1724.533203	328.163605
1723.702637	334.128204
1722.871948	328.052155
1722.041138	315.959869
1721.210205	309.888947
1720.379150	282.763245
1719.547974	309.783691
1718.716553	312.738159
1717.885010	309.678436
1717.053467	333.674438
1716.221558	354.656708
1715.389648	327.550934
1714.557617	333.504364
1713.725342	333.447693
1712.893066	321.376923
1712.060547	357.358459
1711.227905	300.250183
1710.395142	321.213074
1709.562256	318.156982
1708.729126	309.099976
1707.895874	339.052032
1707.062622	305.994934
1706.229126	356.933380
1705.395508	341.878052
1704.561646	323.829376
1703.727783	329.770111
1702.893677	320.721832
1702.059570	311.676605
1701.225220	353.572906
1700.390747	347.521027
1699.556030	308.522217
1698.721313	341.413086
1697.886353	335.366302
1697.051392	311.358582
1696.216187	323.278870
1695.380859	335.195129
1694.545410	341.122681
1693.709717	323.113831
1692.874023	329.041412
1692.038086	355.902405
1691.202026	331.919678
1690.365845	337.842682
1689.529541	307.892670
1688.692993	295.885284
1687.856445	328.705414
1687.019653	352.551239
1686.182739	310.670197
1685.345703	340.484344
1684.508545	328.481567
1683.671143	328.425598
1682.833740	316.428925
1681.996094	322.344360
1681.158325	355.115234
1680.320435	346.103760
1679.482422	319.196472
1678.644287	354.933716
1677.805908	345.926849
1676.967407	381.647339
1676.128784	342.827850
1675.290039	357.672424
1674.451172	342.710968
1673.612183	357.550476
1672.772949	327.698730
1671.933594	333.600006
1671.094116	333.543121
1670.254517	318.598480
1669.414795	321.521179
1668.574829	312.536743
1667.734863	345.219788
1666.894653	345.160919
1666.054321	368.902191
1665.213867	339.094147
1664.373169	344.984314
1663.532471	368.713409
1662.691528	374.596466
1661.850464	309.138000
1661.009277	347.720886
1660.167969	291.203705
1659.326538	356.515106
1658.484863	371.306519
1657.643066	368.273193
1656.801147	299.913239
1655.959106	347.364960
1655.116943	356.210907
1654.274658	329.438843
1653.432129	326.415192
1652.589478	314.491821
1651.746704	367.833282
1650.903809	332.179779
1650.060791	361.776886
1649.217529	379.504364
1648.374146	382.403931
1647.530640	343.808350
1646.687012	314.116028
1645.843262	325.913788
1644.999390	361.406250
1644.155273	346.535309
1643.311035	358.321411
1642.466675	331.612732
1641.622192	373.000580
1640.777588	352.218109
1639.932739	346.239288
1639.087769	343.221313
1638.242798	360.912415
1637.397461	357.892944
1636.552124	357.831757
1635.706665	337.073090
1634.860962	328.146637
1634.015137	354.692444
1633.169189	310.302826
1632.323120	363.435425
1631.476929	351.556244
1630.630493	342.634857
1629.783936	345.529510
1628.937256	363.186829
1628.090454	380.838104
1627.243530	342.400482
1626.396484	318.732117
1625.549194	351.135468
1624.701782	421.880493
1623.854248	339.216461
1623.006592	336.209198
1622.158691	368.587341
1621.310791	368.524261
1620.462646	377.304260
1619.614380	356.609375
1618.765991	318.241455
1617.917358	332.917847
1617.068726	353.480560
1616.219849	365.200684
1615.370850	373.972137
1614.521729	368.019775
1613.672363	326.745605
1612.822998	344.348541
1611.973389	335.461609
1611.123657	353.057007
1610.273804	352.996521
1609.423828	352.936035
1608.573608	364.638092
1607.723389	376.336121
1606.872925	393.909363
1606.022339	379.146271
1605.171509	379.081299
1604.320679	358.449524
1603.469604	367.200928
1602.618408	425.880066
1601.767090	378.821442
1600.915649	402.245270
1600.064087	340.528839
1599.212280	375.691528
1598.360352	416.711334
1597.508301	401.969452
1596.656128	401.900513
1595.803833	398.898529
1594.951294	398.830109
1594.098633	398.761688
1593.245850	375.240753
1592.392944	381.038513
1591.539795	389.764832
1590.686646	377.977722
1589.833252	354.476410
1588.979736	377.847992
1588.126099	363.140411
1587.272217	377.718323
1586.418335	386.436157
1585.564209	386.369812
1584.709961	357.038086
1583.855591	342.346588
1583.000977	377.394257
1582.146362	418.279968
1581.291504	377.264679
1580.436523	339.187500
1579.581421	415.140991
1578.726074	385.839447
1577.870605	377.005615
1577.015137	365.252777
1576.159424	388.562195
1575.303467	359.285278
1574.447510	356.303040
1573.591309	373.761902
1572.734985	397.053802
1571.878540	376.552490
1571.021973	385.243317
1570.165161	373.505096
1569.308350	353.018341
1568.451294	370.459717
1567.594116	419.976593
1566.736694	396.576385
1565.879272	376.099701
1565.021606	390.610046
1564.163818	352.654419
1563.305908	393.389740
1562.447876	372.927643
1561.589600	387.428497
1560.731201	425.224304
1559.872681	422.239166
1559.014038	355.202209
1558.155273	372.607056
1557.296265	384.184937
1556.437134	346.288971
1555.577881	369.505310
1554.718506	395.622650
1553.859009	395.554565
1552.999268	398.394501
1552.139404	360.528595
1551.279419	383.722443
1550.419312	418.534271
1549.558960	383.590393
1548.698608	398.051788
1547.838013	363.123413
1546.977173	386.296814
1546.116333	362.998413
1545.255249	374.549866
1544.394165	389.000305
1543.532837	426.665649
1542.671265	452.710052
1541.809692	426.518707
1540.947876	382.930420
1540.085938	385.764954
1539.223877	374.098541
1538.361694	400.129517
1537.499268	429.050476
1536.636841	417.382599
1535.774170	420.208679
1534.911377	385.366364
1534.048340	405.578888
1533.185303	402.612518
1532.322021	440.191040
1531.458618	416.951202
1530.594971	425.564331
1529.731323	393.651520
1528.867432	468.827576
1528.003418	434.024780
1527.139282	483.130951
1526.275024	477.262634
1525.410522	439.584320
1524.545898	500.230072
1523.681152	433.650696
1522.816284	439.356903
1521.951172	511.531311
1521.086060	470.989960
1520.220703	444.907623
1519.355225	398.614655
1518.489502	412.985962
1517.623779	395.589600
1516.757813	418.617493
1515.891724	406.999176
1515.025513	418.473022
1514.159058	432.828400
1513.292480	421.213593
1512.425781	403.833740
1511.558960	372.039703
1510.692017	397.927277
1509.824829	432.454956
1508.957520	383.377197
1508.090088	360.254700
1507.222534	397.652496
1506.354736	374.535492
1505.486938	420.559540
1504.618896	432.007080
1503.750610	380.100555
1502.882324	414.583527
1502.013794	466.325897
1501.145142	388.537781
1500.276367	405.736023
1499.407471	408.542969
1498.538330	368.200470
1497.669067	425.658203
1496.799683	362.322083
1495.930176	399.635437
1495.060547	405.315521
1494.190674	393.749115
1493.320679	413.796143
1492.450562	373.501373
1491.580200	373.436829
1490.709717	353.267578
1489.839233	367.564484
1488.968384	399.083038
1488.097534	416.237640
1487.226440	407.555359
1486.355347	387.397583
1485.483887	433.236420
1484.612427	401.606659
1483.740845	410.141541
1482.869019	372.791443
1481.997070	421.468170
1481.124878	386.995636
1480.252686	415.590057
1479.380249	438.443268
1478.507690	409.715942
1477.635010	441.156189
1476.762207	375.204254
1475.889160	403.775909
1475.015991	406.569183
1474.142700	440.850800
1473.269165	417.877106
1472.395630	409.219727
1471.521851	406.287689
1470.647949	443.406219
1469.773804	411.867340
1468.899658	457.551147
1468.025269	437.457489
1467.150757	465.968750
1466.276001	488.753723
1465.401245	431.514771
1464.526245	440.011658
1463.651123	454.219055
1462.775879	445.571655
1461.900391	502.609131
1461.024780	485.390594
1460.149048	533.837097
1459.273193	536.598816
1458.397217	525.090820
1457.520996	505.026978
1456.644653	547.730896
1455.768188	487.738281
1454.891479	504.764374
1454.014648	530.338379
1453.137695	478.932251
1452.260620	495.950958
1451.383423	495.864960
1450.505981	501.477570
1449.628418	489.995331
1448.750732	472.820435
1447.872803	478.434082
1446.994873	509.671692
1446.116699	475.421234
1445.238403	478.185089
1444.359863	495.177216
1443.481201	452.410980
1442.602417	466.556763
1441.723511	511.985626
1440.844482	480.614197
1439.965210	474.844025
1439.085815	460.547180
1438.206299	454.782440
1437.326538	468.912964
1436.446777	471.672974
1435.566772	431.818329
1434.686646	474.349579
1433.806274	448.707916
1432.925781	445.790558
1432.045166	496.813995
1431.164429	499.566132
1430.283569	414.340851
1429.402466	422.781250
1428.521240	470.936188
1427.639893	439.653168
1426.758301	419.724945
1425.876709	402.639099
1424.994873	456.433990
1424.112793	422.340668
1423.230713	433.603302
1422.348389	393.858704
1421.465942	396.623260
1420.583374	410.716980
1419.700562	407.813538
1418.817627	424.731903
1417.934570	416.164917
1417.051392	424.584229
1416.167969	430.170532
1415.284546	421.606995
1414.400757	449.824524
1413.516968	415.803162
1412.633057	477.949066
1411.748901	463.727875
1410.864624	392.969269
1409.980103	429.647034
1409.095459	412.615479
1408.210815	423.846252
1407.325806	401.171326
1406.440796	491.490570
1405.555542	412.328369
1404.670166	384.019836
1403.784668	409.361664
1402.899048	381.063477
1402.013184	406.396942
1401.127197	457.116974
1400.241089	403.434235
1399.354736	417.467621
1398.468262	417.394928
1397.581665	431.420990
1396.694946	400.334045
1395.807983	422.814423
1394.920898	436.832153
1394.033691	414.213806
1393.146362	408.507080
1392.258789	411.252716
1391.371094	439.344147
1390.483276	439.267609
1389.595337	456.083008
1388.707153	416.595825
1387.818848	433.409302
1386.930420	410.822937
1386.041748	422.004791
1385.152954	393.802490
1384.264038	441.544373
1383.375000	455.526855
1382.485718	441.390442
1381.596313	441.313477
1380.706787	449.667786
1379.817139	427.109924
1378.927246	471.986511
1378.037231	438.196777
1377.147095	395.993378
1376.256714	438.043915
1375.366333	457.619904
1374.475586	415.435150
1373.584839	468.686279
1372.693970	418.096222
1371.802856	434.856415
1370.911499	465.635925
1370.020142	443.118317
1369.128540	417.804474
1368.236816	454.177917
1367.344971	442.886353
1366.453003	440.006439
1365.560791	428.721222
1364.668457	434.249603
1363.775879	436.974915
1362.883301	467.705566
1361.990479	476.024323
1361.097534	447.944672
1360.204346	447.866425
1359.311035	442.190857
1358.417603	472.893707
1357.524048	453.227203
1356.630249	447.553619
1355.736450	467.052460
1354.842285	464.174652
1353.948120	424.953125
1353.053711	469.602966
1352.159180	475.110443
1351.264526	455.467438
1350.369751	447.006470
1349.474731	427.375244
1348.579590	444.057404
1347.684204	416.056519
1346.788818	457.861359
1345.893188	452.198608
1344.997314	513.518494
1344.101440	454.830872
1343.205322	463.121002
1342.309082	490.933990
1341.412720	454.592285
1340.516113	518.646484
1339.619385	501.828156
1338.722534	482.228271
1337.825439	507.226532
1336.928223	512.710754
1336.030884	479.189209
1335.133423	526.458801
1334.235718	501.301605
1333.337891	492.860321
1332.439941	523.398438
1331.541870	523.306824
1330.643555	481.469330
1329.745117	514.775940
1328.846436	500.775391
1327.947754	517.377319
1327.048828	472.788940
1326.149780	458.803040
1325.250488	500.424774
1324.351074	450.303436
1323.451538	450.224548
1322.551880	486.268524
1321.651978	502.852478
1320.751953	455.543427
1319.851807	463.795288
1318.951416	435.946716
1318.050903	466.409027
1317.150269	463.551544
1316.249512	455.144531
1315.348511	443.965607
1314.447388	457.759308
1313.546021	452.131439
1312.644653	446.505554
1311.743042	432.563080
1310.841309	421.397858
1309.939331	440.727051
1309.037231	448.963928
1308.135010	437.801605
1307.232666	398.939117
1306.330078	470.887177
1305.427368	456.957428
1304.524536	443.032501
1303.621460	437.417877
1302.718262	445.645081
1301.814941	428.961945
1300.911499	475.925873
1300.007813	462.009735
1299.104004	425.970154
1298.199951	436.957642
1297.295898	464.531647
1296.391602	417.452209
1295.487061	409.086639
1294.582520	453.232666
1293.677734	458.679352
1292.772827	419.921844
1291.867676	419.848114
1290.962402	408.727722
1290.057007	461.118530
1289.151489	405.823486
1288.245728	419.553314
1287.339844	411.200439
1286.433838	469.072479
1285.527588	424.849854
1284.621216	444.083191
1283.714722	432.973999
1282.808105	377.751678
1281.901245	416.280914
1280.994263	424.476807
1280.087036	380.308472
1279.179810	432.593750
1278.272217	382.929718
1277.364624	391.125641
1276.456787	385.549042
1275.548828	443.303467
1274.640747	415.696014
1273.732544	404.613068
1272.824097	440.317749
1271.915405	349.440765
1271.006714	442.913940
1270.097778	379.573761
1269.188721	390.507202
1268.279541	406.935944
1267.370117	395.868042
1266.460571	398.546997
1265.550781	425.958069
1264.640991	417.640228
1263.730957	412.072449
1262.820679	422.986633
1261.910400	395.450348
1260.999878	392.635071
1260.089233	422.763367
1259.178345	397.986359
1258.267334	461.034088
1257.356201	400.590057
1256.444824	389.546387
1255.533447	430.619843
1254.621704	414.090118
1253.709961	408.533539
1252.797974	419.427032
1251.885864	446.761871
1250.973633	375.433105
1250.061157	394.546326
1249.148560	413.652802
1248.235840	388.929474
1247.322876	421.722473
1246.409790	388.792480
1245.496582	402.411438
1244.583130	424.236633
1243.669556	424.161865
1242.755859	383.046448
1241.841919	399.392334
1240.927856	429.407837
1240.013672	407.455353
1239.099365	388.244720
1238.184814	393.643555
1237.270142	385.374695
1236.355225	388.039429
1235.440186	385.238831
1234.525024	415.219696
1233.609741	382.371765
1232.694214	357.727631
1231.778564	374.046112
1230.862671	382.169495
1229.946777	403.936493
1229.030640	379.305878
1228.114258	381.967285
1227.197876	395.539185
1226.281128	409.106293
1225.364380	444.483734
1224.447388	392.603455
1223.530273	406.163818
1222.613037	414.268494
1221.695557	403.295502
1220.777954	381.428406
1219.860229	397.705139
1218.942261	438.487823
1218.024170	370.334259
1217.105957	392.049408
1216.187500	397.424347
1215.268921	457.229462
1214.350220	400.005127
1213.431274	389.051910
1212.512207	405.304169
1211.593018	367.157043
1210.673706	410.599396
1209.754150	399.652008
1208.834351	353.371307
1207.914551	404.946320
1206.994507	426.613007
1206.074219	391.219208
1205.153931	431.894897
1204.233398	385.649292
1203.312744	396.442566
1202.391846	418.091522
1201.470825	407.160034
1200.549683	352.809631
1199.628296	436.863922
1198.706787	379.814514
1197.785156	463.834290
1196.863281	406.800232
1195.941284	398.593719
1195.019165	382.256989
1194.096802	376.768250
1193.174438	409.222595
1192.251709	401.021423
1191.328979	400.950470
1190.406006	365.667145
1189.482788	400.808624
1188.559570	406.153076
1187.636108	414.202820
1186.712402	389.768982
1185.788696	378.875000
1184.864746	381.513702
1183.940552	389.562042
1183.016357	392.197906
1182.091919	392.128479
1181.167236	389.355194
1180.242554	421.726807
1179.317505	383.811554
1178.392456	399.958099
1177.467163	383.675629
1176.541748	405.219391
1175.616211	413.250580
1174.690430	364.568268
1173.764526	396.904022
1172.838501	386.035522
1171.912231	402.161560
1170.985840	429.076233
1170.059204	437.094543
1169.132446	439.714722
1168.205566	418.059540
1167.278564	444.952240
1166.351318	466.443024
1165.423828	412.445862
1164.496338	447.410950
1163.568604	436.552551
1162.640747	436.475159
1161.712646	428.316345
1160.784424	444.400421
1159.856079	447.014465
1158.927490	414.626617
1157.998779	411.861176
1157.069946	454.850952
1156.140869	449.388367
1155.211670	465.451508
1154.282349	433.088989
1153.352783	451.838776
1152.423096	422.179169
1151.493164	405.972900
1150.563232	456.974487
1149.632935	456.893372
1148.702637	454.125183
1147.772095	435.237976
1146.841431	410.985138
1145.910522	445.826294
1144.979492	445.747162
1144.048340	426.874786
1143.116943	421.430450
1142.185425	461.612549
1141.253784	407.864227
1140.321899	458.765778
1139.389893	407.719360
1138.457764	399.601288
1137.525391	404.893127
1136.592896	415.544952
1135.660278	399.388367
1134.727417	423.437286
1133.794434	396.566986
1132.861206	393.817474
1131.927856	399.104614
1130.994385	417.780243
1130.060669	385.574768
1129.126831	393.537598
1128.192871	380.084412
1127.258667	406.778595
1126.324341	369.246490
1125.389893	401.283508
1124.455200	379.814178
1123.520386	398.466553
1122.585327	382.352936
1121.650146	395.651550
1120.714844	366.179871
1119.779297	358.097626
1118.843628	390.096680
1117.907837	419.412903
1116.971802	387.286957
1116.035645	389.888519
1115.099365	384.479156
1114.162842	379.071716
1113.226196	376.335205
1112.289307	386.942505
1111.352417	397.546021
1110.415161	389.472412
1109.477905	381.401642
1108.540405	421.333801
1107.602661	383.932068
1106.664917	399.858032
1105.726807	402.452087
1104.788696	381.062256
1103.850342	386.322998
1102.911865	396.909485
1101.973145	436.789001
1101.034302	412.745361
1100.095337	367.411041
1099.156128	370.007538
1098.216797	383.248871
1097.277344	351.248871
1096.337646	383.112305
1095.397827	377.723999
1094.457764	406.911774
1093.517700	404.180176
1092.577271	382.839294
1091.636841	372.138519
1090.696167	356.126251
1089.755249	385.291779
1088.814209	409.133514
1087.873047	339.998383
1086.931763	377.118469
1085.990234	403.604126
1085.048584	376.983978
1084.106689	384.879761
1083.164673	376.849518
1082.222412	384.742493
1081.280151	411.203094
1080.337524	392.562592
1079.394897	376.580688
1078.452026	381.816528
1077.509033	397.654572
1076.565796	405.535278
1075.622437	373.661896
1074.678955	392.142487
1073.735229	368.230255
1072.791382	397.299866
1071.847290	383.987976
1070.903076	365.385376
1069.958740	394.439880
1069.014160	386.429138
1068.069458	399.591644
1067.124512	394.228638
1066.179565	378.286072
1065.234253	391.442932
1064.288940	370.217743
1063.343384	388.659180
1062.397583	378.015900
1061.451660	409.664307
1060.505615	380.523346
1059.559448	388.381531
1058.613037	393.595276
1057.666382	404.089386
1056.719727	361.766998
1055.772827	377.543335
1054.825684	398.593384
1053.878418	358.933838
1052.931030	374.702148
1051.983398	395.741394
1051.035645	400.946228
1050.087769	366.589233
1049.139648	377.071136
1048.191406	403.367584
1047.242920	382.208099
1046.294312	413.765106
1045.345581	384.706390
1044.396606	442.596649
1043.447510	384.568756
1042.498291	431.904053
1041.548828	394.963531
1040.599121	421.219055
1039.649414	418.511536
1038.699341	394.751556
1037.749268	392.049683
1036.798950	431.440552
1035.848511	433.993591
1034.897827	404.988190
1033.947021	381.251770
1032.996094	402.214325
1032.044922	396.885559
1031.093506	373.163300
1030.142090	420.390411
1029.190430	433.449982
1028.238525	393.974854
1027.286499	399.156342
1026.334351	412.212646
1025.381958	380.637756
1024.429443	391.068024
1023.476807	380.501373
1022.523926	404.046295
1021.570923	372.495422
1020.617737	401.278778
1019.664368	398.584595
1018.710815	374.916992
1017.757080	353.879181
1016.803223	435.062317
1015.849121	408.780457
1014.894897	398.227509
1013.940491	424.350586
1012.985962	387.608826
1012.031189	413.724396
1011.076294	392.705902
1010.121216	408.340881
1009.165955	434.438660
1008.210510	392.494629
1007.254944	395.040405
1006.299133	418.510773
1005.343201	405.359558
1004.387085	405.286835
1003.430786	394.756989
1002.474365	407.755219
1001.517700	399.842010
1000.560913	381.480103
999.603943	397.086090
998.646790	449.253632
997.689514	370.828857
996.731995	407.316315
995.774353	399.411591
994.816528	391.509674
993.858521	420.144928
992.900330	388.759979
991.942017	412.168091
990.983459	388.620361
990.024780	378.119659
989.065918	406.731537
988.106873	411.872040
987.147705	367.490662
986.188293	427.359161
985.228760	380.385529
984.269043	419.390869
983.309143	419.315491
982.349060	369.764587
981.388794	406.147247
980.428406	403.471222
979.467834	426.821838
978.507019	437.153534
977.546082	426.668396
976.585022	405.782349
975.623718	410.910797
974.662292	457.641113
973.700623	439.360443
972.738831	486.068787
971.776855	478.184875
970.814758	428.729980
969.852417	436.446533
968.889954	462.342316
967.927246	438.886475
966.964417	446.597015
966.001404	417.960358
965.038208	397.120667
964.074890	378.883545
963.111328	389.193878
962.147644	404.688782
961.183777	435.740234
960.219727	433.068573
959.255493	396.691986
958.291077	401.805145
957.326538	427.651062
956.361755	419.799988
955.396851	411.951721
954.431763	422.239227
953.466492	398.853546
952.501038	427.266144
951.535461	424.600128
950.569641	429.700775
949.603699	380.449615
948.637573	393.319183
947.671265	398.422638
946.704773	395.764160
945.738098	390.520386
944.771240	429.236420
943.804260	408.476715
942.837097	418.742401
941.869751	392.823273
940.902222	405.671967
939.934509	418.515991
938.966614	395.193817
937.998535	420.947571
937.030334	436.363892
936.061951	410.469513
935.093323	392.327759
934.124573	399.998901
933.155640	412.827606
932.186584	407.593719
931.217285	433.312622
930.247864	379.080139
929.278198	420.264709
928.308411	394.410431
927.338440	409.803558
926.368286	391.691193
925.397949	448.302399
924.427429	427.613586
923.456787	437.838501
922.485901	378.533173
921.514893	427.382080
920.543701	411.860138
919.572327	427.227753
918.600769	391.125854
917.629028	391.055237
916.657104	421.851807
915.685059	406.344818
914.712769	416.556763
913.740356	439.619385
912.767761	449.821594
911.794983	411.191162
910.822021	393.130524
909.848877	423.887665
908.875549	428.948181
907.902039	408.325958
906.928406	428.793152
905.954590	410.745544
904.980530	408.104584
904.006348	420.861969
903.031982	420.785889
902.057434	436.101654
901.082703	402.679871
900.107849	392.349548
899.132751	438.429047
898.157532	435.786285
897.182068	428.018524
896.206482	402.315887
895.230713	381.746643
894.254761	453.402252
893.278625	409.780975
892.302307	432.752869
891.325806	407.072510
890.349182	399.319641
889.372314	452.992218
888.395325	442.674957
887.418091	447.711548
886.440735	429.725281
885.463196	429.647491
884.485474	429.569733
883.507568	419.265961
882.529480	429.414185
881.551270	429.336426
880.572815	467.585358
879.594238	413.853058
878.615417	444.428345
877.636475	439.240387
876.657349	408.521698
875.677979	472.267670
874.698486	423.687714
873.718811	461.889069
872.739014	423.534210
871.758972	428.559357
870.778748	464.188507
869.798401	451.354248
868.817810	469.119385
867.837097	410.405060
866.856140	433.268402
865.875061	476.508850
864.893799	438.206757
863.912354	435.580048
862.930725	430.407501
861.948914	443.061096
860.966919	442.980743
859.984741	470.899841
859.002441	419.915588
858.019897	430.017334
857.037231	447.747467
856.054321	460.384033
855.071289	432.326447
854.088074	475.472809
853.104614	488.097382
852.121033	470.216827
851.137268	508.250275
850.153320	452.260651
849.169189	480.122162
848.184937	439.397125
847.200439	477.408478
846.215759	446.854431
845.230896	479.773621
844.245911	487.300568
843.260681	451.686188
842.275330	456.678375
841.289795	512.401550
840.304016	519.917053
839.318115	524.894043
838.332031	484.234528
837.345764	476.542175
836.359314	481.524261
835.372681	458.631866
834.385864	486.416107
833.398865	481.261810
832.411743	486.239349
831.424377	483.618927
830.436829	483.531036
829.449158	480.912018
828.461243	490.947235
827.473206	490.857971
826.484924	511.006622
825.496521	531.147888
824.507935	503.234344
823.519104	439.933929
822.530151	457.549194
821.541016	497.904938
820.551697	490.233459
819.562195	482.564728
818.572510	479.950867
817.582642	424.300415
816.592590	527.753845
815.602356	472.114899
814.611938	492.222748
813.621399	464.371826
812.630615	570.265930
811.639648	552.502258
810.648560	585.192627
809.657227	587.608032
808.665771	607.672729
807.674072	564.705017
806.682251	582.246033
805.690186	524.178040
804.697998	466.131134
803.705566	516.429626
802.713013	470.998749
801.720276	493.577240
800.727356	455.720428
799.734253	533.674744
798.740906	463.105011
797.747437	480.635559
796.753784	530.867126
795.759949	427.634918
794.765930	460.252533
793.771729	477.770721
792.777344	495.282501
791.782776	470.055573
790.788025	449.864197
789.793091	472.396942
788.798035	437.138733
787.802734	479.760193
786.807251	492.229584
785.811584	444.432373
784.815796	492.050049
783.819763	439.250275
782.823547	486.851501
781.827148	466.690002
780.830627	423.958160
779.833862	469.027893
778.836975	491.511719
777.839844	441.276947
776.842529	483.811981
775.845093	461.166595
774.847412	431.011841
773.849609	468.514557
772.851563	495.983673
771.853394	480.866058
770.854980	440.713440
769.856445	413.093384
768.857666	493.118439
767.858765	513.049805
766.859680	477.924988
765.860352	530.374817
764.860901	487.755676
763.861206	527.680237
762.861389	465.073914
761.861389	489.988342
760.861145	462.404510
759.860779	494.807373
758.860168	469.731262
757.859436	464.649200
756.858521	444.583008
755.857361	494.445770
754.856079	461.897705
753.854614	436.850403
752.852905	459.233032
751.851074	461.644440
750.848999	501.478729
749.846802	543.792908
748.844421	521.247437
747.841797	533.619812
746.839050	511.084381
745.836121	558.351013
744.832947	453.577240
743.829651	468.444611
742.826111	470.850189
741.822449	480.727295
740.818604	480.639343
739.814514	490.511017
738.810303	480.463440
737.805847	490.331482
736.801270	487.753204
735.796448	465.271210
734.791504	490.062286
733.786316	482.511047
732.781006	502.316437
731.775452	472.389343
730.769775	499.646698
729.763855	509.496582
728.757751	516.857971
727.751526	484.465607
726.745056	486.860840
725.738403	484.288147
724.731628	476.750183
723.724609	528.797852
722.717407	511.325806
721.710083	501.305267
720.702515	501.213409
719.694763	520.967957
718.686829	525.833191
717.678711	515.817261
716.670410	458.695648
715.661987	528.023071
714.653320	498.183929
713.644470	503.048737
712.635437	517.822205
711.626221	470.661133
710.616821	465.621399
709.607178	505.156097
708.597412	505.063446
707.587463	495.069427
706.577332	485.079041
705.567017	477.566711
704.556458	472.531128
703.545776	507.073883
702.534912	477.303894
701.523804	469.798431
700.512573	521.627808
699.501099	516.588623
698.489502	521.436340
697.477661	526.282227
696.465698	484.189575
695.453491	491.510376
694.441101	456.847870
693.428589	449.356995
692.415833	538.141968
691.402893	493.617554
690.389771	508.332703
689.376465	473.698792
688.362976	505.679260
687.349304	458.727142
686.335449	512.890930
685.321411	525.123535
684.307190	557.070984
683.292725	532.323975
682.278137	542.082214
681.263367	554.300354
680.248352	573.903320
679.233215	556.559265
678.217834	536.759338
677.202332	551.431152
676.186584	539.023315
675.170654	511.854950
674.154541	511.760834
673.138306	504.286926
672.121826	494.356232
671.105164	536.068848
670.088318	513.843018
669.071289	511.290375
668.054016	508.738647
667.036621	518.473938
666.019043	515.921814
665.001282	488.807343
663.983276	513.276062
662.965149	520.547852
661.946777	459.077972
660.928223	476.175049
659.909546	495.719879
658.890625	510.350281
657.871521	539.694153
656.852234	515.067749
655.832764	527.234192
654.813110	519.781738
653.793274	485.367096
652.773254	536.746582
651.752991	487.638794
650.732605	521.848877
649.711975	509.505035
648.691223	499.614807
647.670227	536.252380
646.649048	560.635437
645.627747	523.816101
644.606201	526.166809
643.584473	496.707825
642.562561	533.312073
641.540466	538.105652
640.518127	547.788391
639.495667	530.572144
638.473022	564.698486
637.450134	567.038513
636.427063	498.510895
635.403870	517.964783
634.380432	544.739868
633.356812	544.639404
632.333008	522.562012
631.309021	502.934204
630.284851	527.251221
629.260498	532.034973
628.235901	534.376892
627.211182	578.191589
626.186218	565.889038
625.161133	514.571289
624.135803	536.420837
623.110291	516.819214
622.084595	536.222839
621.058716	511.754578
620.032654	506.787140
619.006409	518.873718
617.979919	562.618286
616.953308	521.117249
615.926453	528.325012
614.899414	523.359009
613.872253	550.033936
612.844849	540.198975
611.817261	559.562256
610.789490	593.512878
609.761475	498.556000
608.733337	496.032349
607.705017	505.665009
606.676453	517.724731
605.647705	556.511963
604.618774	563.698364
603.589722	532.013428
602.560425	539.201599
601.530884	531.816772
600.501221	555.997803
599.471375	568.032471
598.441284	575.208557
597.411011	572.675598
596.380615	531.325256
595.349976	548.206848
594.319153	552.955933
593.288147	555.278442
592.256897	501.840057
591.225525	564.768616
590.193970	586.475159
589.162170	547.598633
588.130188	571.722839
587.098022	552.240173
586.065674	544.872986
585.033142	520.560059
584.000427	544.671326
582.967468	583.295471
581.934387	544.469666
580.901062	566.143616
579.867554	602.323303
578.833862	544.167297
577.799988	568.247253
576.765930	536.712891
575.731628	531.779114
574.697205	565.514832
573.662537	546.079834
572.627747	558.057800
571.592712	553.123657
570.557434	572.340698
569.522034	531.188232
568.486450	540.745972
567.450623	535.818604
566.414673	533.306152
565.378479	550.096191
564.342102	559.643250
563.305542	552.304077
562.268799	612.485718
561.231812	581.030273
560.194702	597.795776
559.157349	641.065308
558.119812	571.068787
557.082092	599.872375
556.044189	640.708679
555.006042	575.567566
553.967773	585.091919
552.929260	560.909973
551.890625	582.467896
550.851746	563.108276
549.812683	553.379761
548.773376	529.221558
547.733948	589.250977
546.694275	591.546265
545.654419	557.777466
544.614441	531.232483
543.574158	581.603638
542.533752	583.898499
541.493164	574.180359
540.452332	581.279724
539.411316	617.194763
538.370178	571.459473
537.328735	576.154602
536.287170	559.246216
535.245422	604.737610
534.203430	590.229431
533.161255	604.512878
532.118896	599.603760
531.076355	577.910583
530.033630	551.430420
528.990723	544.136719
527.947571	568.001892
526.904236	599.046753
525.860718	603.726868
524.817017	632.358215
523.773132	584.343628
522.729004	603.390198
521.684692	608.065918
520.640198	586.411194
519.595520	593.481384
518.550659	602.941467
517.505615	607.613708
516.460327	617.067627
515.414856	583.474731
514.369202	621.619690
513.323364	528.278442
512.277283	630.948242
511.231079	621.272766
510.184631	559.041443
509.138000	551.771484
508.091187	544.504272
507.044159	553.953857
505.996948	553.850708
504.949554	580.002869
503.901947	596.599670
502.854126	579.786926
501.806152	565.365906
500.757965	624.887207
499.709564	605.693848
