#Wave		#Intensity
3200.600830	33.678818
3200.007080	16.839409
3199.413086	-4.209216
3198.819092	21.042900
3198.224854	-8.415888
3197.630615	4.207308
3197.036377	25.240030
3196.442139	42.060356
3195.847656	25.232399
3195.252930	-4.204764
3194.658447	16.816513
3194.063721	42.034927
3193.468750	25.217144
3192.873779	12.606665
3192.278809	42.015862
3191.683838	46.210461
3191.088623	8.400631
3190.493164	8.399361
3189.897949	20.995226
3189.302490	20.992050
3188.706787	8.395550
3188.111328	41.971401
3187.515381	12.589515
3186.919678	16.783482
3186.323730	8.390471
3185.727783	33.556805
3185.131592	0.000000
3184.535400	8.386662
3183.939209	25.156181
3183.342773	-20.960312
3182.746338	37.722851
3182.149902	37.717144
3181.553223	20.950798
3180.956543	4.189525
3180.359619	25.133347
3179.762695	0.000000
3179.165771	12.562869
3178.568604	16.747957
3177.971436	37.677197
3177.374268	29.300051
3176.776855	12.555264
3176.179443	12.553363
3175.581787	4.183821
3174.984131	37.648682
3174.386475	20.912767
3173.788574	33.455360
3173.190674	12.543860
3172.592773	25.083921
3171.994629	16.720081
3171.396484	33.435097
3170.798340	25.072525
3170.199951	33.424969
3169.601563	37.597393
3169.002930	37.591698
3168.404297	33.409782
3167.805664	16.702360
3167.206787	37.574615
3166.607910	45.917572
3166.008789	20.868460
3165.409912	0.000000
3164.810547	8.344854
3164.211426	12.515385
3163.612061	33.369301
3163.012695	12.511591
3162.413086	29.189287
3161.813477	12.507798
3161.213623	0.000000
3160.614014	58.352032
3160.013916	0.000000
3159.414063	25.000431
3158.813965	33.328854
3158.213867	41.654751
3157.613525	8.329687
3157.013184	33.313694
3156.412598	16.654322
3155.812256	-24.977694
3155.211426	0.000000
3154.610840	37.455177
3154.010010	24.966331
3153.409180	45.764664
3152.808105	33.278343
3152.207031	0.000000
3151.605957	4.158531
3151.004639	4.157900
3150.403320	33.258156
3149.801758	54.036301
3149.200195	4.156008
3148.598633	4.155377
3147.996826	24.928480
3147.395020	24.924696
3146.793213	-12.460457
3146.191162	37.375698
3145.589111	41.522251
3144.986816	16.606379
3144.384766	-4.150965
3143.782227	12.451004
3143.179932	8.299409
3142.577393	4.149075
3141.974609	12.445333
3141.371826	33.182518
3140.769043	12.441555
3140.166260	4.146555
3139.563232	29.021481
3138.960205	33.162369
3138.356934	0.000000
3137.753662	16.576149
3137.150391	-12.430223
3136.546875	-4.142778
3135.943359	37.279343
3135.339600	16.566080
3134.735840	8.281782
3134.132080	-8.280524
3133.528076	16.558531
3132.924072	24.834024
3132.320068	8.276751
3131.715820	12.413239
3131.111572	24.822706
3130.507080	28.955423
3129.902588	49.630325
3129.298096	37.217087
3128.693604	24.807621
3128.088867	20.669876
3127.483887	12.400040
3126.878906	20.663591
3126.273926	16.528360
3125.668945	28.920235
3125.063721	8.261668
3124.458252	28.911442
3123.853027	41.295780
3123.247559	8.257900
3122.641846	20.641613
3122.036133	41.276947
3121.430420	24.762402
3120.824707	24.758636
3120.218750	37.132309
3119.612549	20.625921
3119.006592	24.747341
3118.400391	32.991436
3117.793945	20.616512
3117.187500	24.736052
3116.581055	-8.244096
3115.974609	49.457050
3115.367920	53.570320
3114.760986	32.961334
3114.154297	49.434483
3113.547363	45.308044
3112.940186	28.828005
3112.333008	32.941280
3111.725830	37.053299
3111.118408	-12.349220
3110.510986	45.273582
3109.903564	20.575769
3109.295898	8.229054
3108.688232	12.341703
3108.080566	32.906200
3107.472656	8.225297
3106.864746	32.896179
3106.256592	0.000000
3105.648438	32.886166
3105.040039	57.542027
3104.431885	20.547594
3103.823486	16.435572
3103.214844	16.433069
3102.606201	32.861134
3101.997559	24.642096
3101.388672	36.957516
3100.779785	36.951885
3100.170898	36.946259
3099.561768	36.940628
3098.952637	16.415556
3098.343262	24.619583
3097.733887	8.205277
3097.124512	8.204027
3096.514893	32.811111
3095.905273	-4.100764
3095.295410	20.500694
3094.685791	24.597086
3094.075684	36.890007
3093.465820	28.687853
3092.855713	49.171684
3092.245361	45.067173
3091.635254	4.096391
3091.024658	16.383068
3090.414307	40.951424
3089.803711	40.945183
3089.193115	28.657257
3088.582275	12.279809
3087.971436	32.741165
3087.360596	28.644152
3086.749512	24.548386
3086.138428	8.181548
3085.527100	28.631050
3084.915771	44.984791
3084.304443	49.066830
3083.692871	36.794510
3083.081299	36.788898
3082.469482	12.261096
3081.857910	-4.086409
3081.245850	24.514711
3080.634033	0.000000
3080.021973	12.253615
3079.409668	40.839153
3078.797607	12.249877
3078.185059	-8.165339
3077.572754	-8.164093
3076.960205	36.732811
3076.347656	57.131207
3075.734863	40.801777
3075.122070	28.556885
3074.509033	44.868256
3073.895996	20.391548
3073.282959	16.310749
3072.669922	28.539454
3072.056641	40.764423
3071.443115	52.985661
3070.829834	44.827175
3070.216064	8.149151
3069.602539	24.443722
3068.988770	32.586651
3068.375000	28.508966
3067.760986	0.000000
3067.146973	40.714657
3066.532715	28.495907
3065.918701	0.000000
3065.304199	24.417603
3064.689941	44.758766
3064.075439	24.410143
3063.460693	48.812828
3062.846191	16.268457
3062.231445	48.797916
3061.616455	36.592846
3061.001465	12.195751
3060.386475	16.258516
3059.771240	56.896114
3059.156006	12.190162
3058.540771	20.313831
3057.925293	60.932178
3057.309814	32.492195
3056.694092	20.304518
3056.078369	20.301414
3055.462646	20.298311
3054.846680	32.472332
3054.230713	40.584213
3053.614502	32.462406
3052.998291	56.800526
3052.382080	32.452480
3051.765625	32.447517
3051.149170	52.719154
3050.532715	16.218798
3049.916016	36.486713
3049.299316	36.481136
3048.682373	28.369877
3048.065430	24.313318
3047.448486	20.257999
3046.831299	36.458820
3046.214111	16.201441
3045.596680	0.000000
3044.979248	36.442089
3044.361816	52.630524
3043.744141	32.383057
3043.126465	24.283577
3042.508545	24.279861
3041.890869	36.414219
3041.272705	44.499458
3040.654785	36.403076
3040.036621	44.485840
3039.418213	64.696770
3038.799805	44.472221
3038.181396	24.253862
3037.562988	36.375225
3036.944336	56.575020
3036.325439	20.202272
3035.706543	40.398357
3035.087646	28.274521
3034.468750	20.192993
3033.849609	36.341824
3033.230469	36.336258
3032.611084	52.477669
3031.991699	-4.036126
3031.372070	12.106523
3030.752441	60.523342
3030.132813	40.342716
3029.513184	12.100961
3028.893066	36.297321
3028.273193	28.226925
3027.653076	28.222601
3027.032959	8.062365
3026.412598	0.000000
3025.792480	20.149736
3025.171875	24.175978
3024.551270	16.114849
3023.930664	40.280949
3023.310059	20.137388
3022.689209	12.080582
3022.068115	32.209946
3021.447266	16.102505
3020.826172	16.100037
3020.204834	40.243923
3019.583496	20.118876
3018.962158	4.023159
3018.340576	48.270500
3017.718994	36.197323
3017.097412	36.191776
3016.475586	20.103458
3015.853760	36.180676
3015.231689	16.077835
3014.609619	60.282635
3013.987549	-8.036452
3013.365234	28.123268
3012.742920	16.067974
3012.120361	12.049132
3011.497803	16.063046
3010.875244	36.136307
3010.252441	16.058117
3009.629639	60.208702
3009.006836	36.119678
3008.383789	24.076092
3007.760498	48.144794
3007.137451	12.034352
3006.514160	56.151691
3005.890625	48.122635
3005.267090	32.076832
3004.643555	12.026966
3004.019775	36.075363
3003.395996	16.031033
3002.772217	24.042858
3002.148193	44.071808
3001.524170	28.041389
3000.899902	36.047680
3000.275635	24.028097
2999.651367	44.044750
2999.026855	28.024174
2998.402344	32.022709
2997.777588	32.017792
2997.152832	36.014484
2996.528076	56.013927
2995.903076	4.000381
2995.278076	47.997192
2994.653076	31.993214
2994.027832	47.982449
2993.402344	51.973000
2992.777100	31.978472
2992.151367	39.966949
2991.525879	55.945133
2990.900146	31.963736
2990.274414	59.922794
2989.648438	27.959675
2989.022461	55.910755
2988.396240	51.909153
2987.770264	3.992398
2987.143799	59.876766
2986.517578	43.902882
2985.891113	67.839478
2985.264404	39.899441
2984.637695	51.861301
2984.010986	31.909740
2983.384033	23.928627
2982.757080	39.874912
2982.130127	31.895025
2981.502930	35.876385
2980.875732	27.899567
2980.248291	0.000000
2979.620850	35.859840
2978.993408	43.821953
2978.365723	43.815212
2977.738037	7.965177
2977.110107	51.765686
2976.482178	55.739090
2975.854248	27.865257
2975.226074	43.781525
2974.597900	79.590530
2973.969482	23.873486
2973.341309	67.631134
2972.712646	43.754589
2972.083984	31.816622
2971.455322	31.811728
2970.826660	43.734394
2970.197754	59.628632
2969.568604	39.746304
2968.939697	43.714203
2968.310547	51.654289
2967.681152	55.619133
2967.051758	23.833103
2966.422363	47.658867
2965.792725	39.709610
2965.163086	35.733147
2964.533203	39.697384
2963.903564	55.567780
2963.273438	63.496254
2962.643311	55.550667
2962.013184	67.443993
2961.383057	43.633511
2960.752686	75.355362
2960.122314	55.516453
2959.491699	35.683651
2958.861084	87.213272
2958.230225	63.418064
2957.599609	75.297348
2956.968506	63.398525
2956.337646	55.465164
2955.706299	35.650684
2955.075195	75.250954
2954.443848	95.039192
2953.812500	71.268410
2953.180908	71.257431
2952.549316	75.204582
2951.917725	67.277939
2951.285889	55.396824
2950.653809	63.300900
2950.021973	67.246834
2949.389893	83.056816
2948.757568	47.453724
2948.125244	67.215744
2947.492920	86.971672
2946.860352	55.337074
2946.227783	86.944855
2945.595215	82.980019
2944.962402	71.114761
2944.329590	110.605904
2943.696533	78.992035
2943.063477	110.571793
2942.430420	86.864433
2941.797119	94.746582
2941.163574	114.467796
2940.530273	126.289810
2939.896729	118.378433
2939.262939	122.305511
2938.629150	157.789215
2937.995361	157.764877
2937.361328	141.966476
2936.727295	118.287140
2936.093262	141.922668
2935.458984	145.842453
2934.824707	165.525345
2934.190186	145.797440
2933.555664	157.594528
2932.921143	181.205734
2932.286377	169.361816
2931.651367	161.459595
2931.016602	141.747528
2930.381592	165.346573
2929.746338	161.384842
2929.111084	184.973572
2928.475830	208.555008
2927.840332	129.834946
2927.204834	161.285187
2926.569336	153.393921
2925.933594	204.493637
2925.297607	216.257950
2924.661865	188.705063
2924.025879	204.398911
2923.389648	172.926208
2922.753418	216.124374
2922.117188	157.157074
2921.480713	216.057602
2920.844238	208.168793
2920.207764	200.282410
2919.571045	208.104462
2918.934082	231.627670
2918.297363	145.235580
2917.660156	215.857376
2917.023193	180.507355
2916.385986	192.249863
2915.748779	203.988724
2915.111328	192.190430
2914.473877	215.690613
2913.836182	168.604767
2913.198486	227.385239
2912.560791	160.712982
2911.922852	184.203476
2911.284912	203.768082
2910.646729	203.736572
2910.008545	219.374695
2909.370361	215.423965
2908.731934	274.133575
2908.093506	262.344391
2907.455078	254.473862
2906.816406	230.948242
2906.177490	250.481384
2905.538574	238.703140
2904.899658	246.491333
2904.260498	273.836884
2903.621338	293.351288
2902.982178	297.216644
2902.342773	258.069244
2901.703369	258.029327
2901.063721	238.444733
2900.424072	293.124390
2899.784424	226.647781
2899.144531	273.498108
2898.504639	304.707855
2897.864502	265.601624
2897.224365	335.855957
2896.583984	312.375763
2895.943848	281.094666
2895.303223	308.375580
2894.662842	277.104767
2894.021973	355.107452
2893.381348	327.740753
2892.740479	354.997498
2892.099609	296.435516
2891.458496	284.690033
2890.817383	323.638519
2890.176025	315.791107
2889.534668	370.314911
2888.893311	350.770325
2888.251709	374.097046
2887.610107	385.727814
2886.968262	370.085510
2886.326416	342.762939
2885.684570	416.704010
2885.042480	346.550568
2884.400391	408.788452
2883.758057	404.832489
2883.115723	439.797913
2882.473389	466.969635
2881.830811	505.805389
2881.188232	505.726990
2880.545410	606.778320
2879.902588	668.908325
2879.259766	668.804626
2878.616699	707.578918
2877.973633	754.115540
2877.330322	625.741150
2876.687012	637.302063
2876.043457	606.120178
2875.399902	536.100098
2874.756348	504.943542
2874.112549	500.981659
2873.468750	477.606110
2872.824707	427.061157
2872.180664	399.822540
2871.536621	411.404022
2870.892334	372.534546
2870.248047	387.996613
2869.603760	399.574524
2868.958984	383.997467
2868.314453	345.156311
2867.669678	368.368103
2867.024902	379.941803
2866.379883	337.242950
2865.734863	356.569397
2865.089844	356.514069
2864.444580	379.706024
2863.799316	325.411804
2863.153809	325.361298
2862.508301	371.783783
2861.862549	410.447540
2861.216797	391.026093
2860.571045	359.997833
2859.925049	359.941956
2859.279053	441.150665
2858.632813	379.175903
2857.986572	363.642853
2857.340332	421.605499
2856.693848	421.540039
2856.047363	433.074799
2855.400635	433.007538
2854.753906	440.671356
2854.107178	452.197723
2853.460205	483.042175
2852.813232	467.512207
2852.166016	494.481537
2851.518799	467.366974
2850.871338	532.947266
2850.223877	490.389771
2849.576416	528.920959
2848.928711	559.719849
2848.281006	571.211487
2847.633301	586.558472
2846.985352	571.033997
2846.337158	675.104187
2845.688965	671.142090
2845.040771	674.894348
2844.392578	663.221619
2843.743896	620.709778
2843.095459	647.596436
2842.446777	581.975403
2841.798096	647.395142
2841.149170	550.970886
2840.500244	550.885193
2839.851074	600.872253
2839.202148	454.435272
2838.552734	531.375549
2837.903320	419.644379
2837.253906	415.729767
2836.604492	377.177612
2835.954834	342.485565
2835.304932	315.499420
2834.655029	296.215576
2834.005127	261.552277
2833.354980	211.516724
2832.704834	211.483810
2832.054688	157.627045
2831.404297	184.510254
2830.753906	149.891251
2830.103271	153.710693
2829.452637	176.739792
2828.801758	115.247147
2828.150879	111.388237
2827.500000	145.934280
2826.848877	103.674011
2826.197754	92.140327
2825.546387	107.480316
2824.895020	92.111641
2824.243408	92.097305
2823.591797	84.409386
2822.940186	80.560051
2822.288330	92.054291
2821.636475	88.204956
2820.984619	92.025620
2820.332520	126.515526
2819.680176	80.497345
2819.028076	72.819588
2818.375488	61.312202
2817.723145	53.639820
2817.070557	84.278015
2816.417725	91.925331
2815.764893	80.422134
2815.112061	72.751549
2814.458984	84.225510
2813.805908	26.794851
2813.152832	45.926872
2812.499512	80.359505
2811.845947	80.346977
2811.192383	107.112610
2810.538818	76.497078
2809.885010	57.363869
2809.231201	65.002251
2808.577393	45.876789
2807.923340	61.159519
2807.269287	53.506233
2806.614990	53.497894
2805.960693	72.592964
2805.306152	45.841038
2804.651611	53.472874
2803.997070	57.283428
2803.342285	34.364697
2802.687500	64.900970
2802.032471	68.707962
2801.377441	72.513756
2800.722412	68.686531
2800.067139	76.306458
2799.411621	68.665100
2798.756348	87.725052
2798.100586	53.389530
2797.445068	45.755314
2796.789307	45.748173
2796.133301	64.799805
2795.477539	57.167374
2794.821289	57.158451
2794.165283	80.009346
2793.509033	110.471855
2792.852539	34.279018
2792.196045	41.890038
2791.539551	64.729042
2790.882813	34.262966
2790.226074	30.451218
2789.569092	53.281311
2788.912109	57.078205
2788.255127	22.827717
2787.597900	15.216103
2786.940430	45.641178
2786.283203	34.225540
2785.625488	41.824680
2784.968018	41.818150
2784.310303	49.413731
2783.652588	68.408325
2782.994629	56.998035
2782.336426	91.182610
2781.678467	72.174957
2781.020264	83.557945
2780.361816	68.354912
2779.703369	60.750427
2779.044922	68.333549
2778.386230	45.548584
2777.727539	41.746346
2777.068604	56.917938
2776.409668	45.527233
2775.750732	49.313461
2775.091553	64.476753
2774.432373	68.258835
2773.772949	60.665035
2773.113525	56.864582
2772.453857	41.694172
2771.794189	60.636589
2771.134521	60.627110
2770.474609	45.463223
2769.814697	87.124222
2769.154541	37.874172
2768.494385	37.868248
2767.833984	56.793491
2767.173584	52.998966
2766.513184	56.775726
2765.852539	71.904671
2765.191895	45.406376
2764.531006	41.615997
2763.870117	52.957531
2763.209229	71.859688
2762.548096	45.377968
2761.886719	79.399017
2761.225586	68.045654
2760.563965	34.017502
2759.902588	49.128704
2759.240967	37.785397
2758.579102	41.557430
2757.917236	67.992424
2757.255371	45.321190
2756.593262	49.090271
2755.931152	52.858170
2755.269043	41.524918
2754.606689	49.067219
2753.944092	49.059540
2753.281494	56.598297
2752.618896	37.726292
2751.956055	64.124649
2751.293213	52.800266
2750.630371	26.396000
2749.967285	71.635063
2749.303955	71.623848
2748.640625	48.998112
2747.977295	64.064423
2747.313721	56.518574
2746.650146	79.113609
2745.986572	56.500870
2745.322754	45.193615
2744.658691	75.310890
2743.994873	64.004227
2743.330566	48.936737
2742.666504	86.566818
2742.002197	63.974140
2741.337646	60.201519
2740.673096	60.192085
2740.008545	67.705482
2739.343750	75.216522
2738.678955	82.725204
2738.013916	48.875416
2737.348877	75.181160
2736.683594	82.686310
2736.018311	90.189102
2735.353027	48.844772
2734.687500	48.837112
2734.021973	82.634460
2733.356201	75.110458
2732.690430	67.588814
2732.024658	97.612968
2731.358643	112.612686
2730.692383	93.829185
2730.026367	90.061890
2729.359863	108.807716
2728.693604	123.796249
2728.027100	90.019508
2727.360352	75.004494
2726.693604	101.240173
2726.026855	97.475243
2725.359863	93.711487
2724.692871	86.201042
2724.025635	97.429359
2723.358398	104.907463
2722.691162	123.621529
2722.023682	93.637978
2721.355957	97.368210
2720.688477	142.285049
2720.020508	104.825157
2719.352783	93.579193
2718.684814	112.277405
2718.016602	97.291809
2717.348389	97.276527
2716.680176	108.483704
2716.011719	82.285065
2715.343262	108.449638
2714.674561	108.432610
2714.005859	100.938644
2713.337158	97.184906
2712.668213	78.483170
2711.999023	85.944260
2711.329834	85.930756
2710.660645	82.181725
2709.991455	115.783325
2709.321777	85.890259
2708.652344	74.675446
2707.982666	85.863274
2707.312988	104.512779
2706.643066	70.908241
2705.972900	97.017075
2705.302979	89.540154
2704.632813	100.716835
2703.962402	70.863670
2703.291992	96.956100
2702.621582	100.669350
2701.950928	70.830261
2701.280273	74.546448
2700.609375	74.534721
2699.938477	100.606056
2699.267334	93.139107
2698.596191	89.399483
2697.925049	85.661034
2697.253662	67.028526
2696.582031	89.357315
2695.910645	81.897987
2695.239014	44.664604
2694.567139	74.429298
2693.895264	78.138466
2693.223145	104.168236
2692.551270	74.394173
2691.878906	44.629482
2691.206543	78.089302
2690.534180	52.051346
2689.861816	81.782097
2689.189209	70.618881
2688.516357	66.891571
2687.843506	104.037178
2687.170654	66.870514
2686.497559	100.289986
2685.824463	66.849464
2685.151123	81.692039
2684.477783	74.253799
2683.804199	74.242111
2683.130615	51.961296
2682.457031	66.796860
2681.783203	66.786346
2681.109375	55.646523
2680.435303	44.510208
2679.761230	59.337597
2679.086914	55.620235
2678.412598	63.026340
2677.738281	88.964348
2677.063721	77.831543
2676.389160	48.173840
2675.714355	62.986637
2675.039551	74.090248
2674.364502	48.151077
2673.689453	92.583633
2673.014404	66.649712
2672.339111	111.065346
2671.663574	40.717545
2670.988037	62.917198
2670.312500	55.506424
2669.636719	62.897366
2668.960938	62.887451
2668.285156	73.973579
2667.609131	40.679054
2666.932861	40.672642
2666.256592	88.726318
2665.580322	55.445206
2664.903809	51.740700
2664.227295	48.037357
2663.550781	77.586571
2662.874023	70.186310
2662.197021	36.934338
2661.520020	55.392765
2660.843018	66.460838
2660.165771	70.142036
2659.488525	88.586494
2658.811035	62.738869
2658.133545	47.969212
2657.455811	66.408432
2656.778076	81.153053
2656.100342	51.634705
2655.422363	103.253120
2654.744385	58.992470
2654.066162	47.923820
2653.387939	70.031448
2652.709473	77.390968
2652.031006	99.486969
2651.352539	77.366539
2650.673828	88.404945
2649.994873	40.512535
2649.316162	47.870895
2648.636963	73.635902
2647.958008	58.899422
2647.278809	36.806324
2646.599365	51.520721
2645.919922	77.268875
2645.240479	91.972229
2644.560791	36.783081
2643.880859	40.455002
2643.201172	44.125759
2642.520996	55.148483
2641.841064	51.463787
2641.160889	88.209702
2640.480469	73.496475
2639.800049	66.136375
2639.119629	66.125923
2638.438965	69.788559
2637.758301	69.777534
2637.077393	95.469955
2636.396484	58.741459
2635.715332	66.073700
2635.034180	44.042168
2634.353027	44.035210
2633.671631	66.042374
2632.989990	62.363491
2632.308350	58.685772
2631.626709	73.345619
2630.944824	44.000416
2630.262939	51.325699
2629.581055	58.648670
2628.898926	65.969322
2628.216553	73.287651
2627.534180	73.276062
2626.851807	65.938026
2626.169189	51.277023
2625.486572	58.593040
2624.803711	58.583775
2624.120850	80.539948
2623.437988	58.565243
2622.754883	62.215725
2622.071533	84.160896
2621.388184	29.268724
2620.704834	73.160233
2620.021240	62.176357
2619.337646	76.793938
2618.653809	65.812958
2617.969971	84.081024
2617.286133	62.137009
2616.602051	43.854477
2615.917725	76.733185
2615.233398	65.760895
2614.549072	69.403282
2613.864502	51.131168
2613.179932	80.336258
2612.495117	76.672470
2611.810303	43.805901
2611.125488	51.098793
2610.440430	65.688042
2609.755127	58.380127
2609.069824	65.667236
2608.384521	58.361633
2607.698975	54.705368
2607.013428	61.989594
2606.327637	72.917381
2605.641846	72.905830
2604.956055	72.894279
2604.270020	83.815140
2603.583740	65.584068
2602.897461	47.358765
2602.211182	72.848091
2601.524658	40.060104
2600.838135	50.977505
2600.151367	40.047405
2599.464600	72.801926
2598.777832	69.150864
2598.090820	61.862022
2597.403564	72.767311
2596.716309	43.653465
2596.029053	50.920971
2595.341553	65.459435
2594.654053	50.904823
2593.966309	79.980614
2593.278564	65.428307
2592.590820	72.686584
2591.902832	36.337532
2591.214600	65.397179
2590.526367	69.019409
2589.838135	43.584293
2589.149658	32.683033
2588.461182	79.879189
2587.772461	36.302963
2587.083740	65.334961
2586.394775	76.212029
2585.705811	47.171391
2585.016846	101.583801
2584.327637	61.666092
2583.638184	72.536827
2582.948975	29.010126
2582.259277	58.011044
2581.569824	97.878105
2580.879883	54.368092
2580.190186	54.359463
2579.500244	72.467773
2578.810059	61.587833
2578.119873	54.333576
2577.429688	50.703289
2576.739258	68.800674
2576.048584	32.584621
2575.358154	65.158890
2574.667236	47.051727
2573.976563	68.756989
2573.285645	79.600708
2572.594482	50.646950
2571.903320	72.341293
2571.212158	50.630863
2570.520752	97.629723
2569.829102	79.537506
2569.137451	43.377201
2568.445801	61.441273
2567.753906	54.204273
2567.062012	28.904352
2566.370117	54.187050
2565.677979	101.133080
2564.985596	54.169827
2564.293213	68.604210
2563.600830	46.932262
2562.908203	43.315201
2562.215332	61.353447
2561.522705	54.126789
2560.829590	21.647274
2560.136719	93.789940
2559.443604	43.280781
2558.750244	61.304691
2558.056885	75.717278
2557.363525	54.075172
2556.669922	36.044380
2555.976074	50.454109
2555.282227	68.462540
2554.588379	43.232624
2553.894287	57.634327
2553.200195	61.226730
2552.505859	50.413994
2551.811523	50.405972
2551.117188	43.198246
2550.422607	43.191372
2549.727783	53.980625
2549.032959	68.364578
2548.338135	61.158573
2547.643066	64.745827
2546.947998	46.753433
2546.252686	61.129375
2545.557373	68.310188
2544.861816	79.083420
2544.166260	64.694313
2543.470703	64.684013
2542.774902	89.824608
2542.078857	43.108948
2541.382813	71.836807
2540.686768	89.781708
2539.990479	46.679054
2539.294189	89.753120
2538.597656	21.537317
2537.901123	50.245735
2537.204346	64.591370
2536.507568	39.466217
2535.810791	82.507126
2535.113770	57.387119
2534.416504	46.619606
2533.719238	75.296600
2533.021973	64.529655
2532.324463	68.103783
2531.626953	64.509094
2530.929199	82.415154
2530.231445	39.409660
2529.533447	60.896133
2528.835449	68.049538
2528.137451	64.457703
2527.439209	46.545364
2526.740723	39.378262
2526.042236	82.323242
2525.343750	85.888817
2524.645020	75.140732
2523.946289	89.438988
2523.247314	53.654839
2522.548340	42.917027
2521.849121	67.941116
2521.149902	75.080841
2520.450684	46.471203
2519.751221	114.372406
2519.051514	46.456379
2518.351807	50.021965
2517.652100	67.876122
2516.952148	71.437157
2516.252197	57.140606
2515.552002	53.560772
2514.851807	64.262672
2514.151367	60.682835
2513.450928	57.104145
2512.750244	49.958153
2512.049561	49.950180
2511.348877	60.644108
2510.647949	60.634426
2509.946777	46.360104
2509.245605	74.877441
2508.544434	53.475349
2507.843018	71.289078
2507.141602	53.458275
2506.439941	67.703003
2505.738281	71.254936
2505.036377	71.243561
2504.334473	56.985748
2503.632568	96.148087
2502.930420	64.088486
2502.228027	81.877769
2501.525635	53.390015
2500.823242	96.086678
2500.120605	56.931156
2499.417969	64.037315
2498.715088	74.698273
2498.012207	56.903873
2497.309082	74.674400
2496.605957	110.216026
2495.902588	81.760109
2495.199219	71.084389
2494.495605	63.965725
2493.791992	78.167831
2493.088379	81.707855
2492.384521	56.831161
2491.680664	49.719318
2490.976563	78.117867
2490.272461	46.153175
2489.568115	60.344505
2488.863770	74.531296
2488.159180	21.291250
2487.454590	53.219616
2486.749756	92.232582
2486.044922	67.389954
2485.339844	53.194084
2484.634766	67.368401
2483.929688	63.812485
2483.224365	49.623993
2482.519043	70.880074
2481.813477	63.781864
2481.107666	63.771660
2480.402100	38.965336
2479.696045	88.543411
2478.990234	63.741051
2478.284180	70.812057
2477.577881	92.040947
2476.871582	77.868332
2476.165039	53.083549
2475.458496	74.305077
2474.751953	67.217636
2474.045166	102.578918
2473.338379	91.952583
2472.631348	106.082146
2471.924072	91.923141
2471.217041	60.093971
2470.509521	88.359337
2469.802246	53.007111
2469.094482	60.065105
2468.386963	63.588161
2467.679199	56.513756
2466.971191	74.162430
2466.263184	102.398376
2465.554932	70.608253
2464.846680	81.186485
2464.138428	56.468510
2463.429932	59.988178
2462.721436	63.506718
2462.012695	56.441372
2461.303955	81.121468
2460.594971	59.949738
2459.885986	59.940132
2459.176758	88.133125
2458.467529	45.821880
2457.758057	66.959702
2457.048584	59.901711
2456.338867	73.984367
2455.629150	56.360004
2454.919434	59.872906
2454.209473	70.427422
2453.499512	77.457741
2452.789307	77.445320
2452.078857	70.393547
2451.368408	95.016045
2450.657959	91.482262
2449.947266	49.251778
2449.236572	52.761299
2448.525879	45.719124
2447.814697	59.776955
2447.103760	80.861732
2446.392578	66.788109
2445.681152	66.777390
2444.969727	56.224567
2444.258301	52.702076
2443.546631	70.258156
2442.834717	73.759224
2442.122803	84.282730
2441.410889	84.269203
2440.698730	56.170452
2439.986572	84.242157
2439.274170	66.681000
2438.561768	63.161335
2437.849121	70.167992
2437.136475	63.141056
2436.423584	45.594551
2435.710693	42.080521
2434.997803	56.098351
2434.284424	63.100510
2433.571289	42.060249
2432.857910	56.071327
2432.144287	70.077904
2431.430908	63.059982
2430.717041	59.547085
2430.003174	66.541931
2429.289307	98.046043
2428.575195	80.524879
2427.861084	52.507790
2427.146729	62.999222
2426.432373	59.489704
2425.717773	62.978977
2425.003174	55.972317
2424.288330	94.438103
2423.573486	66.445763
2422.858643	69.931664
2422.143555	83.904510
2421.428223	83.891022
2420.712891	55.918358
2419.997559	45.426361
2419.281982	94.331894
2418.566162	97.809937
2417.850586	90.808907
2417.134521	76.825951
2416.418457	108.237343
2415.702393	73.310280
2414.986084	90.750504
2414.269775	73.286697
2413.553223	59.317783
2412.836670	55.819523
2412.120117	83.715813
2411.403076	62.776760
2410.686279	62.766659
2409.969238	87.161888
2409.251953	69.718292
2408.534668	73.192429
2407.817383	73.180649
2407.099854	90.590034
2406.382080	83.608109
2405.664307	59.212879
2404.946533	59.203350
2404.228516	73.121773
2403.510498	66.147148
2402.792236	45.251289
2402.073975	34.803078
2401.355469	69.594955
2400.636963	76.542122
2399.918213	83.487053
2399.199463	79.995537
2398.480469	90.415176
2397.761475	31.292521
2397.042480	48.669415
2396.323242	69.516533
2395.603760	59.079536
2394.884277	72.968849
2394.164795	79.905388
2393.445068	52.103813
2392.725098	79.879646
2392.005127	55.559494
2391.285156	69.438179
2390.564941	83.312386
2389.844727	59.003429
2389.124268	58.993919
2388.403809	76.332771
2387.683105	76.320465
2386.962402	76.308167
2386.241455	83.231850
2385.520508	48.544086
2384.799316	76.271263
2384.078125	76.258972
2383.356689	69.315155
2382.635254	90.095177
2381.913818	76.222084
2381.192139	45.033062
2380.470215	83.124550
2379.748291	76.185211
2379.026367	93.484955
2378.304199	48.465862
2377.581787	65.764488
2376.859375	86.518265
2376.136963	62.283100
2375.414307	65.732666
2374.691650	89.935448
2373.968750	79.545448
2373.245850	44.953213
2372.522705	55.318104
2371.799316	58.765999
2371.076172	72.581581
2370.352783	72.569862
2369.629150	86.378754
2368.905518	58.728069
2368.181641	89.804901
2367.457764	51.802155
2366.733643	100.134666
2366.009521	58.690155
2365.285400	55.228874
2364.561035	86.281181
2363.836426	100.070007
2363.111816	82.803185
2362.387207	55.193207
2361.662354	65.531349
2360.937256	86.211525
2360.212158	93.093414
2359.487061	75.841637
2358.761719	58.595432
2358.036377	58.585968
2357.310791	58.576500
2356.584961	75.792633
2355.859375	55.113010
2355.133301	82.656158
2354.407471	58.538651
2353.681152	65.414978
2352.955078	72.289078
2352.228516	82.602737
2351.502197	89.471832
2350.775635	79.135361
2350.048828	75.682457
2349.322021	79.109779
2348.594971	82.535988
2347.867920	75.645752
2347.140869	82.509300
2346.413330	79.058624
2345.686035	58.425186
2344.958496	79.033058
2344.230713	51.534962
2343.502930	75.572388
2342.775146	41.214634
2342.047119	61.811947
2341.319092	96.136368
2340.590820	61.791950
2339.862305	82.375938
2339.133789	82.362610
2338.405273	72.055618
2337.676514	61.751968
2336.947754	75.462410
2336.218750	48.013763
2335.489746	75.437988
2334.760498	54.855110
2334.031250	75.413567
2333.301758	92.538033
2332.572266	58.255257
2331.842529	51.393375
2331.112793	61.662067
2330.382813	68.502312
2329.652832	82.189468
2328.922607	71.904137
2328.192383	68.469040
2327.462158	85.572441
2326.731689	61.602177
2326.000977	61.592201
2325.270264	75.267166
2324.539307	58.151569
2323.808350	78.662903
2323.077393	61.552299
2322.346191	75.218399
2321.614746	85.461609
2320.883301	58.104477
2320.151855	51.260345
2319.420166	78.586464
2318.688232	78.573723
2317.956299	71.729599
2317.224365	88.793686
2316.492188	58.047997
2315.760010	71.694725
2315.027588	71.683105
2314.295166	85.323196
2313.562500	78.484612
2312.829590	85.295532
2312.096924	57.991554
2311.363770	81.857155
2310.630615	78.433716
2309.897461	51.144131
2309.164063	64.772057
2308.430664	92.029572
2307.697021	102.238495
2306.963379	71.555336
2306.229492	88.577950
2305.495605	98.782455
2304.761719	88.549210
2304.027344	108.965965
2303.293213	102.139015
2302.558838	91.910194
2301.824219	102.105865
2301.089600	78.268463
2300.354736	91.865456
2299.619873	88.448669
2298.885010	74.829041
2298.149658	71.416122
2297.414551	81.605179
2296.679199	57.794281
2295.943604	74.780457
2295.208008	84.963997
2294.472412	81.552193
2293.736572	71.346581
2293.000488	81.525711
2292.264404	84.908821
2291.528320	71.311829
2290.791992	101.857491
2290.055420	67.893967
2289.318848	50.912201
2288.582275	98.414268
2287.845459	71.253922
2287.108398	98.382294
2286.371582	64.446892
2285.634277	91.567543
2284.896973	74.598465
2284.159668	54.244614
2283.422119	64.405006
2282.684570	84.729660
2281.946777	125.379517
2281.208740	98.254456
2280.470703	88.075882
2279.732666	57.578716
2278.994385	94.820114
2278.256104	104.962349
2277.517578	67.706635
2276.779053	67.695625
2276.040283	87.989998
2275.301514	74.440971
2274.562500	81.195122
2273.823486	71.034180
2273.084229	84.550743
2272.344971	101.444389
2271.605469	81.142311
2270.865967	74.368347
2270.126221	77.736084
2269.386475	67.585594
2268.646484	84.468246
2267.906494	91.210861
2267.166260	60.797348
2266.426025	74.295776
2265.685547	97.919403
2264.945068	64.143654
2264.204346	74.259506
2263.463623	77.622299
2262.722656	107.978668
2261.981689	94.465950
2261.240723	87.704102
2260.499268	111.298622
2259.758057	91.047684
2259.016602	91.032860
2258.274902	114.615303
2257.533203	101.114677
2256.791260	104.468155
2256.049316	84.234787
2255.307129	80.852226
2254.564941	94.312233
2253.822754	53.883926
2253.080322	87.547112
2252.337646	84.166206
2251.594971	111.081291
2250.852051	70.676575
2250.109131	70.665062
2249.366211	77.382454
2248.623047	97.553276
2247.879639	84.083946
2247.136230	70.619003
2246.392578	104.230110
2245.648926	94.127983
2244.905273	80.667976
2244.161377	77.294205
2243.417236	80.641678
2242.673096	90.707092
2241.928955	87.333328
2241.184570	94.035942
2240.439941	57.083939
2239.695313	63.789295
2238.950439	73.849243
2238.205566	90.618378
2237.460693	90.603600
2236.715576	90.588821
2235.970215	100.637825
2235.224854	117.391640
2234.479492	87.190994
2233.733887	73.764954
2232.988037	80.457733
2232.242188	63.685310
2231.496338	93.836723
2230.750244	120.627525
2230.003906	70.354568
2229.257568	93.790787
2228.511230	80.378983
2227.764648	80.365860
2227.017822	87.048798
2226.270996	90.382072
2225.523926	100.408134
2224.776855	110.430908
2224.029785	73.608589
2223.282471	83.632462
2222.534912	113.721573
2221.787354	93.637772
2221.039795	86.935158
2220.291992	90.264069
2219.543945	103.619598
2218.795898	100.260651
2218.047852	73.512466
2217.299561	76.841385
2216.551025	83.509598
2215.802490	83.495956
2215.053955	123.553825
2214.305176	80.129921
2213.556152	83.455032
2212.807129	96.792015
2212.058105	86.764862
2211.308838	66.731293
2210.559326	96.744560
2209.809814	103.399696
2209.060303	76.703362
2208.310547	93.362740
2207.560547	100.015152
2206.810547	103.332092
2206.060303	96.649704
2205.310059	96.633896
2204.559814	69.964828
2203.809326	86.608955
2203.058594	79.933647
2202.307861	93.240669
2201.557129	99.884377
2200.806152	106.525909
2200.054932	86.538139
2199.303711	99.835365
2198.552246	99.819031
2197.800781	103.129456
2197.049316	103.112579
2196.297607	89.793037
2195.545654	113.054207
2194.793701	83.114494
2194.041504	86.424927
2193.289307	89.734268
2192.537109	99.688423
2191.784668	132.896133
2191.031982	119.586945
2190.279297	89.675522
2189.526367	122.868561
2188.773438	92.966393
2188.020508	92.951164
2187.267090	92.935944
2186.513916	119.469505
2185.760498	92.905510
2185.006836	109.477844
2184.253174	72.973274
2183.499268	99.492714
2182.745361	92.844650
2181.991211	72.937416
2181.237061	119.332588
2180.482666	109.370277
2179.728271	119.293488
2178.973877	99.394951
2178.218994	125.879631
2177.464355	102.674454
2176.709229	119.215309
2175.954346	125.817757
2175.198975	132.418030
2174.443848	89.367523
2173.688232	99.280968
2172.932861	105.882339
2172.177002	112.481537
2171.421387	105.847618
2170.665283	109.137459
2169.909424	79.359680
2169.153076	99.183334
2168.396729	82.639221
2167.640381	85.930695
2166.883789	92.525574
2166.127197	92.510399
2165.370361	105.708824
2164.613525	99.085762
2163.856445	122.185730
2163.099365	112.260353
2162.342041	85.832069
2161.584473	105.622131
2160.826904	92.404205
2160.069336	108.887077
2159.311523	72.579475
2158.553711	92.358711
2157.795654	79.151619
2157.037354	85.733513
2156.279053	85.719437
2155.520752	75.816284
2154.762207	92.282936
2154.003662	115.334724
2153.244873	112.021049
2152.485840	95.531677
2151.726807	111.984268
2150.967773	105.379646
2150.208252	69.144035
2149.448975	79.008774
2148.689453	108.619225
2147.929688	115.183281
2147.169922	118.454773
2146.410156	92.116356
2145.650146	111.837196
2144.889893	124.973976
2144.129639	82.206207
2143.369141	111.782074
2142.608643	92.040695
2141.847900	105.172081
2141.087158	88.724358
2140.326416	131.421890
2139.565186	101.835228
2138.804199	85.396149
2138.042725	118.221382
2137.281494	118.201950
2136.519775	101.768272
2135.758301	105.033852
2134.996338	111.580116
2134.234619	72.187027
2133.472412	101.701355
2132.710449	91.844177
2131.947998	98.388298
2131.185547	121.325607
2130.423096	124.584175
2129.660400	127.841675
2128.897705	121.265739
2128.134766	98.307396
2127.371826	127.778587
2126.608643	94.999214
2125.845215	81.882401
2125.081787	98.242706
2124.318359	111.323410
2123.554688	121.126129
2122.790771	117.833054
2122.026855	114.541054
2121.262939	111.250137
2120.498779	130.860962
2119.734375	88.316612
2118.969971	88.302071
2118.205322	107.906982
2117.440674	120.966698
2116.676025	101.333786
2115.911133	150.341507
2115.145996	78.426125
2114.380859	107.818161
2113.615479	88.200333
2112.850098	111.048790
2112.084473	111.030495
2111.318848	78.361557
2110.552979	97.935806
2109.787109	104.447655
2109.020996	124.011147
2108.254883	130.516541
2107.488525	110.920776
2106.722168	97.855148
2105.955566	163.065033
2105.188965	110.865944
2104.422119	120.628349
2103.655029	117.348778
2102.887939	87.997078
2102.120850	101.017021
2101.353516	101.000366
2100.585938	123.786491
2099.818359	130.280075
2099.050781	136.771530
2098.282959	97.677841
2097.514893	133.471024
2096.746826	126.939308
2095.978760	152.952911
2095.210449	133.404999
2094.441895	117.116776
2093.673340	123.602867
2092.904541	100.817284
2092.135742	84.542480
2091.366699	126.792793
2090.597656	123.521317
2089.828369	136.501022
2089.059082	120.231064
2088.289551	87.721703
2087.520020	113.694550
2086.750244	103.932144
2085.980469	94.172958
2085.210449	107.144638
2084.440186	123.358307
2083.670166	100.617798
2082.899658	120.072380
2082.129150	116.807892
2081.358643	149.229874
2080.587891	107.038536
2079.816895	119.993088
2079.045898	116.730751
2078.274902	90.775589
2077.503662	94.002045
2076.732178	110.191086
2075.960693	110.172882
2075.188965	132.833588
2074.417236	116.615097
2073.645264	103.640739
2072.873291	113.338326
2072.101074	116.557297
2071.328857	116.538040
2070.556396	110.045509
2069.783936	110.027321
2069.011230	106.773575
2068.238525	106.755928
2067.465576	106.738274
2066.692627	142.294174
2065.919434	126.103531
2065.145996	100.219566
2064.372559	113.132416
2063.599121	126.040985
2062.825439	151.870438
2062.051514	77.538033
2061.277588	122.748245
2060.503662	138.876358
2059.729248	125.936790
2058.955078	90.401199
2058.180664	122.667053
2057.406006	100.053932
2056.631348	87.129333
2055.856445	148.417999
2055.081543	83.874557
2054.306396	135.467239
2053.531250	132.219955
2052.755859	138.646759
2051.980225	112.833328
2051.204590	109.591377
2050.428955	132.132431
2049.653076	112.777306
2048.877197	128.867020
2048.101074	135.287964
2047.324707	119.162521
2046.548340	122.362862
2045.771851	112.683975
2044.995239	112.665314
2044.218506	125.520561
2043.441528	115.845940
2042.664551	135.131210
2041.887329	147.976334
2041.110107	125.437416
2040.332642	122.200829
2039.555176	151.118088
2038.777466	112.516098
2037.999634	128.568527
2037.221802	118.906181
2036.443726	134.952209
2035.665527	144.567688
2034.887207	134.907486
2034.108765	134.885132
2033.330200	138.073792
2032.551514	115.577499
2031.772705	144.447922
2030.993774	157.261658
2030.214600	134.773361
2029.435425	112.292511
2028.656128	131.520844
2027.876587	112.255280
2027.097046	157.131332
2026.317261	144.280350
2025.537476	134.639328
2024.757446	141.027328
2023.977295	157.027100
2023.197021	121.755920
2022.416626	166.585724
2021.636230	124.918564
2020.855591	144.112900
2020.074707	163.300842
2019.293823	134.460739
2018.512817	128.036591
2017.731689	160.019180
2016.950439	156.792770
2016.168945	147.168777
2015.387451	163.138306
2014.605713	166.309479
2013.823975	163.084152
2013.041992	124.690704
2012.260010	150.243332
2011.477783	153.414520
2010.695435	156.584656
2009.912964	137.388199
2009.130371	153.338104
2008.347656	175.670731
2007.564819	140.513245
2006.781860	134.104004
2005.998779	166.005951
2005.215576	175.554047
2004.432129	149.993988
2003.648682	165.923233
2002.864990	149.944153
2002.081299	149.919235
2001.297363	149.894333
2000.513428	146.680710
1999.729248	162.597229
1998.944946	188.071426
1998.160522	175.291672
1997.375977	108.344116
1996.591309	130.628540
1995.806519	191.131927
1995.021606	181.545151
1994.236572	146.485764
1993.451416	171.932953
1992.666016	149.620468
1991.880615	171.875778
1991.094971	190.941330
1990.309326	175.000443
1989.523438	146.339661
1988.737549	162.219162
1987.951416	174.913132
1987.165161	139.907227
1986.378784	152.600677
1985.592285	158.932587
1984.805664	162.084259
1984.018921	168.412491
1983.232056	184.269791
1982.444946	181.062576
1981.657837	136.568344
1980.870605	193.704239
1980.083130	177.797241
1979.295654	177.767639
1978.507935	171.390259
1977.720093	180.881836
1976.932129	171.333206
1976.144165	190.338531
1975.355957	158.589035
1974.567627	168.076385
1973.779053	158.536209
1972.990479	161.680008
1972.201782	167.992416
1971.412964	167.964432
1970.623901	164.767853
1969.834839	190.085083
1969.045532	190.053406
1968.256226	183.687683
1967.466675	189.990082
1966.677002	164.630646
1965.887207	215.250351
1965.097290	199.389893
1964.307251	183.534698
1963.517090	205.651154
1962.726807	170.820175
1961.936401	196.094177
1961.145874	164.438675
1960.355103	196.028809
1959.564331	180.189987
1958.773315	173.838547
1957.982178	158.008698
1957.191040	192.738464
1956.399658	176.910721
1955.608154	189.515594
1954.816528	173.693649
1954.024780	173.664673
1953.232910	224.147919
1952.440918	198.858643
1951.648682	214.605270
1950.856445	160.927094
1950.063965	217.688568
1949.271484	217.652252
1948.478760	220.769791
1947.685913	167.126373
1946.893066	242.765717
1946.099976	217.507004
1945.306763	192.256714
1944.513428	204.829514
1943.719971	214.247406
1942.926270	163.808914
1942.132568	207.876602
1941.338745	210.991013
1940.544678	210.955780
1939.750610	236.105103
1938.956299	182.557449
1938.161865	223.438187
1937.367310	213.961395
1936.572632	204.487762
1935.777832	195.017288
1934.982910	204.419464
1934.187866	226.396042
1933.392700	220.070496
1932.597290	194.887009
1931.801880	232.568222
1931.006226	194.821899
1930.210571	238.774033
1929.414673	229.310410
1928.618652	197.864960
1927.822510	213.532822
1927.026245	213.497131
1926.229858	232.296280
1925.433350	238.534683
1924.636719	210.251999
1923.839844	229.042236
1923.042969	244.689148
1922.245850	222.692627
1921.448730	244.607330
1920.651367	206.940811
1919.853882	247.660461
1919.056274	213.140442
1918.258545	209.970901
1917.460693	206.802414
1916.662720	225.564896
1915.864624	209.865555
1915.066284	244.280212
1914.267944	247.370621
1913.469360	222.283234
1912.670776	209.725128
1911.871948	200.300934
1911.072998	203.396591
1910.273926	234.649094
1909.474731	256.506744
1908.675415	253.336197
1907.875977	237.658371
1907.076294	275.137299
1906.276611	228.200699
1905.476807	234.413513
1904.676758	224.999298
1903.876587	243.708420
1903.076294	243.667618
1902.275879	218.639450
1901.475342	259.200500
1900.674683	262.279449
1899.873901	265.357391
1899.072998	224.735657
1898.271851	246.543655
1897.470703	265.224060
1896.669312	233.982010
1895.867920	283.850616
1895.066284	271.328186
1894.264526	246.337173
1893.462646	277.472595
1892.660645	249.371765
1891.858521	243.096725
1891.056152	258.636505
1890.253784	233.668503
1889.451172	227.399216
1888.648560	261.620972
1887.845703	274.033173
1887.042725	286.441193
1886.239624	252.150497
1885.436401	227.208649
1884.633057	273.849426
1883.829590	252.023666
1883.025879	245.759644
1882.222168	199.063019
1881.418213	251.896881
1880.614258	236.308044
1879.810059	239.377197
1879.005737	251.770126
1878.201294	233.081375
1877.396729	279.650726
1876.592041	205.042786
1875.787231	257.813568
1874.982178	285.721283
1874.177124	257.727020
1873.371826	220.428284
1872.566406	226.599487
1871.760986	273.115173
1870.955322	288.584625
1870.149536	279.228577
1869.343506	319.507935
1868.537476	310.149780
1867.731323	244.977188
1866.924927	306.945160
1866.118530	266.594452
1865.311890	291.345001
1864.505127	254.109344
1863.698242	263.361786
1862.891235	226.143295
1862.084106	269.467957
1861.276855	257.035461
1860.469482	232.221924
1859.661865	281.715271
1858.854126	306.429932
1858.046387	284.715332
1857.238403	253.725357
1856.430298	284.619629
1855.622070	241.267395
1854.813721	290.709259
1854.005249	284.476135
1853.196533	306.069580
1852.387817	296.744873
1851.578857	327.600708
1850.769775	312.095337
1849.960693	321.311462
1849.151367	274.922241
1848.341919	284.141479
1847.532227	318.061401
1846.722534	268.608643
1845.912720	296.345886
1845.102661	287.036774
1844.292603	286.988495
1843.482300	259.171814
1842.671875	289.976776
1841.861328	311.518372
1841.050659	305.298309
1840.239868	280.580536
1839.428833	271.284943
1838.617798	289.732880
1837.806519	295.847626
1836.995117	280.391693
1836.183716	317.312988
1835.372070	292.618042
1834.560303	277.170441
1833.748291	270.965454
1832.936279	307.863434
1832.124146	320.124084
1831.311768	329.302948
1830.499390	292.322540
1829.686768	295.349884
1828.874023	276.843872
1828.061157	316.779083
1827.248169	252.150558
1826.434937	279.778473
1825.621704	310.471069
1824.808228	261.243500
1823.994751	258.126556
1823.181030	279.589966
1822.367188	328.693268
1821.553223	300.995422
1820.739136	319.369873
1819.924927	297.823639
1819.110474	288.563934
1818.296021	291.584625
1817.481323	282.329071
1816.666626	285.349762
1815.851685	309.843719
1815.036621	325.127686
1814.221436	276.005280
1813.406006	303.554596
1812.590576	334.160309
1811.774902	346.364655
1810.959229	330.982941
1810.143311	291.093292
1809.327271	315.553192
1808.511108	321.626160
1807.694824	275.633057
1806.878418	336.828003
1806.061768	309.217163
1805.245117	312.226044
1804.428223	327.475952
1803.611206	318.240692
1802.794067	315.127472
1801.976807	308.956360
1801.159424	324.196472
1800.341919	299.678223
1799.524170	299.627625
1798.706421	299.577057
1797.888428	345.372375
1797.070313	320.867035
1796.252075	293.314606
1795.433716	311.594147
1794.615234	320.704498
1793.796509	314.542725
1792.977783	296.169830
1792.158813	314.436462
1791.339844	332.696960
1790.520630	360.106506
1789.701294	305.123444
1788.881714	332.528351
1788.062134	320.271362
1787.242432	298.869446
1786.422485	311.015625
1785.602417	295.719757
1784.782349	356.632629
1783.962036	301.715057
1783.141479	350.417877
1782.320923	356.451813
1781.500244	295.469940
1780.679321	304.556671
1779.858398	304.505188
1779.037231	286.186462
1778.215942	334.842438
1777.394531	295.220215
1776.572998	322.557220
1775.751221	331.630096
1774.929443	343.741882
1774.107422	337.600830
1773.285278	322.339050
1772.463013	328.365356
1771.640625	331.349701
1770.818115	310.017914
1769.995483	328.198730
1769.172607	376.756989
1768.349731	334.163361
1767.526611	361.442810
1766.703369	349.234344
1765.880005	367.393097
1765.056519	327.865601
1764.232910	361.198151
1763.409058	312.580780
1762.585083	333.767609
1761.761108	348.879791
1760.936890	351.853943
1760.112549	357.859772
1759.288086	366.895752
1758.463379	324.390076
1757.638672	327.366302
1756.813721	315.188232
1755.988647	360.586975
1755.163574	318.111084
1754.338257	348.348358
1753.512695	342.232147
1752.687134	333.089874
1751.861328	290.647369
1751.035522	366.274719
1750.209473	345.026794
1749.383301	360.098511
1748.557007	341.884308
1747.730591	375.101501
1746.903931	308.498932
1746.077271	341.710480
1745.250366	341.652557
1744.423340	350.663513
1743.596313	353.626526
1742.768921	338.456879
1741.941528	311.206665
1741.114014	344.383911
1740.286255	365.468323
1739.458374	353.326782
1738.630493	383.460602
1737.802368	374.338959
1736.973999	398.422272
1736.145630	322.908722
1735.317139	346.992523
1734.488403	371.068176
1733.659546	401.168243
1732.830566	340.784363
1732.001465	391.986267
1731.172241	346.698242
1730.342896	382.810455
1729.513306	385.759216
1728.683594	355.561401
1727.853882	364.539215
1727.023926	394.599426
1726.193726	373.450531
1725.363525	340.264069
1724.533203	343.216980
1723.702637	391.321320
1722.871948	349.119720
1722.041138	364.106140
1721.210205	330.949371
1720.379150	333.901276
1719.547974	397.004333
1718.716553	339.802032
1717.885010	342.750885
1717.053467	384.777710
1716.221558	357.662262
1715.389648	393.662140
1714.557617	363.549805
1713.725342	420.564667
1712.893066	363.426239
1712.060547	363.364471
1711.227905	411.342743
1710.395142	354.234985
1709.562256	435.214752
1708.729126	360.116486
1707.895874	351.053894
1707.062622	356.994080
1706.229126	377.929474
1705.395508	368.868408
1704.561646	389.794617
1703.727783	383.732513
1702.893677	374.675049
1702.059570	371.614410
1701.225220	380.540344
1700.390747	383.471466
1699.556030	407.369110
1698.721313	392.325562
1697.886353	389.264465
1697.051392	398.179718
1696.216187	365.185394
1695.380859	407.022644
1694.545410	388.999542
1693.709717	382.949738
1692.874023	358.954285
1692.038086	427.681030
1691.202026	358.832062
1690.365845	412.586609
1689.529541	403.548615
1688.692993	379.570007
1687.856445	400.422974
1687.019653	445.170624
1686.182739	382.363312
1685.345703	427.098755
1684.508545	391.191681
1683.671143	412.024841
1682.833740	414.939819
1681.996094	355.175751
1681.158325	402.861816
1680.320435	375.940308
1679.482422	399.741394
1678.644287	432.482269
1677.805908	319.087708
1676.967407	438.298126
1676.128784	417.355621
1675.290039	369.594849
1674.451172	441.054138
1673.612183	369.468842
1672.772949	420.050201
1671.933594	428.914307
1671.094116	369.279877
1670.254517	390.059814
1669.414795	431.671967
1668.574829	404.809479
1667.734863	437.476807
1666.894653	413.597992
1666.054321	428.402527
1665.213867	449.151031
1664.373169	419.334381
1663.532471	431.156799
1662.691528	371.623474
1661.850464	445.872101
1661.009277	383.384583
1660.167969	395.205017
1659.326538	448.614838
1658.484863	380.217865
1657.643066	427.672089
1656.801147	430.568512
1655.959106	409.712494
1655.116943	480.884735
1654.274658	403.636780
1653.432129	362.024109
1652.589478	409.432770
1651.746704	474.623596
1650.903809	427.088287
1650.060791	435.911499
1649.217529	465.485840
1648.374146	453.548828
1647.530640	432.724304
1646.687012	468.210693
1645.843262	488.870667
1644.999390	429.540222
1644.155273	408.733948
1643.311035	414.586761
1642.466675	482.614960
1641.622192	455.889587
1640.777588	438.052765
1639.932739	440.937225
1639.087769	387.603363
1638.242798	375.703918
1637.397461	434.795532
1636.552124	437.678497
1635.706665	440.560455
1634.860962	464.135315
1634.015137	401.984772
1633.169189	463.976593
1632.323120	446.168701
1631.476929	428.366852
1630.630493	448.969818
1629.783936	440.033295
1628.937256	445.863495
1628.090454	498.927429
1627.243530	475.228241
1626.396484	442.683472
1625.549194	478.016357
1624.701782	415.980072
1623.854248	471.953339
1623.006592	460.075745
1622.158691	465.894409
1621.310791	456.970093
1620.462646	486.368744
1619.614380	465.655212
1618.765991	439.055359
1617.917358	400.679901
1617.068726	480.144409
1616.219849	441.775024
1615.370850	477.035339
1614.521729	474.009491
1613.672363	512.195801
1612.822998	456.188232
1611.973389	479.651245
1611.123657	482.511230
1610.273804	458.895477
1609.423828	488.228180
1608.573608	479.322662
1607.723389	473.360260
1606.872925	443.882935
1606.022339	482.015411
1605.171509	484.871399
1604.320679	487.726410
1603.469604	481.767609
1602.618408	472.873718
1601.767090	466.919464
1600.915649	452.158905
1600.064087	481.437347
1599.212280	407.977539
1598.360352	448.991791
1597.508301	484.123810
1596.656128	498.708679
1595.803833	466.359314
1594.951294	495.605042
1594.098633	483.791748
1593.245850	460.256226
1592.392944	433.797668
1591.539795	468.890015
1590.686646	462.949432
1589.833252	442.363098
1588.979736	445.216248
1588.126099	433.425659
1587.272217	442.135406
1586.418335	485.972717
1585.564209	462.472961
1584.709961	479.952820
1583.855591	444.757965
1583.000977	441.756073
1582.146362	450.455353
1581.291504	450.377991
1580.436523	447.376648
1579.581421	517.464478
1578.726074	476.453247
1577.870605	441.301147
1577.015137	487.977692
1576.159424	508.344513
1575.303467	470.283966
1574.447510	449.759552
1573.591309	473.042419
1572.734985	478.800171
1571.878540	461.203827
1571.021973	466.961609
1570.165161	472.717377
1569.308350	484.306152
1568.451294	466.720886
1567.594116	487.056213
1566.736694	498.636505
1565.879272	492.719788
1565.021606	440.165070
1564.163818	510.037384
1563.305908	472.067688
1562.447876	501.121490
1561.589600	486.470337
1560.731201	457.261749
1559.872681	486.303040
1559.014038	489.130890
1558.155273	474.491791
1557.296265	477.320679
1556.437134	483.058533
1555.577881	468.427979
1554.718506	520.709229
1553.859009	497.351715
1552.999268	543.793945
1552.139404	479.735626
1551.279419	497.095001
1550.419312	491.196472
1549.558960	491.111938
1548.698608	508.460327
1547.838013	502.562805
1546.977173	499.571808
1546.116333	482.061890
1545.255249	540.048645
1544.394165	502.216797
1543.532837	478.910431
1542.671265	525.259766
1541.809692	530.972290
1540.947876	556.989685
1540.085938	556.893799
1539.223877	545.197876
1538.361694	574.098877
1537.499268	510.222198
1536.636841	527.525208
1535.774170	588.292114
1534.911377	611.370667
1534.048340	657.617249
1533.185303	686.468811
1532.322021	723.998413
1531.458618	755.724060
1530.594971	871.393616
1529.731323	978.339783
1528.867432	1088.143066
1528.003418	1073.487915
1527.139282	966.261902
1526.275024	853.287720
1525.410522	740.352539
1524.545898	641.913757
1523.681152	667.822083
1522.816284	595.444214
1521.951172	525.981323
1521.086060	589.459839
1520.220703	537.355957
1519.355225	554.594299
1518.489502	516.954468
1517.623779	551.515442
1516.757813	467.696777
1515.891724	548.438599
1515.025513	528.141785
1514.159058	513.623047
1513.292480	490.454193
1512.425781	522.099304
1511.558960	516.241150
1510.692017	484.433197
1509.824829	518.945923
1508.957520	524.621399
1508.090088	507.238617
1507.222534	469.691010
1506.354736	512.825500
1505.486938	518.498047
1504.618896	532.808716
1503.750610	480.884796
1502.882324	477.922699
1502.013794	506.625671
1501.145142	515.172302
1500.276367	532.348694
1499.407471	509.240204
1498.538330	494.769379
1497.669067	537.824890
1496.799683	531.980835
1495.930176	500.263062
1495.060547	523.173218
1494.190674	514.460510
1493.320679	534.486694
1492.450562	551.632813
1491.580200	525.684143
1490.709717	560.058350
1489.839233	502.529572
1488.968384	508.184875
1488.097534	496.614594
1487.226440	536.710205
1486.355347	573.922302
1485.483887	516.440735
1484.612427	576.592407
1483.740845	573.624573
1482.869019	550.584290
1481.997070	570.558960
1481.124878	547.527161
1480.252686	601.889038
1479.380249	535.875122
1478.507690	584.489868
1477.635010	587.253357
1476.762207	595.744202
1475.889160	612.822998
1475.015991	615.580078
1474.142700	649.825500
1473.269165	618.229126
1472.395630	692.525696
1471.521851	672.377502
1470.647949	709.449951
1469.773804	712.187317
1468.899658	740.660889
1468.025269	709.081421
1467.150757	789.002319
1466.276001	817.447754
1465.401245	860.171814
1464.526245	817.164551
1463.651123	871.300720
1462.775879	885.430847
1461.900391	859.575806
1461.024780	902.255432
1460.149048	862.132690
1459.273193	884.817261
1458.397217	918.908936
1457.520996	938.722473
1456.644653	910.032104
1455.768188	969.771973
1454.891479	895.457703
1454.014648	975.138306
1453.137695	915.102722
1452.260620	1028.955688
1451.383423	1114.271240
1450.505981	1074.187744
1449.628418	1025.571655
1448.750732	979.820679
1447.872803	936.933411
1446.994873	956.702148
1446.116699	973.617188
1445.238403	947.831177
1444.359863	953.358398
1443.481201	1058.470947
1442.602417	1009.924744
1441.723511	1072.325439
1440.844482	1148.923828
1439.965210	1211.278809
1439.085815	1211.068481
1438.206299	1279.075562
1437.326538	1222.015625
1436.446777	1153.609741
1435.566772	1142.045776
1434.686646	1082.198730
1433.806274	1033.732178
1432.925781	1013.676575
1432.045166	914.137756
1431.164429	882.756104
1430.283569	788.950378
1429.402466	848.399902
1428.521240	797.187195
1427.639893	791.375732
1426.758301	757.206482
1425.876709	706.036133
1424.994873	717.253418
1424.112793	643.431763
1423.230713	691.498047
1422.348389	657.375671
1421.465942	708.255859
1420.583374	705.300171
1419.700562	710.841675
1418.817627	770.180542
1417.934570	764.384521
1417.051392	772.743286
1416.167969	772.608948
1415.284546	817.747803
1414.400757	752.536621
1413.516968	721.291199
1412.633057	698.540955
1411.748901	624.901611
1410.864624	621.965759
1409.980103	624.684204
1409.095459	570.878967
1408.210815	573.605286
1407.325806	593.281494
1406.440796	587.528931
1405.555542	595.899231
1404.670166	573.206116
1403.784668	601.338135
1402.899048	556.070435
1402.013184	564.440186
1401.127197	544.589966
1400.241089	536.031494
1399.354736	572.607605
1398.468262	524.563904
1397.581665	580.867432
1396.694946	538.477478
1395.807983	518.652344
1394.920898	594.655396
1394.033691	549.467285
1393.146362	585.996338
1392.258789	611.245483
1391.371094	554.812805
1390.483276	591.321777
1389.595337	543.358154
1388.707153	540.448669
1387.818848	554.426208
1386.930420	537.446411
1386.041748	542.979492
1385.152954	610.393860
1384.264038	590.600769
1383.375000	601.745361
1382.485718	562.280823
1381.596313	590.291931
1380.706787	598.620239
1379.817139	545.127136
1378.927246	584.364258
1378.037231	587.071289
1377.147095	561.692749
1376.256714	595.290466
1375.366333	631.683899
1374.475586	569.819824
1373.584839	594.978943
1372.693970	622.935303
1371.802856	608.799011
1370.911499	611.497803
1370.020142	580.541077
1369.128540	602.872192
1368.236816	602.767029
1367.344971	585.843323
1366.453003	641.792847
1365.560791	616.461914
1364.668457	596.742981
1363.775879	591.036560
1362.883301	548.923889
1361.990479	557.228455
1361.097534	587.927368
1360.204346	641.008850
1359.311035	565.332642
1358.417603	554.041138
1357.524048	607.100647
1356.630249	562.239197
1355.736450	548.157410
1354.842285	595.597595
1353.948120	545.170105
1353.053711	570.232178
1352.159180	586.901123
1351.264526	553.267212
1350.369751	583.902222
1349.474731	547.487244
1348.579590	572.526855
1347.684204	608.726990
1346.788818	589.077698
1345.893188	611.305542
1344.997314	661.434143
1344.101440	764.562317
1343.205322	730.950012
1342.309082	808.925293
1341.412720	780.894714
1340.516113	819.796082
1339.619385	808.500916
1338.722534	763.760376
1337.825439	738.544128
1336.928223	724.482544
1336.030884	679.780090
1335.133423	626.736694
1334.235718	568.141846
1333.337891	612.594727
1332.439941	570.727051
1331.541870	626.298096
1330.643555	573.310303
1329.745117	634.426575
1328.846436	589.802124
1327.947754	600.825256
1327.048828	586.814514
1326.149780	575.589294
1325.250488	553.247375
1324.351074	600.404541
1323.451538	569.728638
1322.551880	561.292786
1321.651978	611.201904
1320.751953	558.318481
1319.851807	541.557373
1318.951416	569.229797
1318.050903	546.920105
1317.150269	569.030334
1316.249512	618.885559
1315.348511	549.407471
1314.447388	632.540161
1313.546021	601.917358
1312.644653	579.625244
1311.743042	598.933533
1310.841309	584.966736
1309.939331	634.757813
1309.037231	631.875122
1308.135010	651.160645
1307.232666	684.291382
1306.330078	684.171387
1305.427368	706.206909
1304.524536	656.241882
1303.621460	728.106934
1302.718262	639.403809
1301.814941	666.966614
1300.911499	730.490845
1300.007813	730.362732
1299.104004	760.661011
1298.199951	766.058655
1297.295898	893.117371
1296.391602	1014.602356
1295.487061	1252.136841
1294.582520	1351.407104
1293.677734	1505.905151
1292.772827	1312.255737
1291.867676	1080.004028
1290.962402	878.212219
1290.057007	726.192688
1289.151489	623.919128
1288.245728	607.248230
1287.339844	502.271667
1286.433838	549.090698
1285.527588	480.025146
1284.621216	524.073303
1283.714722	449.520752
1282.808105	490.801483
1281.901245	449.362823
1280.994263	457.552917
1280.087036	465.740082
1279.179810	460.147491
1278.272217	449.047089
1277.364624	446.213745
1276.456787	426.857880
1275.548828	418.522522
1274.640747	423.954865
1273.732544	451.405029
1272.824097	410.045898
1271.915405	434.737305
1271.006714	440.162903
1270.097778	401.578033
1269.188721	434.508026
1268.279541	412.435059
1267.370117	437.104279
1266.460571	412.290009
1265.550781	431.454285
1264.640991	431.378387
1263.730957	414.819611
1262.820679	409.253296
1261.910400	422.912201
1260.999878	373.415192
1260.089233	403.546844
1259.178345	406.220551
1258.267334	386.939301
1257.356201	386.871216
1256.444824	389.546387
1255.533447	405.934631
1254.621704	392.151581
1253.709961	353.696838
1252.797974	375.565369
1251.885864	391.944458
1250.973633	334.327301
1250.061157	347.967957
1249.148560	388.997986
1248.235840	358.801147
1247.322876	388.860962
1246.409790	372.364624
1245.496582	347.661591
1244.583130	372.233429
1243.669556	363.958252
1242.755859	339.269714
1241.841919	347.416626
1240.927856	358.295715
1240.013672	382.843964
1239.099365	330.828247
1238.184814	352.639008
1237.270142	330.711609
1236.355225	357.980042
1235.440186	382.506653
1234.525024	368.780640
1233.609741	341.403351
1232.694214	365.919861
1231.778564	365.855316
1230.862671	341.222748
1229.946777	376.643494
1229.030640	390.221130
1228.114258	376.510620
1227.197876	398.267059
1226.281128	365.468292
1225.364380	376.311371
1224.447388	343.528015
1223.530273	343.467407
1222.613037	381.563080
1221.695557	378.770782
1220.777954	348.734558
1219.860229	424.945190
1218.942261	378.570221
1218.024170	392.118622
1217.105957	359.378632
1216.187500	405.590607
1215.268921	389.189362
1214.350220	435.379730
1213.431274	397.213837
1212.512207	372.662231
1211.593018	348.119263
1210.673706	391.565002
1209.754150	402.370728
1208.834351	388.708435
1207.914551	342.437836
1206.994507	383.136536
1206.074219	372.201630
1205.153931	353.121613
1204.233398	358.490875
1203.312744	374.719696
1202.391846	352.934418
1201.470825	388.159241
1200.549683	350.095734
1199.628296	344.606964
1198.706787	363.536743
1197.785156	363.472473
1196.863281	428.496246
1195.941284	387.747650
1195.019165	390.390106
1194.096802	387.610504
1193.174438	371.281433
1192.251709	344.119720
1191.328979	400.950470
1190.406006	330.454742
1189.482788	362.894287
1188.559570	389.906952
1187.636108	365.473083
1186.712402	362.701691
1185.788696	376.168732
1184.864746	389.631012
1183.940552	378.740875
1183.016357	370.559418
1182.091919	394.832825
1181.167236	386.651337
1180.242554	348.735626
1179.317505	410.840546
1178.392456	340.504883
1177.467163	345.848450
1176.541748	402.517914
1175.616211	364.632843
1174.690430	388.872833
1173.764526	361.803680
1172.838501	367.138672
1171.912231	369.772705
1170.985840	445.267792
1170.059204	464.075684
1169.132446	447.807648
1168.205566	458.516907
1167.278564	455.738983
1166.351318	482.620239
1165.423828	428.620209
1164.496338	363.858307
1163.568604	385.351959
1162.640747	361.035004
1161.712646	387.909149
1160.784424	398.613708
1159.856079	350.071564
1158.927490	360.779022
1157.998779	430.704498
1157.069946	422.553833
1156.140869	400.951324
1155.211670	395.499237
1154.282349	395.429077
1153.352783	349.637146
1152.423096	330.751831
1151.493164	387.152954
1150.563232	373.643829
1149.632935	370.889923
1148.702637	429.940979
1147.772095	424.491364
1146.841431	424.416016
1145.910522	453.883392
1144.979492	440.376709
1144.048340	499.362946
1143.116943	485.852936
1142.185425	429.407013
1141.253784	461.530579
1140.321899	482.911346
1139.389893	418.448822
1138.457764	437.147736
1137.525391	474.609833
1136.592896	458.439911
1135.660278	431.553894
1134.727417	501.156769
1133.794434	476.952179
1132.861206	557.238342
1131.927856	608.031860
1130.994385	653.451111
1130.060669	717.597473
1129.126831	837.940613
1128.192871	848.498291
1127.258667	800.176331
1126.324341	818.763916
1125.389893	789.190918
1124.455200	695.434448
1123.520386	593.688416
1122.585327	518.716553
1121.650146	507.931030
1120.714844	424.982483
1119.779297	432.924011
1118.843628	438.190796
1117.907837	392.698700
1116.971802	397.970734
1116.035645	429.945557
1115.099365	400.499115
1114.162842	403.097382
1113.226196	370.997131
1112.289307	360.256836
1111.352417	370.865082
1110.415161	365.463837
1109.477905	373.400208
1108.540405	376.000427
1107.602661	421.258789
1106.664917	418.518066
1105.726807	391.791107
1104.788696	341.090698
1103.850342	362.344330
1102.911865	378.262726
1101.973145	354.225220
1101.034302	367.476501
1100.095337	367.411041
1099.156128	343.388275
1098.216797	353.972900
1097.277344	364.553741
1096.337646	319.260254
1095.397827	340.483582
1094.457764	388.294891
1093.517700	350.998566
1092.577271	374.863464
1091.636841	393.403595
1090.696167	353.468567
1089.755249	350.748383
1088.814209	393.193237
1087.873047	419.685516
1086.931763	393.053040
1085.990234	398.293518
1085.048584	422.115845
1084.106689	430.003601
1083.164673	416.657562
1082.222412	390.049286
1081.280151	464.261566
1080.337524	397.867493
1079.394897	416.360352
1078.452026	424.240570
1077.509033	426.815918
1076.565796	426.739746
1075.622437	402.812836
1074.678955	421.288208
1073.735229	402.669067
1072.791382	397.299866
1071.847290	370.747009
1070.903076	410.396637
1069.958740	436.795837
1069.014160	442.011383
1068.069458	407.530548
1067.124512	481.541016
1066.179565	523.780701
1065.234253	608.323486
1064.288940	650.525452
1063.343384	806.401733
1062.397583	819.474976
1061.451660	829.900574
1060.505615	787.471924
1059.559448	700.143555
1058.613037	694.735291
1057.666382	636.506775
1056.719727	559.814636
1055.772827	485.790009
1054.825684	430.269684
1053.878418	411.718231
1052.931030	406.367126
1051.983398	390.464844
1051.035645	353.465759
1050.087769	374.501221
1049.139648	355.976227
1048.191406	363.821747
1047.242920	332.125671
1046.294312	339.972595
1045.345581	324.101959
1044.396606	339.851013
1043.447510	318.717957
1042.498291	379.232849
1041.548828	363.366455
1040.599121	376.464539
1039.649414	363.236420
1038.699341	328.959625
1037.749268	347.319183
1036.798950	341.995544
1035.848511	336.673828
1034.897827	360.281708
1033.947021	291.854797
1032.996094	341.750732
1032.044922	302.263855
1031.093506	344.256287
1030.142090	323.175110
1029.190430	317.863312
1028.238525	317.806396
1027.286499	323.001526
1026.334351	304.564758
1025.381958	307.135284
1024.429443	317.578735
1023.476807	307.025269
1022.523926	285.980835
1021.570923	288.552795
1020.617737	322.596680
1019.664368	346.139252
1018.710815	306.750275
1017.757080	269.996704
1016.803223	311.882019
1015.849121	319.687286
1014.894897	277.711304
1013.940491	306.475433
1012.985962	324.753326
1012.031189	295.891510
1011.076294	322.018829
1010.121216	319.343506
1009.165955	340.223053
1008.210510	321.845612
1007.254944	313.939392
1006.299133	316.498779
1005.343201	282.444092
1004.387085	300.696686
1003.430786	279.728455
1002.474365	318.885498
1001.517700	339.735046
1000.560913	292.642273
999.603943	313.489014
998.646790	316.044708
997.689514	297.707672
996.731995	318.542236
995.774353	318.485046
994.816528	310.597687
993.858521	318.370697
992.900330	302.658752
991.942017	310.430389
990.983459	297.333679
990.024780	284.241669
989.065918	292.012390
988.106873	276.319214
987.147705	312.758026
986.188293	323.125214
985.228760	302.224121
984.269043	346.453308
983.309143	289.093292
982.349060	322.893036
981.388794	322.834991
980.428406	301.952667
979.467834	322.718964
978.507019	372.100922
977.546082	317.399658
976.585022	366.764801
975.623718	306.882751
974.662292	353.631744
973.700623	319.771210
972.738831	353.504578
971.776855	361.237488
970.814758	322.197083
969.852417	316.943329
968.889954	314.288879
967.927246	280.471832
966.964417	316.772308
966.001404	288.158997
965.038208	272.533783
964.074890	308.816040
963.111328	298.381958
962.147644	285.357452
961.183777	306.055634
960.219727	326.746338
959.255493	269.646851
958.291077	321.444122
957.326538	323.978088
956.361755	310.962952
955.396851	329.043182
954.431763	336.755219
953.466492	396.263611
952.501038	334.044434
951.535461	346.929382
950.569641	310.627075
949.603699	370.097229
948.637573	271.700745
947.671265	325.982178
946.704773	289.709717
945.738098	333.623383
944.771240	292.191071
943.804260	323.161957
942.837097	299.840240
941.869751	343.720367
940.902222	304.899933
939.934509	297.094666
938.966614	304.790009
937.998535	286.657562
937.030334	317.590271
936.061951	327.859283
935.093323	356.192291
934.124573	330.321686
933.155640	325.101746
932.186584	286.347504
931.217285	324.984467
930.247864	376.501373
929.278198	293.927460
928.308411	335.119965
927.338440	319.595215
926.368286	306.652954
925.397949	309.174072
924.427429	332.302124
923.456787	324.515594
922.485901	311.581726
921.514893	303.801697
920.543701	344.932892
919.572327	293.397369
918.600769	316.503174
917.629028	339.600586
916.657104	354.972870
915.685059	316.331726
914.712769	295.703888
913.740356	293.079590
912.767761	290.456238
911.794983	316.103210
910.822021	336.601929
909.848877	344.248169
908.875549	344.185974
907.902039	326.147156
906.928406	344.061584
905.954590	326.029266
904.980530	338.803802
904.006348	343.875031
903.031982	348.944397
902.057434	320.662964
901.082703	305.215942
900.107849	335.933289
899.132751	358.947754
898.157532	348.629028
897.182068	371.632843
896.206482	374.128143
895.230713	374.060486
894.254761	373.992798
893.278625	345.752716
892.302307	355.932831
891.325806	355.868439
890.349182	340.445587
889.372314	340.383972
888.395325	319.851868
887.418091	342.819122
886.440735	327.409729
885.463196	350.367310
884.485474	350.303894
883.507568	373.248962
882.529480	334.840820
881.551270	357.780365
880.572815	342.384918
879.594238	375.533325
878.615417	385.682068
877.636475	385.612213
876.657349	339.583679
875.677979	365.050140
874.698486	393.059692
873.718811	390.436615
872.739014	400.571503
871.758972	405.600830
870.778748	415.729248
869.798401	390.153687
868.817810	377.335144
867.837097	390.012268
866.856140	417.976593
865.875061	351.648254
864.893799	374.513916
863.912354	371.898743
862.930725	384.565277
861.948914	387.041870
860.966919	351.329559
859.984741	374.174469
859.002441	379.196503
858.019897	361.316345
857.037231	353.618744
856.054321	351.011017
855.071289	404.352386
854.088074	373.767395
853.104614	363.530884
852.121033	350.756348
851.137268	368.481445
850.153320	406.526428
849.169189	421.694611
848.184937	398.759247
847.200439	406.305084
846.215759	383.380798
845.230896	413.773010
844.245911	408.621826
843.260681	423.773010
842.275330	426.233154
841.289795	431.229034
840.304016	365.209991
839.318115	415.858063
838.332031	354.936310
837.345764	403.032990
836.359314	395.356750
835.372681	387.683289
834.385864	387.612854
833.398865	377.410583
832.411743	405.199463
831.424377	405.125824
830.436829	394.925873
829.449158	394.854095
828.461243	382.129028
827.473206	382.059540
826.484924	392.109039
825.496521	356.627869
824.507935	389.437622
823.519104	376.725037
822.530151	353.905457
821.541016	369.005707
820.551697	366.411591
819.562195	421.928314
818.572510	351.121948
817.582642	373.788452
816.592590	383.821014
815.602356	391.325195
814.611938	398.826630
813.621399	383.611511
812.630615	396.158173
811.639648	383.471863
810.648560	403.581116
809.657227	428.726898
808.665771	463.949310
807.674072	428.570801
806.682251	413.369476
805.690186	438.495056
804.697998	433.375977
803.705566	410.624512
802.713013	370.250366
801.720276	392.847198
800.727356	339.901978
799.734253	387.669403
798.740906	372.497528
797.747437	349.781891
796.753784	405.069244
795.759949	367.262939
794.765930	387.316315
793.771729	392.274902
792.777344	346.949158
791.782776	434.864227
790.788025	397.086853
789.793091	369.374207
788.798035	391.917480
787.802734	354.168518
786.807251	411.865570
785.811584	421.834137
784.815796	384.100311
783.819763	399.090240
782.823547	393.998383
781.827148	373.853821
780.830627	316.087158
779.833862	418.864471
778.836975	358.602936
777.839844	381.102814
776.842529	371.006073
775.845093	365.925690
774.847412	375.882416
773.849609	363.286682
772.851563	328.150818
771.853394	393.208191
770.854980	373.103973
769.856445	345.496307
768.857666	405.508545
767.858765	385.413055
766.859680	387.844879
765.860352	380.268738
764.860901	372.695374
763.861206	380.129852
762.861389	357.556824
761.861389	372.491150
760.861145	364.924652
759.860779	357.360870
758.860168	357.295593
757.859436	382.211426
756.858521	369.653290
755.857361	367.088531
754.856079	367.021423
753.854614	371.946899
752.852905	411.812225
751.851074	401.755432
750.848999	416.651489
749.846802	429.047607
748.844421	546.187500
747.841797	645.829590
746.839050	643.218384
745.836121	635.622864
744.832947	513.389648
743.829651	411.134918
742.826111	450.920013
741.822449	408.493683
740.818604	405.928558
739.814514	410.834106
738.810303	385.864441
737.805847	413.172729
736.801270	393.188812
735.796448	435.414215
734.791504	355.730499
733.786316	430.280487
732.781006	412.794708
731.775452	437.581696
730.769775	417.615143
729.763855	429.965424
728.757751	407.522614
727.751526	447.199005
726.745056	385.017517
725.738403	419.716370
724.731628	412.190277
723.724609	412.114746
722.717407	394.664093
721.710083	399.555206
720.702515	431.738281
719.694763	396.927979
718.686829	431.580048
717.678711	419.101501
716.670410	406.627502
715.661987	411.510925
714.653320	374.257568
713.644470	401.447754
712.635437	408.807007
711.626221	406.254883
710.616821	401.226959
709.607178	386.295837
708.597412	383.749176
707.587463	378.728088
706.577332	398.457764
705.567017	390.961365
704.556458	440.369324
703.545776	405.659088
702.534912	393.219269
701.523804	388.201874
700.512573	380.714111
699.501099	407.833099
698.489502	405.286987
697.477661	382.975311
696.465698	400.197510
695.453491	444.582245
694.441101	387.703339
693.428589	375.287170
692.415833	392.498047
691.402893	399.830231
690.389771	409.627319
689.376465	394.748993
688.362976	382.342865
687.349304	389.671448
686.335449	478.369446
685.321411	438.835632
684.307190	428.895355
683.292725	478.105804
682.278137	554.402222
681.263367	620.816406
680.248352	603.460571
679.233215	588.573730
678.217834	517.061768
677.202332	504.657990
676.186584	418.419922
675.170654	430.647186
674.154541	405.964111
673.138306	440.328583
672.121826	420.571716
671.105164	432.789520
670.088318	454.837128
669.071289	427.714081
668.054016	410.431671
667.036621	420.185059
666.019043	417.650970
665.001282	390.554626
663.983276	402.762085
662.965149	427.242096
661.946777	432.073395
660.928223	429.539368
659.909546	404.919708
658.890625	395.030731
657.871521	456.286896
656.852234	443.939362
655.832764	468.380157
654.813110	473.197510
653.793274	419.180695
652.773254	414.201691
651.752991	438.629852
650.732605	440.999054
649.711975	423.771027
648.691223	423.692963
647.670227	452.998566
646.649048	421.088654
645.627747	467.518097
644.606201	482.115662
643.584473	430.643250
642.562561	518.633728
641.540466	491.632874
640.518127	452.414520
639.495667	515.901978
638.473022	493.805603
637.450134	491.270447
636.427063	447.193604
635.403870	449.554352
634.380432	456.799774
633.356812	442.061554
632.333008	481.050079
631.309021	485.844208
630.284851	515.046326
629.260498	527.153931
628.235901	483.135284
627.211182	478.166870
626.186218	524.422974
625.161133	558.468384
624.135803	531.544312
623.110291	507.067902
622.084595	543.534973
621.058716	519.065369
620.032654	531.151917
619.006409	482.333313
617.979919	579.667358
616.953308	569.819763
615.926453	577.018616
614.899414	572.043579
613.872253	574.371704
612.844849	571.832275
611.817261	630.115723
610.789490	559.458862
609.761475	581.243347
608.733337	525.210693
607.705017	593.183960
606.676453	576.059937
605.647705	517.629028
604.618774	626.871399
603.589722	544.159851
602.560425	575.634155
601.530884	568.242554
600.501221	597.272766
599.471375	577.742432
598.441284	572.781494
597.411011	562.969238
596.380615	543.455994
595.349976	591.869324
594.319153	538.404480
593.288147	531.030457
592.256897	523.659180
591.225525	562.344727
590.193970	571.934509
589.162170	508.830566
588.130188	562.032593
587.098022	511.064392
586.065674	491.596527
585.033142	469.714661
584.000427	493.835327
582.967468	515.526733
581.934387	542.049805
580.901062	495.980530
579.867554	546.687012
578.833862	515.145020
577.799988	457.015869
576.765930	524.624756
575.731628	514.858887
574.697205	517.180237
573.662537	456.677368
572.627747	490.414459
571.592712	524.138977
570.557434	468.498291
569.522034	490.141907
568.486450	463.496582
567.450623	502.028229
566.414673	501.935181
565.378479	472.889709
564.342102	492.100098
563.305542	511.303345
562.268799	511.208527
561.231812	513.524658
560.194702	472.451508
559.157349	520.564270
558.119812	520.467773
557.082092	587.826721
556.044189	517.866028
555.006042	505.728790
553.967773	512.858337
552.929260	527.207214
551.890625	493.412903
550.851746	517.385803
549.812683	502.853821
548.773376	519.599365
547.733948	524.313110
546.694275	468.908630
545.654419	531.331116
544.614441	526.424988
543.574158	516.713928
542.533752	511.812286
541.493164	492.497803
540.452332	538.044006
539.411316	542.747192
538.370178	525.838745
537.328735	508.936554
536.287170	477.639435
535.245422	513.546997
534.203430	532.646057
533.161255	539.743652
532.118896	556.432312
531.076355	532.349182
530.033630	551.430420
528.990723	536.945496
527.947571	532.052429
526.904236	519.972595
525.860718	553.416321
524.817017	491.035736
523.773132	536.446594
522.729004	579.446167
521.684692	591.308228
520.640198	586.411194
519.595520	559.978394
518.550659	519.199585
517.505615	559.770081
516.460327	521.398193
515.414856	571.518311
514.369202	528.376770
513.323364	576.086426
512.277283	554.469666
511.231079	551.976929
510.184631	559.041443
509.138000	508.776337
508.091187	523.010681
507.044159	513.362427
505.996948	529.977844
504.949554	548.973938
503.901947	544.098877
502.854126	486.734680
501.806152	555.823853
500.757965	555.720337
499.709564	546.078308
