#Wave		#Intensity
3200.600830	126.295570
3200.007080	117.875862
3199.413086	96.811966
3198.819092	101.005913
3198.224854	134.654205
3197.630615	143.048462
3197.036377	113.580139
3196.442139	155.623322
3195.847656	142.983597
3195.252930	126.142921
3194.658447	88.286697
3194.063721	96.680336
3193.468750	134.491425
3192.873779	113.459984
3192.278809	134.450760
3191.683838	130.229477
3191.088623	109.208206
3190.493164	151.188492
3189.897949	125.971352
3189.302490	104.960251
3188.706787	71.362175
3188.111328	113.322777
3187.515381	117.502144
3186.919678	113.288498
3186.323730	83.904709
3185.727783	109.059616
3185.131592	125.818977
3184.535400	121.606613
3183.939209	129.973602
3183.342773	138.338058
3182.746338	129.934265
3182.149902	125.723816
3181.553223	155.035904
3180.956543	108.927658
3180.359619	104.722282
3179.762695	150.777252
3179.165771	134.003937
3178.568604	108.861717
3177.971436	104.658882
3177.374268	133.943085
3176.776855	104.627197
3176.179443	117.164719
3175.581787	129.698441
3174.984131	146.411545
3174.386475	112.928947
3173.788574	179.822571
3173.190674	108.713455
3172.592773	129.600266
3171.994629	121.220589
3171.396484	108.664070
3170.798340	133.720139
3170.199951	142.056122
3169.601563	137.857117
3169.002930	116.951950
3168.404297	108.581787
3167.805664	133.618881
3167.206787	104.373932
3166.607910	87.660820
3166.008789	137.731842
3165.409912	104.326492
3164.810547	104.310677
3164.211426	129.325638
3163.612061	112.621391
3163.012695	108.433792
3162.413086	137.606644
3161.813477	145.924316
3161.213623	137.564926
3160.614014	141.712082
3160.013916	212.535889
3159.414063	129.168900
3158.813965	124.983200
3158.213867	129.129730
3157.613525	95.791397
3157.013184	120.762146
3156.412598	162.379639
3155.812256	166.517960
3155.211426	158.168076
3154.610840	120.688904
3154.010010	145.636932
3153.409180	195.539932
3152.808105	124.793785
3152.207031	153.888992
3151.605957	133.072998
3151.004639	158.000198
3150.403320	116.403542
3149.801758	166.265533
3149.200195	120.524223
3148.598633	141.282822
3147.996826	166.189865
3147.395020	108.007019
3146.793213	120.451088
3146.191162	120.432808
3145.589111	141.175644
3144.986816	124.547844
3144.384766	161.887619
3143.782227	166.013382
3143.179932	165.988174
3142.577393	153.515762
3141.974609	161.789337
3141.371826	149.321335
3140.769043	182.476135
3140.166260	170.008774
3139.563232	165.837021
3138.960205	111.922997
3138.356934	124.339996
3137.753662	157.473419
3137.150391	128.445648
3136.546875	182.282257
3135.943359	169.828125
3135.339600	153.236237
3134.735840	169.776535
3134.132080	128.348114
3133.528076	157.306046
3132.924072	132.448135
3132.320068	115.874504
3131.715820	148.958862
3131.111572	161.347595
3130.507080	153.050095
3129.902588	157.162689
3129.298096	140.597885
3128.693604	186.057159
3128.088867	152.957077
3127.483887	157.067169
3126.878906	169.441452
3126.273926	132.226883
3125.668945	161.127029
3125.063721	181.756699
3124.458252	152.817627
3123.853027	189.960587
3123.247559	165.158005
3122.641846	148.619614
3122.036133	140.341614
3121.430420	132.066147
3120.824707	206.321976
3120.218750	181.535721
3119.612549	132.005905
3119.006592	189.729630
3118.400391	181.452911
3117.793945	136.068985
3117.187500	152.538986
3116.581055	164.881927
3115.974609	131.885468
3115.367920	168.952545
3114.760986	177.167175
3114.154297	177.140228
3113.547363	177.113266
3112.940186	160.613174
3112.333008	197.647675
3111.725830	160.564301
3111.118408	168.772675
3110.510986	135.820740
3109.903564	189.297073
3109.295898	148.122986
3108.688232	176.897751
3108.080566	172.757538
3107.472656	127.492111
3106.864746	176.816971
3106.256592	160.344467
3105.648438	184.984680
3105.040039	164.405792
3104.431885	189.037872
3103.823486	156.137939
3103.214844	168.438965
3102.606201	127.336891
3101.997559	176.601685
3101.388672	143.723663
3100.779785	221.711319
3100.170898	180.626144
3099.561768	205.225723
3098.952637	168.259460
3098.343262	205.163193
3097.733887	164.105560
3097.124512	188.692627
3096.514893	176.359726
3095.905273	172.232086
3095.295410	184.506256
3094.685791	176.279114
3094.075684	180.351135
3093.465820	172.127121
3092.855713	172.100891
3092.245361	180.268692
3091.635254	208.915955
3091.024658	192.501038
3090.414307	171.995987
3089.803711	176.064285
3089.193115	171.943542
3088.582275	184.197144
3087.971436	163.705826
3087.360596	188.233002
3086.749512	204.569885
3086.138428	204.538696
3085.527100	188.146896
3084.915771	224.923950
3084.304443	208.534027
3083.692871	204.413956
3083.081299	216.645737
3082.469482	175.742371
3081.857910	200.234009
3081.245850	167.517197
3080.634033	183.832275
3080.021973	191.973312
3079.409668	200.111862
3078.797607	191.914734
3078.185059	191.885452
3077.572754	175.527985
3076.960205	208.152588
3076.347656	155.070419
3075.734863	175.447647
3075.122070	179.500427
3074.509033	191.709824
3073.895996	199.837173
3073.282959	212.039734
3072.669922	195.699112
3072.056641	187.516357
3071.443115	216.018463
3070.829834	232.286270
3070.216064	207.803360
3069.602539	215.919540
3068.988770	183.299911
3068.375000	195.490051
3067.760986	236.181076
3067.146973	228.002075
3066.532715	227.967255
3065.918701	203.511108
3065.304199	240.106415
3064.689941	183.104050
3064.075439	227.828003
3063.460693	219.657730
3062.846191	227.758408
3062.231445	203.324646
3061.616455	199.227707
3061.001465	231.719269
3060.386475	182.908310
3059.771240	223.520447
3059.156006	207.232742
3058.540771	251.891495
3057.925293	227.480133
3057.309814	178.707077
3056.694092	247.715118
3056.078369	190.833298
3055.462646	231.400757
3054.846680	215.129211
3054.230713	198.862640
3053.614502	227.236847
3052.998291	182.573120
3052.382080	247.450165
3051.765625	198.741043
3051.149170	206.821304
3050.532715	202.734970
3049.916016	198.649887
3049.299316	210.779892
3048.682373	222.906174
3048.065430	202.610977
3047.448486	234.992783
3046.831299	222.803909
3046.214111	243.021622
3045.596680	234.884964
3044.979248	166.013977
3044.361816	226.716095
3043.744141	242.872940
3043.126465	182.126831
3042.508545	206.378830
3041.890869	238.715439
3041.272705	222.497284
3040.654785	226.508026
3040.036621	202.208359
3039.418213	218.351608
3038.799805	177.888885
3038.181396	214.242447
3037.562988	218.251358
3036.944336	234.382233
3036.325439	242.427261
3035.706543	250.469818
3035.087646	282.745209
3034.468750	205.968536
3033.849609	266.506714
3033.230469	226.092270
3032.611084	250.278122
3031.991699	234.095291
3031.372070	217.917404
3030.752441	225.953812
3030.132813	193.645035
3029.513184	205.716324
3028.893066	225.849991
3028.273193	209.685730
3027.653076	266.098816
3027.032959	241.870941
3026.412598	205.558807
3025.792480	217.617157
3025.171875	237.730453
3024.551270	253.808884
3023.930664	221.545227
3023.310059	265.813538
3022.689209	249.665344
3022.068115	257.679565
3021.447266	269.716949
3020.826172	229.425522
3020.204834	209.268387
3019.583496	261.545380
3018.962158	285.644257
3018.340576	205.149628
3017.718994	269.468964
3017.097412	237.257187
3016.475586	269.386353
3015.853760	241.204514
3015.231689	289.401031
3014.609619	204.960953
3013.987549	285.294037
3013.365234	265.162231
3012.742920	237.002625
3012.120361	220.900757
3011.497803	281.103302
3010.875244	256.969299
3010.252441	264.958954
3009.629639	260.904388
3009.006836	232.771271
3008.383789	288.913086
3007.760498	268.808441
3007.137451	224.641235
3006.514160	220.595932
3005.890625	232.592743
3005.267090	272.653076
3004.643555	244.548309
3004.019775	288.602905
3003.395996	264.512054
3002.772217	272.485718
3002.148193	276.450439
3001.524170	276.407990
3000.899902	284.376160
3000.275635	268.313751
2999.651367	264.268494
2999.026855	284.245178
2998.402344	244.173157
2997.777588	280.155670
2997.152832	284.114258
2996.528076	300.074615
2995.903076	292.027771
2995.278076	271.984100
2994.653076	287.938904
2994.027832	287.894684
2993.402344	299.844238
2992.777100	303.795471
2992.151367	287.762024
2991.525879	271.733490
2990.900146	275.687225
2990.274414	319.588226
2989.648438	295.573700
2989.022461	335.464539
2988.396240	279.510834
2987.770264	295.437469
2987.143799	323.334534
2986.517578	291.355469
2985.891113	311.263489
2985.264404	303.235748
2984.637695	311.167816
2984.010986	271.232788
2983.384033	283.155426
2982.757080	366.849182
2982.130127	338.884644
2981.502930	358.763855
2980.875732	330.809143
2980.248291	322.788177
2979.620850	386.489380
2978.993408	350.575623
2978.365723	282.807281
2977.738037	350.467804
2977.110107	330.503998
2976.482178	354.341339
2975.854248	342.344604
2975.226074	346.272064
2974.597900	358.157379
2973.969482	358.102264
2973.341309	330.199066
2972.712646	377.880524
2972.083984	393.730713
2971.455322	421.505371
2970.826660	433.368073
2970.197754	433.301392
2969.568604	429.260071
2968.939697	445.090088
2968.310547	433.101349
2967.681152	429.061890
2967.051758	428.995850
2966.422363	401.128784
2965.792725	512.253967
2965.163086	524.086121
2964.533203	531.944946
2963.903564	460.418732
2963.273438	555.592224
2962.643311	551.538757
2962.013184	555.421143
2961.383057	591.035706
2960.752686	543.351868
2960.122314	606.715515
2959.491699	626.446350
2958.861084	614.457153
2958.230225	661.926025
2957.599609	681.639160
2956.968506	630.022827
2956.337646	590.307800
2955.706299	578.333313
2955.075195	653.495117
2954.443848	609.834839
2953.812500	589.944092
2953.180908	526.513245
2952.549316	566.013428
2951.917725	565.926208
2951.285889	569.795898
2950.653809	526.188721
2950.021973	589.398743
2949.389893	533.936707
2948.757568	620.852844
2948.125244	577.264587
2947.492920	525.783264
2946.860352	565.228699
2946.227783	592.805786
2945.595215	517.637268
2944.962402	549.164001
2944.329590	553.029480
2943.696533	489.750610
2943.063477	501.522034
2942.430420	485.651154
2941.797119	536.897339
2941.163574	481.554199
2940.530273	489.373016
2939.896729	532.702942
2939.262939	437.932648
2938.629150	489.146576
2937.995361	422.021027
2937.361328	481.108612
2936.727295	441.605316
2936.093262	524.325378
2935.458984	567.603088
2934.824707	504.458191
2934.190186	492.558929
2933.555664	480.663300
2932.921143	512.103149
2932.286377	559.287903
2931.651367	594.643921
2931.016602	570.927490
2930.381592	570.839355
2929.746338	614.049622
2929.111084	665.117737
2928.475830	594.184998
2927.840332	605.896423
2927.204834	566.465027
2926.569336	656.840637
2925.933594	664.604370
2925.297607	664.501709
2924.661865	636.879578
2924.025879	648.573425
2923.389648	675.984253
2922.753418	719.104736
2922.117188	734.709351
2921.480713	742.452454
2920.844238	687.349792
2920.207764	706.879089
2919.571045	710.696411
2918.934082	683.105347
2918.297363	714.402039
2917.660156	726.065674
2917.023193	631.775757
2916.385986	698.377014
2915.748779	686.500488
2915.111328	631.482849
2914.473877	631.385254
2913.836182	764.603027
2913.198486	670.394409
2912.560791	674.210571
2911.922852	740.733154
2911.284912	713.188293
2910.646729	728.750061
2910.008545	771.728821
2909.370361	724.607910
2908.731934	693.166321
2908.093506	736.130554
2907.455078	716.441772
2906.816406	802.447266
2906.177490	782.754333
2905.538574	794.372742
2904.899658	794.249817
2904.260498	805.862854
2903.621338	833.117615
2902.982178	872.096191
2902.342773	848.500427
2901.703369	848.369141
2901.063721	891.236084
2900.424072	797.298340
2899.784424	879.237061
2899.144531	875.193909
2898.504639	796.928223
2897.864502	820.240295
2897.224365	788.870972
2896.583984	777.034729
2895.943848	780.818542
2895.303223	827.539551
2894.662842	854.731628
2894.021973	799.967346
2893.381348	792.040161
2892.740479	862.136780
2892.099609	768.392090
2891.458496	811.171570
2890.817383	803.247437
2890.176025	881.096130
2889.534668	853.673340
2888.893311	923.695129
2888.251709	931.345764
2887.610107	849.380432
2886.968262	895.996521
2886.326416	915.332886
2885.684570	887.930054
2885.042480	973.456665
2884.400391	1027.810913
2883.758057	984.832886
2883.115723	1031.384521
2882.473389	1093.487305
2881.830811	1042.737305
2881.188232	1023.124634
2880.545410	1069.641235
2879.902588	1088.920532
2879.259766	1007.095337
2878.616699	1076.919556
2877.973633	1030.106323
2877.330322	975.534302
2876.687012	963.725098
2876.043457	1033.512573
2875.399902	920.693665
2874.756348	998.234497
2874.112549	1033.031982
2873.468750	997.924927
2872.824707	1036.593872
2872.180664	931.625305
2871.536621	985.817200
2870.892334	923.575195
2870.248047	915.671997
2869.603760	872.856934
2868.958984	973.569336
2868.314453	934.636719
2867.669678	977.144836
2867.024902	969.239319
2866.379883	984.594360
2865.734863	934.056763
2865.089844	1042.416138
2864.444580	918.268677
2863.799316	891.008545
2863.153809	925.730347
2862.508301	871.368225
2861.862549	859.616516
2861.216797	863.354614
2860.571045	820.640198
2859.925049	754.716980
2859.279053	712.032654
2858.632813	769.959229
2857.986572	680.863220
2857.340332	661.417786
2856.693848	734.794556
2856.047363	614.811523
2855.400635	634.046753
2854.753906	614.620544
2854.107178	602.930298
2853.460205	591.243652
2852.813232	567.969360
2852.166016	629.691345
2851.518799	618.005920
2850.871338	606.324097
2850.223877	586.923218
2849.576416	552.085388
2848.928711	590.600952
2848.281006	590.509216
2847.633301	686.890869
2846.985352	621.192383
2846.337158	644.242249
2845.688965	659.570679
2845.040771	671.037781
2844.392578	663.221619
2843.743896	670.829163
2843.095459	720.836548
2842.446777	701.453796
2841.798096	747.587219
2841.149170	755.176880
2840.500244	758.911804
2839.851074	812.718262
2839.202148	720.164368
2838.552734	804.764404
2837.903320	769.989685
2837.253906	831.459534
2836.604492	823.632751
2835.954834	835.049072
2835.304932	788.748535
2834.655029	773.238037
2834.005127	776.964111
2833.354980	742.231384
2832.704834	749.806213
2832.054688	726.622192
2831.404297	680.381592
2830.753906	649.528809
2830.103271	618.685547
2829.452637	553.272400
2828.801758	553.186279
2828.150879	587.668945
2827.500000	599.098633
2826.848877	564.447388
2826.197754	575.877075
2825.546387	606.496094
2824.895020	552.669861
2824.243408	610.144653
2823.591797	583.192078
2822.940186	487.196472
2822.288330	540.818970
2821.636475	460.199768
2820.984619	506.140930
2820.332520	529.064941
2819.680176	521.316101
2819.028076	597.887085
2818.375488	498.161652
2817.723145	547.892456
2817.070557	513.329773
2816.417725	543.891541
2815.764893	543.806824
2815.112061	516.918884
2814.458984	566.607971
2813.805908	524.413513
2813.152832	535.813477
2812.499512	531.903381
2811.845947	497.386047
2811.192383	489.657623
2810.538818	466.632202
2809.885010	500.977783
2809.231201	500.899689
2808.577393	512.290833
2807.923340	508.388489
2807.269287	565.637329
2806.614990	573.191711
2805.960693	496.688690
2805.306152	488.971069
2804.651611	492.714325
2803.997070	488.818604
2803.342285	507.833862
2802.687500	519.207764
2802.032471	503.858368
2801.377441	503.779785
2800.722412	518.964905
2800.067139	480.730713
2799.411621	518.802979
2798.756348	495.837250
2798.100586	511.014069
2797.445068	488.056671
2796.789307	510.854614
2796.133301	541.268921
2795.477539	541.184448
2794.821289	575.395081
2794.165283	510.535828
2793.509033	537.121765
2792.852539	517.994019
2792.196045	506.488617
2791.539551	548.293091
2790.882813	540.593506
2790.226074	491.025879
2789.569092	502.366638
2788.912109	582.197693
2788.255127	547.865234
2787.597900	551.583679
2786.940430	543.890686
2786.283203	517.185913
2785.625488	498.093933
2784.968018	566.445862
2784.310303	505.540466
2783.652588	501.661041
2782.994629	512.982300
2782.336426	512.902161
2781.678467	520.419434
2781.020264	505.145752
2780.361816	531.649292
2779.703369	512.581726
2779.044922	508.705353
2778.386230	508.625854
2777.727539	527.521973
2777.068604	519.850464
2776.409668	534.945007
2775.750732	553.828125
2775.091553	519.606812
2774.432373	553.654968
2773.772949	534.610657
2773.113525	515.572205
2772.453857	526.862732
2771.794189	564.678223
2771.134521	557.011536
2770.474609	530.404236
2769.814697	537.897339
2769.154541	549.175476
2768.494385	522.581848
2767.833984	564.148682
2767.173584	537.560974
2766.513184	526.121765
2765.852539	488.194885
2765.191895	571.363525
2764.531006	556.141052
2763.870117	612.794312
2763.209229	533.274536
2762.548096	567.224609
2761.886719	570.916748
2761.225586	585.948669
2760.563965	604.755615
2759.902588	578.207031
2759.240967	593.230713
2758.579102	551.580444
2757.917236	577.935608
2757.255371	600.505798
2756.593262	547.545349
2755.931152	596.542236
2755.269043	566.248901
2754.606689	520.867432
2753.944092	532.107300
2753.281494	596.168762
2752.618896	592.302734
2751.956055	550.717590
2751.293213	577.031494
2750.630371	561.857727
2749.967285	565.539978
2749.303955	621.996521
2748.640625	606.822754
2747.977295	621.801697
2747.313721	553.882019
2746.650146	527.424072
2745.986572	572.542114
2745.322754	576.218567
2744.658691	587.424927
2743.994873	572.273071
2743.330566	534.539734
2742.666504	605.967712
2742.002197	624.688660
2741.337646	583.202209
2740.673096	605.682861
2740.008545	624.395020
2739.343750	556.602295
2738.678955	601.637878
2738.013916	578.985657
2737.348877	624.003601
2736.683594	680.282776
2736.018311	605.018555
2735.353027	612.438293
2734.687500	623.612366
2734.021973	582.197327
2733.356201	627.172302
2732.690430	604.544373
2732.024658	668.273438
2731.358643	604.354736
2730.692383	634.285278
2730.026367	607.917786
2729.359863	675.358215
2728.693604	592.721436
2728.027100	637.638184
2727.360352	641.288391
2726.693604	637.438171
2726.026855	704.820984
2725.359863	614.747375
2724.692871	655.877502
2724.025635	726.972961
2723.358398	689.391907
2722.691162	685.537598
2722.023682	677.938965
2721.355957	696.557190
2720.688477	666.493103
2720.020508	730.032349
2719.352783	703.715515
2718.684814	684.892151
2718.016602	647.364685
2717.348389	651.004456
2716.680176	692.051208
2716.011719	613.397705
2715.343262	658.177124
2714.674561	601.987915
2714.005859	661.708862
2713.337158	635.439758
2712.668213	579.280579
2711.999023	653.923706
2711.329834	631.404236
2710.660645	668.660400
2709.991455	623.735962
2709.321777	608.700562
2708.652344	642.208862
2707.982666	619.708862
2707.312988	653.204834
2706.643066	690.422302
2705.972900	649.268127
2705.302979	660.358643
2704.632813	697.557373
2703.962402	678.799377
2703.291992	619.027405
2702.621582	637.572571
2701.950928	648.656067
2701.280273	667.190674
2700.609375	655.905579
2699.938477	637.171692
2699.267334	640.797058
2698.596191	651.871216
2697.925049	729.980957
2697.253662	688.904297
2696.582031	677.626282
2695.910645	666.351807
2695.239014	688.579285
2694.567139	628.927551
2693.895264	651.153870
2693.223145	654.771729
2692.551270	665.827881
2691.878906	650.846619
2691.206543	632.151489
2690.534180	672.949524
2689.861816	687.713135
2689.189209	602.118896
2688.516357	631.753723
2687.843506	687.388489
2687.170654	609.264709
2686.497559	646.313232
2685.824463	642.497620
2685.151123	620.116882
2684.477783	694.273010
2683.804199	642.194275
2683.130615	664.362244
2682.457031	716.210754
2681.783203	664.153076
2681.109375	712.275452
2680.435303	734.418396
2679.761230	656.422180
2679.086914	637.778687
2678.412598	708.119446
2677.738281	696.887390
2677.063721	663.421204
2676.389160	722.607605
2675.714355	685.442810
2675.039551	718.675415
2674.364502	718.562195
2673.689453	666.602173
2673.014404	666.497131
2672.339111	644.179016
2671.663574	662.585510
2670.988037	692.089172
2670.312500	695.680542
2669.636719	691.871033
2668.960938	680.664185
2668.285156	650.967468
2667.609131	680.449646
2666.932861	732.107544
2666.256592	598.902649
2665.580322	713.394958
2664.903809	731.761292
2664.227295	702.084473
2663.550781	657.638550
2662.874023	698.169067
2662.197021	775.621033
2661.520020	701.641724
2660.843018	719.992371
2660.165771	712.495422
2659.488525	712.383057
2658.811035	693.818054
2658.133545	752.747681
2657.455811	675.152405
2656.778076	730.377502
2656.100342	674.939392
2655.422363	696.958557
2654.744385	674.726379
2654.066162	696.738586
2653.387939	740.859009
2652.709473	644.924744
2652.031006	718.516968
2651.352539	781.033630
2650.673828	707.239563
2649.994873	714.493835
2649.316162	707.016296
2648.636963	725.313660
2647.958008	736.242737
2647.278809	736.126526
2646.599365	680.809509
2645.919922	728.535095
2645.240479	706.346741
2644.560791	702.556885
2643.880859	724.512268
2643.201172	724.397827
2642.520996	676.488098
2641.841064	731.520996
2641.160889	679.949768
2640.480469	661.468262
2639.800049	698.106201
2639.119629	753.100830
2638.438965	679.520203
2637.758301	686.757813
2637.077393	723.368530
2636.396484	719.582886
2635.715332	734.152161
2635.034180	701.004517
2634.353027	763.276917
2633.671631	704.451965
2632.989990	730.019714
2632.308350	788.590088
2631.626709	638.106873
2630.944824	751.673767
2630.262939	689.230835
2629.581055	714.780640
2628.898926	725.662537
2628.216553	776.849121
2627.534180	729.096863
2626.851807	732.644775
2626.169189	761.830017
2625.486572	692.130310
2624.803711	739.620117
2624.120850	684.589539
2623.437988	710.103577
2622.754883	768.547180
2622.071533	691.583069
2621.388184	739.035278
2620.704834	665.758118
2620.021240	727.829163
2619.337646	705.772827
2618.653809	756.848999
2617.969971	742.106445
2617.286133	771.229919
2616.602051	738.217041
2615.917725	792.909607
2615.233398	748.943481
2614.549072	796.311401
2613.864502	774.271973
2613.179932	748.587830
2612.495117	744.818237
2611.810303	803.108215
2611.125488	759.182068
2610.440430	675.127136
2609.755127	769.887878
2609.069824	806.247803
2608.384521	755.053650
2607.698975	780.463257
2607.013428	729.289368
2606.327637	736.465576
2605.641846	714.477173
2604.956055	769.034668
2604.270020	703.318359
2603.583740	757.860352
2602.897461	775.955139
2602.211182	808.613831
2601.524658	768.425598
2600.838135	764.662598
2600.151367	753.619385
2599.464600	786.260803
2598.777832	753.380493
2598.090820	789.650513
2597.403564	811.355530
2596.716309	771.211243
2596.029053	811.098267
2595.341553	767.330078
2594.654053	818.113220
2593.966309	763.451294
2593.278564	785.139648
2592.590820	748.671875
2591.902832	824.861938
2591.214600	737.534851
2590.526367	726.520081
2589.838135	788.149292
2589.149658	798.918579
2588.461182	758.852295
2587.772461	762.362183
2587.083740	820.316772
2586.394775	805.670044
2585.705811	798.285095
2585.016846	761.878479
2584.327637	823.423645
2583.638184	721.741455
2582.948975	786.899719
2582.259277	761.394958
2581.569824	808.400635
2580.879883	772.026917
2580.190186	800.896057
2579.500244	699.314026
2578.810059	691.957397
2578.119873	786.025757
2577.429688	800.387634
2576.739258	832.850342
2576.048584	767.548828
2575.358154	796.386475
2574.667236	752.827637
2573.976563	796.133545
2573.285645	767.061401
2572.594482	792.263000
2571.903320	813.839539
2571.212158	849.875183
2570.520752	824.428772
2569.829102	780.913696
2569.137451	795.248718
2568.445801	881.862976
2567.753906	827.518555
2567.062012	769.578369
2566.370117	747.781250
2565.677979	798.228943
2564.985596	859.494568
2564.293213	794.364502
2563.600830	765.356873
2562.908203	833.817627
2562.215332	826.467041
2561.522705	808.293396
2560.829590	790.125488
2560.136719	811.643677
2559.443604	811.514648
2558.750244	854.659485
2558.056885	861.734741
2557.363525	883.227783
2556.669922	796.580811
2555.976074	796.454102
2555.282227	785.517578
2554.588379	832.227966
2553.894287	824.891296
2553.200195	860.775818
2552.505859	810.224915
2551.811523	820.897278
2551.117188	766.768860
2550.422607	860.228149
2549.727783	741.333923
2549.032959	852.758118
2548.338135	859.817566
2547.643066	816.516846
2546.947998	823.579712
2546.252686	816.256958
2545.557373	870.056091
2544.861816	790.834229
2544.166260	862.590881
2543.470703	873.234253
2542.774902	887.467163
2542.078857	901.695496
2541.382813	822.531433
2540.686768	836.765503
2539.990479	786.362549
2539.294189	775.466919
2538.597656	875.850891
2537.901123	839.821594
2537.204346	850.453064
2536.507568	821.614868
2535.810791	875.293030
2535.113770	799.833008
2534.416504	810.463928
2533.719238	831.848145
2533.021973	849.640503
2532.324463	845.920715
2531.626953	802.779846
2530.929199	827.734802
2530.231445	845.516357
2529.533447	809.560364
2528.835449	866.736206
2528.137451	855.855103
2527.439209	834.236206
2526.740723	887.800842
2526.042236	851.866577
2525.343750	934.040894
2524.645020	905.266907
2523.946289	829.993835
2523.247314	865.631348
2522.548340	854.764099
2521.849121	829.596802
2521.149902	804.437561
2520.450684	807.883972
2519.751221	929.275818
2519.051514	854.082642
2518.351807	836.081421
2517.652100	928.831177
2516.952148	871.533264
2516.252197	817.824890
2515.552002	892.679504
2514.851807	874.686340
2514.151367	845.990112
2513.450928	881.545227
2512.750244	824.309509
2512.049561	834.881531
2511.348877	838.315613
2510.647949	923.783325
2509.946777	880.841919
2509.245605	830.783020
2508.544434	948.296204
2507.843018	883.984619
2507.141602	890.971252
2506.439941	901.518921
2505.738281	912.063232
2505.036377	886.982300
2504.334473	929.580017
2503.632568	865.332825
2502.930420	922.162170
2502.228027	893.535645
2501.525635	921.867615
2500.823242	896.808960
2500.120605	950.038696
2499.417969	900.080078
2498.715088	921.278625
2498.012207	974.478821
2497.309082	896.092834
2496.605957	895.949646
2495.902588	981.121338
2495.199219	899.217529
2494.495605	881.305542
2493.791992	906.036255
2493.088379	849.051208
2492.384521	941.266113
2491.680664	955.321167
2490.976563	930.312744
2490.272461	894.661560
2489.568115	926.465637
2488.863770	965.357727
2488.159180	901.329590
2487.454590	943.761169
2486.749756	915.230957
2486.044922	964.740356
2485.339844	946.854736
2484.634766	904.154785
2483.929688	928.826172
2483.224365	978.301575
2482.519043	868.280945
2481.813477	885.859192
2481.107666	836.117310
2480.402100	889.118103
2479.696045	913.767944
2478.990234	917.162903
2478.284180	853.285278
2477.577881	899.169189
2476.871582	927.341064
2476.165039	881.186890
2475.458496	1004.887634
2474.751953	916.282532
2474.045166	898.449829
2473.338379	965.502136
2472.631348	972.419678
2471.924072	852.056824
2471.217041	940.293884
2470.509521	957.815186
2469.802246	964.729431
2469.094482	936.309021
2468.386963	904.364990
2467.679199	861.834778
2466.971191	957.048462
2466.263184	974.550049
2465.554932	970.863525
2464.846680	945.999084
2464.138428	952.906067
2463.429932	952.753418
2462.721436	994.938599
2462.012695	874.841248
2461.303955	980.511658
2460.594971	885.140259
2459.885986	884.998413
2459.176758	927.160461
2458.467529	905.863281
2457.758057	955.056824
2457.048584	951.380127
2456.338867	979.412109
2455.629150	961.642578
2454.919434	926.269104
2454.209473	996.547974
2453.499512	1003.429810
2452.789307	961.026001
2452.078857	950.312866
2451.368408	974.794250
2450.657959	960.563721
2449.947266	995.589539
2449.236572	932.116272
2448.525879	935.483643
2447.814697	963.463867
2447.103760	1012.529480
2446.392578	963.154785
2445.681152	1005.175476
2444.969727	938.247498
2444.258301	980.258606
2443.546631	969.562561
2442.834717	979.944031
2442.122803	979.786743
2441.410889	997.185608
2440.698730	933.833801
2439.986572	989.845337
2439.274170	954.591187
2438.561768	989.527588
2437.849121	989.368713
2437.136475	957.639343
2436.423584	960.992859
2435.710693	978.372070
2434.997803	1023.794922
2434.284424	981.563477
2433.571289	970.890808
2432.857910	995.266052
2432.144287	995.106201
2431.430908	984.436401
2430.717041	977.272705
2430.003174	994.626770
2429.289307	1050.493286
2428.575195	945.292053
2427.861084	990.646973
2427.146729	951.988220
2426.432373	1004.326172
2425.717773	1007.663635
2425.003174	1024.993042
2424.288330	1056.307739
2423.573486	968.709290
2422.858643	1076.947632
2422.143555	1034.822266
2421.428223	992.710449
2420.712891	1006.530457
2419.997559	971.425293
2419.281982	1048.132080
2418.566162	1058.443237
2417.850586	1075.736328
2417.134521	1040.642456
2416.418457	995.085205
2415.702393	984.452271
2414.986084	949.389893
2414.269775	970.176270
2413.553223	1025.848755
2412.836670	1102.435547
2412.120117	1025.518677
2411.403076	1070.692505
2410.686279	1018.214722
2409.969238	1014.564392
2409.251953	1084.119385
2408.534668	1038.635376
2407.817383	979.226807
2407.099854	1059.206543
2406.382080	1017.231995
2405.664307	992.686523
2404.946533	1051.730103
2404.228516	1020.222900
2403.510498	1023.540039
2402.792236	1075.588257
2402.073975	1005.809021
2401.355469	991.728088
2400.636963	1022.881042
2399.918213	1022.716370
2399.199463	1064.288452
2398.480469	1050.207031
2397.761475	1029.176270
2397.042480	1042.916016
2396.323242	1063.603027
2395.603760	1032.154297
2394.884277	1045.886841
2394.164795	1049.192505
2393.445068	1045.549927
2392.725098	986.339966
2392.005127	1055.630371
2391.285156	1031.156982
2390.564941	1037.933472
2389.844727	1096.769653
2389.124268	1065.360840
2388.403809	1141.521851
2387.683105	1089.301147
2386.962402	1057.908691
2386.241455	1023.058167
2385.520508	1036.762939
2384.799316	1092.065796
2384.078125	1078.024536
2383.356689	1129.837036
2382.635254	1150.446045
2381.913818	966.634644
2381.192139	1091.185669
2380.470215	1063.301514
2379.748291	1052.741211
2379.026367	1163.368286
2378.304199	1097.405640
2377.581787	1097.228516
2376.859375	1103.973022
2376.136963	1096.874634
2375.414307	1103.616821
2374.691650	1176.078979
2373.968750	1137.845703
2373.245850	1078.877075
2372.522705	1092.532593
2371.799316	1085.442627
2371.076172	1067.986084
2370.352783	1081.636597
2369.629150	1109.103149
2368.905518	1067.468994
2368.181641	1077.658813
2367.457764	1129.286987
2366.733643	1118.745850
2366.009521	1125.469971
2365.285400	1090.770264
2364.561035	1118.204102
2363.836426	1028.305542
2363.111816	1121.293091
2362.387207	1083.166626
2361.662354	1131.277954
2360.937256	1069.022949
2360.212158	1124.016724
2359.487061	1092.809082
2358.761719	1085.738892
2358.036377	1140.703247
2357.310791	1078.496704
2356.584961	1074.877319
2355.859375	1119.483032
2355.133301	1077.973999
2354.407471	1153.555786
2353.681152	1170.583740
2352.955078	1177.279297
2352.228516	1135.787598
2351.502197	1087.426880
2350.775635	1035.641113
2350.048828	1090.515381
2349.322021	1176.328003
2348.594971	1079.845825
2347.867920	1145.001709
2347.140869	1127.627075
2346.413330	1168.692749
2345.686035	1120.388916
2344.958496	1113.335205
2344.230713	1133.769165
2343.502930	1150.761353
2342.775146	1102.491455
2342.047119	1071.407104
2341.319092	1129.602295
2340.590820	1160.315552
2339.862305	1191.018799
2339.133789	1156.508301
2338.405273	1146.027466
2337.676514	1138.980713
2336.947754	1101.065186
2336.218750	1145.471191
2335.489746	1200.149780
2334.760498	1165.671143
2334.031250	1175.766113
2333.301758	1185.857788
2332.572266	1130.837280
2331.842529	1206.031250
2331.112793	1243.518311
2330.382813	1147.413696
2329.652832	1075.312134
2328.922607	1212.098267
2328.192383	1259.830322
2327.462158	1132.979126
2326.731689	1194.397827
2326.000977	1201.047852
2325.270264	1146.113647
2324.539307	1111.721191
2323.808350	1176.523438
2323.077393	1145.556641
2322.346191	1128.276001
2321.614746	1213.554810
2320.883301	1199.686523
2320.151855	1226.830933
2319.420166	1175.380127
2318.688232	1175.189697
2317.956299	1144.257935
2317.224365	1195.299561
2316.492188	1126.814087
2315.760010	1160.771729
2315.027588	1276.641968
2314.295166	1218.415161
2313.562500	1269.403320
2312.829590	1149.783691
2312.096924	1214.411377
2311.363770	1275.607300
2310.630615	1227.658203
2309.897461	1285.422485
2309.164063	1237.487183
2308.430664	1244.103516
2307.697021	1257.533447
2306.963379	1240.292480
2306.229492	1199.209229
2305.495605	1246.702759
2304.761719	1253.311890
2304.027344	1270.134521
2303.293213	1191.621826
2302.558838	1293.550903
2301.824219	1187.831543
2301.089600	1252.295410
2300.354736	1262.299438
2299.619873	1272.300171
2298.885010	1217.672485
2298.149658	1248.081787
2297.414551	1268.280396
2296.679199	1189.882324
2295.943604	1213.482910
2295.208008	1243.872925
2294.472412	1281.048950
2293.736572	1209.494385
2293.000488	1287.426758
2292.264404	1232.876099
2291.528320	1229.280029
2290.791992	1249.451904
2290.055420	1279.801270
2289.318848	1225.286987
2288.582275	1286.172607
2287.845459	1238.461060
2287.108398	1319.679688
2286.371582	1326.249146
2285.634277	1220.900513
2284.896973	1217.311279
2284.159668	1335.773560
2283.422119	1250.813110
2282.684570	1233.663818
2281.946777	1321.567871
2281.208740	1341.681519
2280.470703	1304.200562
2279.732666	1243.022827
2278.994385	1391.823853
2278.256104	1279.863403
2277.517578	1316.894043
2276.779053	1238.829956
2276.040283	1286.007690
2275.301514	1363.623169
2274.562500	1376.933960
2273.823486	1339.501587
2273.084229	1305.463501
2272.344971	1362.736328
2271.605469	1392.942993
2270.865967	1335.249878
2270.126221	1345.172241
2269.386475	1341.574097
2268.646484	1371.764282
2267.906494	1374.919312
2267.166260	1276.744263
2266.426025	1252.896973
2265.685547	1333.729858
2264.945068	1245.737183
2264.204346	1340.046509
2263.463623	1343.203369
2262.722656	1396.973999
2261.981689	1295.533081
2261.240723	1312.188354
2260.499268	1251.266357
2259.758057	1284.783936
2259.016602	1311.547485
2258.274902	1264.139404
2257.533203	1321.231812
2256.791260	1294.057129
2256.049316	1327.540283
2255.307129	1286.897949
2254.564941	1239.532227
2253.822754	1330.259399
2253.080322	1309.839478
2252.337646	1296.159546
2251.594971	1306.046631
2250.852051	1289.006104
2250.109131	1346.001099
2249.366211	1362.604004
2248.623047	1278.284302
2247.879639	1311.709595
2247.136230	1341.761108
2246.392578	1321.368896
2245.648926	1290.898071
2244.905273	1371.355591
2244.161377	1327.443970
2243.417236	1323.867554
2242.673096	1414.358765
2241.928955	1363.743530
2241.184570	1276.202026
2240.439941	1349.867310
2239.695313	1389.935181
2238.950439	1369.567749
2238.205566	1345.850708
2237.460693	1298.651611
2236.715576	1254.822876
2235.970215	1418.993286
2235.224854	1355.034912
2234.479492	1364.874390
2233.733887	1354.592773
2232.988037	1300.733276
2232.242188	1374.261963
2231.496338	1367.335083
2230.750244	1357.059570
2230.003906	1386.990112
2229.257568	1370.015381
2228.511230	1309.507568
2227.764648	1409.751099
2227.017822	1309.080078
2226.270996	1365.773560
2225.523926	1372.244507
2224.776855	1425.562622
2224.029785	1388.525635
2223.282471	1465.240723
2222.534912	1381.382690
2221.787354	1377.812866
2221.039795	1370.900513
2220.291992	1330.559204
2219.543945	1423.933838
2218.795898	1430.385254
2218.047852	1486.956665
2217.299561	1459.986328
2216.551025	1396.280518
2215.802490	1446.149902
2215.053955	1435.895752
2214.305176	1459.032349
2213.556152	1395.368164
2212.807129	1428.516602
2212.058105	1441.631592
2211.308838	1424.713135
2210.559326	1454.504517
2209.809814	1420.911987
2209.060303	1347.311279
2208.310547	1427.116211
2207.560547	1360.206055
2206.810547	1439.982788
2206.060303	1383.090576
2205.310059	1436.179688
2204.559814	1452.603027
2203.809326	1439.041016
2203.058594	1348.880371
2202.307861	1405.270142
2201.557129	1451.652954
2200.806152	1404.810425
2200.054932	1394.595459
2199.303711	1334.466064
2198.552246	1390.811890
2197.800781	1360.643433
2197.049316	1370.399536
2196.297607	1376.826538
2195.545654	1409.852539
2194.793701	1353.103882
2194.041504	1392.770874
2193.289307	1402.513428
2192.537109	1372.377319
2191.784668	1428.633545
2191.031982	1428.399658
2190.279297	1468.021606
2189.526367	1331.629517
2188.773438	1354.653076
2188.020508	1450.702148
2187.267090	1413.953979
2186.513916	1387.173706
2185.760498	1403.536743
2185.006836	1396.671875
2184.253174	1432.929810
2183.499268	1495.707031
2182.745361	1475.566772
2181.991211	1392.441650
2181.237061	1445.250244
2180.482666	1391.985352
2179.728271	1312.228271
2178.973877	1441.226685
2178.218994	1431.052734
2177.464355	1407.633667
2176.709229	1433.895264
2175.954346	1486.636108
2175.198975	1483.081909
2174.443848	1419.950562
2173.688232	1429.645874
2172.932861	1436.029175
2172.177002	1379.552979
2171.421387	1425.635132
2170.665283	1438.630127
2169.909424	1421.860962
2169.153076	1500.974487
2168.396729	1414.783569
2167.640381	1440.991699
2166.883789	1467.191162
2166.127197	1374.440186
2165.370361	1407.248657
2164.613525	1324.446411
2163.856445	1433.205566
2163.099365	1446.177490
2162.342041	1511.964844
2161.584473	1511.716797
2160.826904	1544.470215
2160.069336	1455.127319
2159.311523	1550.561523
2158.553711	1484.336426
2157.795654	1520.370728
2157.037354	1434.387573
2156.279053	1460.527344
2155.520752	1456.991211
2154.762207	1453.456177
2154.003662	1476.284546
2153.244873	1452.979004
2152.485840	1370.385498
2151.726807	1521.668579
2150.967773	1514.832397
2150.208252	1475.072754
2149.448975	1497.874756
2148.689453	1461.422241
2147.929688	1494.091675
2147.169922	1562.944946
2146.410156	1381.745361
2145.650146	1503.223511
2144.889893	1519.420410
2144.129639	1486.288330
2143.369141	1436.728394
2142.608643	1429.917969
2141.847900	1455.976074
2141.087158	1491.883667
2140.326416	1468.639648
2139.565186	1415.838135
2138.804199	1464.872437
2138.042725	1559.865479
2137.281494	1503.791504
2136.519775	1503.544189
2135.758301	1503.296997
2134.996338	1522.740356
2134.234619	1509.365112
2133.472412	1489.432739
2132.710449	1443.265747
2131.947998	1531.577759
2131.185547	1495.256104
2130.423096	1563.859253
2129.660400	1481.652222
2128.897705	1455.188843
2128.134766	1533.595337
2127.371826	1484.197510
2126.608643	1559.297485
2125.845215	1493.534912
2125.081787	1509.662964
2124.318359	1483.220825
2123.554688	1479.703003
2122.790771	1574.380493
2122.026855	1479.215942
2121.262939	1550.957764
2120.498779	1603.046875
2119.734375	1583.157104
2118.969971	1543.651001
2118.205322	1461.649170
2117.440674	1556.220215
2116.676025	1529.813354
2115.911133	1617.805298
2115.145996	1529.309448
2114.380859	1483.316528
2113.615479	1626.806152
2112.850098	1557.949219
2112.084473	1541.364502
2111.318848	1577.026367
2110.552979	1622.469849
2109.787109	1534.074829
2109.020996	1566.456665
2108.254883	1553.146851
2107.488525	1588.777100
2106.722168	1591.777100
2105.955566	1558.901733
2105.188965	1561.905518
2104.422119	1529.045776
2103.655029	1613.545654
2102.887939	1616.538818
2102.120850	1635.823975
2101.353516	1599.715454
2100.585938	1531.043457
2099.818359	1582.902954
2099.050781	1693.361816
2098.282959	1611.684326
2097.514893	1683.037109
2096.746826	1617.662476
2095.978760	1672.719116
2095.210449	1617.128906
2094.441895	1616.862183
2093.673340	1577.562866
2092.904541	1681.372070
2092.135742	1638.823486
2091.366699	1573.531128
2090.597656	1638.282715
2089.828369	1517.761475
2089.059082	1614.995605
2088.289551	1598.484253
2087.520020	1620.959351
2086.750244	1620.691895
2085.980469	1626.918945
2085.210449	1659.118530
2084.440186	1645.859497
2083.670166	1583.918823
2082.899658	1651.806519
2082.129150	1641.799805
2081.358643	1609.087402
2080.587891	1556.924194
2079.816895	1605.312866
2079.045898	1624.502930
2078.274902	1530.217041
2077.503662	1539.688599
2076.732178	1665.829956
2075.960693	1688.237427
2075.188965	1636.120972
2074.417236	1720.072632
2073.645264	1574.043701
2072.873291	1641.786621
2072.101074	1615.613647
2071.328857	1641.244019
2070.556396	1673.339111
2069.783936	1682.770874
2069.011230	1617.781372
2068.238525	1701.624756
2067.465576	1714.281372
2066.692627	1746.337646
2065.919434	1691.080688
2065.145996	1655.239258
2064.372559	1625.874390
2063.599121	1716.096558
2062.825439	1654.418335
2062.051514	1573.375854
2061.277588	1695.863892
2060.503662	1695.583496
2059.729248	1679.157227
2058.955078	1740.223145
2058.180664	1775.444092
2057.406006	1804.198364
2056.631348	1674.819336
2055.856445	1735.845337
2055.081543	1664.587280
2054.306396	1667.537231
2053.531250	1657.586670
2052.755859	1699.228760
2051.980225	1750.528564
2051.204590	1766.355103
2050.428955	1727.389893
2049.653076	1707.770630
2048.877197	1746.148071
2048.101074	1752.301270
2047.324707	1648.951660
2046.548340	1725.960449
2045.771851	1661.283813
2044.995239	1686.760742
2044.218506	1676.825928
2043.441528	1692.637939
2042.664551	1689.140137
2041.887329	1775.716064
2041.110107	1666.066162
2040.332642	1749.401245
2039.555176	1713.743408
2038.777466	1652.379272
2037.999634	1716.389771
2037.221802	1671.113892
2036.443726	1796.149658
2035.665527	1705.898804
2034.887207	1724.888550
2034.108765	1769.564453
2033.330200	1708.261719
2032.551514	1762.556885
2031.772705	1720.535278
2030.993774	1778.019653
2030.214600	1697.502563
2029.435425	1783.846802
2028.656128	1745.057129
2027.876587	1818.535522
2027.097046	1744.478394
2026.317261	1737.776611
2025.537476	1708.637085
2024.757446	1730.789917
2023.977295	1759.344482
2023.197021	1864.788086
2022.416626	1848.460815
2021.636230	1806.514648
2020.855591	1774.189819
2020.074707	1799.511230
2019.293823	1808.817017
2018.512817	1725.293091
2017.731689	1779.413208
2016.950439	1887.912964
2016.168945	1830.011841
2015.387451	1826.509277
2014.605713	1775.033936
2013.823975	1749.157349
2013.041992	1716.895020
2012.260010	1751.773315
2011.477783	1719.521118
2010.695435	1821.494995
2009.912964	1821.192505
2009.130371	1801.722778
2008.347656	1747.125366
2007.564819	1801.124390
2006.781860	1778.474487
2005.998779	1838.835083
2005.215576	1656.591797
2004.432129	1819.076050
2003.648682	1777.292969
2002.864990	1780.187988
2002.081299	1732.045654
2001.297363	1770.028687
2000.513428	1696.394287
1999.729248	1801.322266
1998.944946	1852.025391
1998.160522	1858.091797
1997.375977	1778.118164
1996.591309	1870.218262
1995.806519	1818.938843
1995.021606	1713.531372
1994.236572	1872.470215
1993.451416	1833.951538
1992.666016	1795.445557
1991.880615	1769.683960
1991.094971	1848.948486
1990.309326	1759.549927
1989.523438	1733.806885
1988.737549	1841.664551
1987.951416	1815.916260
1987.165161	1872.848999
1986.378784	1818.491333
1985.592285	1760.973022
1984.805664	1830.598755
1984.018921	1808.051025
1983.232056	1804.573120
1982.444946	1858.273926
1981.657837	1870.668701
1980.870605	1794.145752
1980.083130	1924.020142
1979.295654	1866.560303
1978.507935	1812.293335
1977.720093	1758.044434
1976.932129	1840.245483
1976.144165	1849.456055
1975.355957	1839.632690
1974.567627	1807.613892
1973.779053	1835.849365
1972.990479	1791.160889
1972.201782	1908.140259
1971.412964	1844.439697
1970.623901	1936.022217
1969.834839	1837.489136
1969.045532	1786.502075
1968.256226	1811.540649
1967.466675	1865.069336
1966.677002	1947.073975
1965.887207	1880.275146
1965.097290	1854.642456
1964.307251	1879.648438
1963.517090	1752.780640
1962.726807	1822.081909
1961.936401	1945.127808
1961.145874	1894.207031
1960.355103	1865.435425
1959.564331	1852.479492
1958.773315	1782.635254
1957.982178	1845.541504
1957.191040	1908.426758
1956.399658	1895.472046
1955.608154	1835.142578
1954.816528	1847.468872
1954.024780	1825.057861
1953.232910	1796.340332
1952.440918	1843.388062
1951.648682	1884.108032
1950.856445	1924.814331
1950.063965	1911.873535
1949.271484	1971.487793
1948.478760	1819.773804
1947.685913	1838.390137
1946.893066	1838.083374
1946.099976	1941.801636
1945.306763	1906.808350
1944.513428	1834.011963
1943.719971	1821.103027
1942.926270	1852.300659
1942.132568	1880.338257
1941.338745	1785.550781
1940.544678	1948.979492
1939.750610	1829.027466
1938.956299	1787.804077
1938.161865	1790.652466
1937.367310	1913.066650
1936.572632	1818.368164
1935.777832	2022.518066
1934.982910	1842.920044
1934.187866	1892.922485
1933.392700	1848.592163
1932.597290	1854.569946
1931.801880	1935.973267
1931.006226	1731.401001
1930.210571	1834.789917
1929.414673	1837.624512
1928.618652	1871.865234
1927.822510	1884.113159
1927.026245	1984.267456
1926.229858	1999.631592
1925.433350	1870.614136
1924.636719	1738.501587
1923.839844	1951.565430
1923.042969	1966.924316
1922.245850	1844.271362
1921.448730	1963.130615
1920.651367	1937.718628
1919.853882	1862.155884
1919.056274	1868.113281
1918.258545	1830.194092
1917.460693	2052.357178
1916.662720	1835.847534
1915.864624	1932.642456
1915.066284	1916.660156
1914.267944	1913.208130
1913.469360	1890.972778
1912.670776	1890.656372
1911.871948	1837.135132
1911.072998	1908.798706
1910.273926	1858.420776
1909.474731	1961.338135
1908.675415	1860.926392
1907.875977	1932.537842
1907.076294	1850.923706
1906.276611	1903.756470
1905.476807	1912.814331
1904.676758	1965.618896
1903.876587	2005.907837
1903.076294	1971.208496
1902.275879	1886.546021
1901.475342	1976.794189
1900.674683	1988.952515
1899.873901	1935.547974
1899.072998	1994.528931
1898.271851	1931.778687
1897.470703	1984.499878
1896.669312	1940.490845
1895.867920	2027.504272
1895.066284	2055.232910
1894.264526	1883.388062
1893.462646	2010.896851
1892.660645	1926.396973
1891.858521	1954.123657
1891.056152	1913.286865
1890.253784	1937.890747
1889.451172	1897.070190
1888.648560	1949.699219
1887.845703	1983.626465
1887.042725	1967.726440
1886.239624	1967.396484
1885.436401	1954.616821
1884.633057	1985.408325
1883.829590	1988.186768
1883.025879	1931.857422
1882.222168	1937.754150
1881.418213	1990.296265
1880.614258	2055.258057
1879.810059	2011.390137
1879.005737	1998.619629
1878.201294	1988.961060
1877.396729	2010.377930
1876.592041	1882.665527
1875.787231	1956.898071
1874.982178	1981.415039
1874.177124	1993.503052
1873.371826	2008.691528
1872.566406	1952.480591
1871.760986	2014.224487
1870.955322	2016.989380
1870.149536	1954.599976
1869.343506	1972.883911
1868.537476	1947.740601
1867.731323	2049.745850
1866.924927	2027.698364
1866.118530	1971.559082
1865.311890	1980.526123
1864.505127	2076.259277
1863.698242	1865.221069
1862.891235	2072.463867
1862.084106	2003.974487
1861.276855	2034.605957
1860.469482	2021.878906
1859.661865	2040.113770
1858.854126	2073.818848
1858.046387	2033.238770
1857.238403	2014.331787
1856.430298	2010.899536
1855.622070	2007.468384
1854.813721	1948.370605
1854.005249	2034.622803
1853.196533	2003.364624
1852.387817	1990.663452
1851.578857	2083.045898
1850.769775	2011.624512
1849.960693	2026.733887
1849.151367	2001.680908
1848.341919	1998.255859
1847.532227	2050.415283
1846.722534	1994.496338
1845.912720	2040.464844
1845.102661	2018.516724
1844.292603	1922.514282
1843.482300	1894.422485
1842.671875	2045.261841
1841.861328	2001.736938
1841.050659	2044.573608
1840.239868	1991.813354
1839.428833	1945.236450
1838.617798	2037.377075
1837.806519	2129.486572
1836.995117	2039.772461
1836.183716	2036.348389
1835.372070	2045.246216
1834.560303	1998.706787
1833.748291	1955.262085
1832.936279	2096.550049
1832.124146	2028.478516
1831.311768	2052.757813
1830.499390	1987.793335
1829.686768	2024.377319
1828.874023	1940.983154
1828.061157	2115.961182
1827.248169	2097.154785
1826.434937	1952.300415
1825.621704	1970.415283
1824.808228	2142.196777
1823.994751	2052.720703
1823.181030	2046.229980
1822.367188	2005.950439
1821.553223	2014.826538
1820.739136	2158.817627
1819.924927	1946.599854
1819.110474	2047.576050
1818.296021	2093.270508
1817.481323	2053.023438
1816.666626	2074.155273
1815.851685	2061.534424
1815.036621	2162.405762
1814.221436	2140.574219
1813.406006	2137.146973
1812.590576	1943.648071
1811.774902	1992.363037
1810.959229	2056.384766
1810.143311	1957.985474
1809.327271	2018.927612
1808.511108	2073.722900
1807.694824	1999.870972
1806.878418	2140.388916
1806.061768	2060.427246
1805.245117	1992.736816
1804.428223	2053.610840
1803.611206	2172.604736
1802.794067	2098.810303
1801.976807	2141.281494
1801.159424	2091.984863
1800.341919	2171.138184
1799.524170	2222.747803
1798.706421	2057.299561
1797.888428	2108.910889
1797.070313	2074.940186
1796.252075	2099.032715
1795.433716	2150.610596
1794.615234	2150.247314
1793.796509	2073.538818
1792.977783	2085.401855
1792.158813	2048.416260
1791.339844	2109.115479
1790.520630	2090.448730
1789.701294	2044.327148
1788.881714	1992.119507
1788.062134	2098.540039
1787.242432	2137.831299
1786.422485	2100.880127
1785.602417	2033.454468
1784.782349	2033.110840
1783.962036	2112.005615
1783.141479	2093.365723
1782.320923	2093.011963
1781.500244	2238.870117
1780.679321	2186.717041
1779.858398	2180.257080
1779.037231	1988.082642
1778.215942	2002.966553
1777.394531	2163.933838
1776.572998	2160.524902
1775.751221	2144.947021
1774.929443	2156.752197
1774.107422	2083.392578
1773.285278	2095.203857
1772.463013	2128.293945
1771.640625	2112.734375
1770.818115	2142.770752
1769.995483	2139.369385
1769.172607	2145.084229
1768.349731	2132.569824
1767.526611	2080.574219
1766.703369	2213.842041
1765.880005	2122.378174
1765.056519	2076.482178
1764.232910	2118.624512
1763.409058	2154.683105
1762.585083	2145.215576
1761.761108	2117.548584
1760.936890	2174.821289
1760.112549	2062.242676
1759.288086	2146.795166
1758.463379	2164.621582
1757.638672	2164.254883
1756.813721	2169.949707
1755.988647	2172.612305
1755.163574	2169.214600
1754.338257	2135.526855
1753.512695	2232.080322
1752.687134	2246.842529
1751.861328	2070.862549
1751.035522	2221.864746
1750.209473	2121.612061
1749.383301	2163.616943
1748.557007	2105.765381
1747.730591	2096.333496
1746.903931	2216.958008
1746.077271	2150.054443
1745.250366	2107.361328
1744.423340	2206.761719
1743.596313	2176.163086
1742.768921	2196.947754
1741.941528	2193.553711
1741.114014	2081.407959
1740.286255	2226.034180
1739.458374	2174.318604
1738.630493	2204.143555
1737.802368	2095.090576
1736.973999	2197.359131
1736.145630	2221.129150
1735.317139	2211.700195
1734.488403	2223.392334
1733.659546	2223.014893
1732.830566	2135.179932
1732.001465	2180.046631
1731.172241	2252.031006
1730.342896	2251.648926
1729.513306	2305.514160
1728.683594	2184.593506
1727.853882	2108.904541
1727.023926	2259.156982
1726.193726	2147.340576
1725.363525	2264.412354
1724.533203	2134.568848
1723.702637	2296.755127
1722.871948	2181.998291
1722.041138	2238.801514
1721.210205	2130.110352
1720.379150	2180.886719
1719.547974	2318.866211
1718.716553	2234.273682
1717.885010	2224.874268
1717.053467	2167.380859
1716.221558	2227.123779
1715.389648	2250.785889
1714.557617	2196.321533
1713.725342	2201.956299
1712.893066	2204.585693
1712.060547	2270.277100
1711.227905	2224.853760
1710.395142	2125.409912
1709.562256	2284.126953
1708.729126	2226.720215
1707.895874	2235.343018
1707.062622	2231.963135
1706.229126	2264.577393
1705.395508	2336.166504
1704.561646	2260.808838
1703.727783	2197.468262
1702.893677	2191.099609
1702.059570	2250.664795
1701.225220	2289.234863
1700.390747	2294.837158
1699.556030	2267.488525
1698.721313	2321.010010
1697.886353	2269.711182
1697.051392	2287.288086
1696.216187	2241.999023
1695.380859	2211.689209
1694.545410	2283.128174
1693.709717	2423.353760
1692.874023	2255.429443
1692.038086	2296.916260
1691.202026	2266.622559
1690.365845	2293.144531
1689.529541	2340.582031
1688.692993	2214.656494
1687.856445	2303.926270
1687.019653	2276.644287
1686.182739	2300.154297
1685.345703	2326.642822
1684.508545	2412.846436
1683.671143	2179.551758
1682.833740	2292.617188
1681.996094	2331.027344
1681.158325	2288.852051
1680.320435	2330.233154
1679.482422	2335.802246
1678.644287	2380.143799
1677.805908	2323.077881
1676.967407	2418.093750
1676.128784	2417.681641
1675.290039	2262.278076
1674.451172	2276.792969
1673.612183	2371.751465
1672.772949	2323.681885
1671.933594	2341.157227
1671.094116	2403.297363
1670.254517	2319.515869
1669.414795	2345.913818
1668.574829	2410.997803
1667.734863	2342.137695
1666.894653	2317.934082
1666.054321	2305.638672
1665.213867	2269.551270
1664.373169	2322.696045
1663.532471	2319.326172
1662.691528	2393.255371
1661.850464	2422.571777
1661.009277	2341.915039
1660.167969	2400.944824
1659.326538	2388.651123
1658.484863	2313.982178
1657.643066	2417.535156
1656.801147	2357.733887
1655.959106	2401.865234
1655.116943	2401.455322
1654.274658	2415.884766
1653.432129	2367.993896
1652.589478	2400.225342
1651.746704	2429.479492
1650.903809	2464.655273
1650.060791	2369.342041
1649.217529	2229.588135
1648.374146	2537.501953
1647.530640	2439.260986
1646.687012	2471.441162
1645.843262	2441.390381
1644.999390	2440.973389
1644.155273	2342.815430
1643.311035	2422.371338
1642.466675	2427.878906
1641.622192	2409.702148
1640.777588	2427.049072
1639.932739	2453.268066
1639.087769	2464.684082
1638.242798	2434.679688
1637.397461	2449.052490
1636.552124	2504.822266
1635.706665	2436.387939
1634.860962	2447.796387
1634.015137	2417.820313
1633.169189	2390.809326
1632.323120	2422.902832
1631.476929	2508.161865
1630.630493	2430.935303
1629.783936	2527.976563
1628.937256	2450.772949
1628.090454	2417.879150
1627.243530	2435.175781
1626.396484	2520.344482
1625.549194	2428.441162
1624.701782	2498.830566
1623.854248	2463.006592
1623.006592	2335.769287
1622.158691	2391.394775
1621.310791	2491.224121
1620.462646	2476.059082
1619.614380	2384.272461
1618.765991	2401.544434
1617.917358	2471.841553
1617.068726	2480.255127
1616.219849	2541.678955
1615.370850	2426.401855
1614.521729	2561.417725
1613.672363	2525.655273
1612.822998	2525.222656
1611.973389	2560.101807
1611.123657	2530.241699
1610.273804	2515.100098
1609.423828	2576.433105
1608.573608	2555.407227
1607.723389	2522.627930
1606.872925	2601.565430
1606.022339	2501.189697
1605.171509	2477.252197
1604.320679	2515.022949
1603.469604	2561.593506
1602.618408	2490.664063
1601.767090	2504.920166
1600.915649	2563.212646
1600.064087	2545.159668
1599.212280	2709.088135
1598.360352	2588.305664
1597.508301	2681.752441
1596.656128	2566.882813
1595.803833	2563.509521
1594.951294	2645.182129
1594.098633	2542.105713
1593.245850	2658.932373
1592.392944	2655.545166
1591.539795	2672.673096
1590.686646	2581.382568
1589.833252	2680.544678
1588.979736	2706.446289
1588.126099	2638.625000
1587.272217	2579.611328
1586.418335	2658.212158
1585.564209	2728.005127
1584.709961	2674.859131
1583.855591	2604.175049
1583.000977	2638.834229
1582.146362	2729.057373
1581.291504	2705.192627
1580.436523	2742.740479
1579.581421	2710.110596
1578.726074	2662.876709
1577.870605	2761.785400
1577.015137	2822.673340
1576.159424	2734.542969
1575.303467	2944.386475
1574.447510	2841.662598
1573.591309	2803.214355
1572.734985	2910.754639
1571.878540	2860.631348
1571.021973	2973.961670
1570.165161	2847.976318
1569.308350	2867.909424
1568.451294	2963.677734
1567.594116	2942.752686
1566.736694	2846.018799
1565.879272	2871.769043
1565.021606	2952.895508
1564.163818	2943.644287
1563.305908	3056.784180
1562.447876	3021.296387
1561.589600	3064.471924
1560.731201	2991.132568
1559.872681	3142.041748
1559.014038	3287.076172
1558.155273	3228.290771
1557.296265	3195.720215
1556.437134	3253.370117
1555.577881	3165.525879
1554.718506	3252.250977
1553.859009	3298.227051
1552.999268	3434.334961
1552.139404	3506.431396
1551.279419	3386.641357
1550.419312	3525.569824
1549.558960	3492.997314
1548.698608	3509.828857
1547.838013	3727.098877
1546.977173	3639.322510
1546.116333	3656.119873
1545.255249	3838.410156
1544.394165	4006.122559
1543.532837	4048.969971
1542.671265	4268.823730
1541.809692	4624.971680
1540.947876	4615.472168
1540.085938	5246.983398
1539.223877	5797.077637
1538.361694	6248.399414
1537.499268	6945.979492
1536.636841	7370.860840
1535.774170	7526.082031
1534.911377	7449.450684
1534.048340	7109.218750
1533.185303	6592.417969
1532.322021	6269.826172
1531.458618	5747.556641
1530.594971	5376.006348
1529.731323	5175.359375
1528.867432	5003.721680
1528.003418	4872.651367
1527.139282	4811.058594
1526.275024	4723.453613
1525.410522	4418.979004
1524.545898	4311.231445
1523.681152	4165.937500
1522.816284	3913.745117
1521.951172	3817.699707
1521.086060	3606.107178
1520.220703	3469.701660
1519.355225	3356.450928
1518.489502	3246.127441
1517.623779	3115.629150
1516.757813	3207.476074
1515.891724	3178.057373
1515.025513	3105.358398
1514.159058	3064.425049
1513.292480	2870.599609
1512.425781	2985.485107
1511.558960	2993.621826
1510.692017	2972.920410
1509.824829	2937.810791
1508.957520	3000.719238
1508.090088	3124.128662
1507.222534	2953.578369
1506.354736	2930.020020
1505.486938	3076.421875
1504.618896	2983.729004
1503.750610	3049.443115
1502.882324	3043.158447
1502.013794	3117.475098
1501.145142	3004.692139
1500.276367	3064.601807
1499.407471	2894.325684
1498.538330	2934.097412
1497.669067	3068.765625
1496.799683	2907.203369
1495.930176	2728.446289
1495.060547	2776.842529
1494.190674	2865.458984
1493.320679	2747.146729
1492.450562	2769.656494
1491.580200	2889.826416
1490.709717	2757.210449
1489.839233	2857.239502
1488.968384	2736.159180
1488.097534	2795.968750
1487.226440	2872.978271
1486.355347	2838.045898
1485.483887	2840.424072
1484.612427	2816.983887
1483.740845	2870.990967
1482.869019	2930.714355
1481.997070	2809.787842
1481.124878	2843.701172
1480.252686	2886.201172
1479.380249	2831.254639
1478.507690	3059.976318
1477.635010	2956.319336
1476.762207	2950.079346
1475.889160	2855.067871
1475.015991	2949.058105
1474.142700	2934.234131
1473.269165	2876.482666
1472.395630	2953.250000
1471.521851	2898.376221
1470.647949	2946.505859
1469.773804	3063.263428
1468.899658	3085.610596
1468.025269	3145.119141
1467.150757	3164.585449
1466.276001	3212.626709
1465.401245	3280.655273
1464.526245	3294.373047
1463.651123	3482.345947
1462.775879	3527.442383
1461.900391	3641.060303
1461.024780	3711.810303
1460.149048	3799.664307
1459.273193	3887.487305
1458.397217	3989.548828
1457.520996	3960.324463
1456.644653	3985.312988
1455.768188	3967.508301
1454.891479	3775.751465
1454.014648	3780.799316
1453.137695	3791.546875
1452.260620	3731.033447
1451.383423	3639.192627
1450.505981	3575.876953
1449.628418	3632.232910
1448.750732	3440.765625
1447.872803	3568.320801
1446.994873	3379.778076
1446.116699	3453.209473
1445.238403	3352.988281
1444.359863	3440.627930
1443.481201	3354.670166
1442.602417	3362.622559
1441.723511	3211.287598
1440.844482	3253.388428
1439.965210	3215.859863
1439.085815	3235.201660
1438.206299	3228.955322
1437.326538	3214.185303
1436.446777	3227.834229
1435.566772	3332.387451
1434.686646	3328.968506
1433.806274	3416.427979
1432.925781	3214.235107
1432.045166	3102.958252
1431.164429	3156.349854
1430.283569	3047.959229
1429.402466	2911.231934
1428.521240	2975.976318
1427.639893	2969.786377
1426.758301	2957.926514
1425.876709	2832.651123
1424.994873	2866.178711
1424.112793	2860.011719
1423.230713	2862.348633
1422.348389	2898.686768
1421.465942	2878.351807
1420.583374	2818.368164
1419.700562	2891.511230
1418.817627	2766.420654
1417.934570	2876.350586
1417.051392	2799.425293
1416.167969	2793.278320
1415.284546	2772.985596
1414.400757	2778.161621
1413.516968	2811.621338
1412.633057	2709.320801
1411.748901	2788.022461
1410.864624	2714.032471
1409.980103	2736.173340
1409.095459	2665.043945
1408.210815	2780.431396
1407.325806	2743.220703
1406.440796	2739.918701
1405.555542	2688.606934
1404.670166	2659.902100
1403.784668	2713.079590
1402.899048	2738.011719
1402.013184	2746.001709
1401.127197	2793.492676
1400.241089	2725.297119
1399.354736	2775.595703
1398.468262	2746.909912
1397.581665	2794.367188
1396.694946	2844.627197
1395.807983	2861.044434
1394.920898	2840.818115
1394.033691	2905.132324
1393.146362	2941.250977
1392.258789	2878.769043
1391.371094	2861.369629
1390.483276	2827.081299
1389.595337	2998.323486
1388.707153	2927.430176
1387.818848	2966.320801
1386.930420	3038.964111
1386.041748	3083.448242
1385.152954	2950.705811
1384.264038	2978.315186
1383.375000	2986.231689
1382.485718	2876.066406
1381.596313	2853.077637
1380.706787	2970.617920
1379.817139	2897.041504
1378.927246	2972.391357
1378.037231	2932.547607
1377.147095	2968.546143
1376.256714	2970.836426
1375.366333	2877.671143
1374.475586	3020.325928
1373.584839	2946.829834
1372.693970	3103.452393
1371.802856	2985.078857
1370.911499	2950.897705
1370.020142	2984.037354
1369.128540	2958.280029
1368.236816	3095.138428
1367.344971	3117.022949
1366.453003	3130.491699
1365.560791	3113.132568
1364.668457	3244.264893
1363.775879	3187.676025
1362.883301	3189.919922
1361.990479	3180.962646
1361.097534	3286.793945
1360.204346	3361.797363
1359.311035	3378.002441
1358.417603	3424.981445
1357.524048	3485.932617
1356.630249	3393.015869
1355.736450	3344.878662
1354.842285	3246.426270
1353.948120	3248.654785
1353.053711	3270.449219
1352.159180	3334.157227
1351.264526	3213.420654
1350.369751	3179.333496
1349.474731	3162.018066
1348.579590	3379.304932
1347.684204	3370.337158
1346.788818	3358.580566
1345.893188	3673.416016
1344.997314	3686.728027
1344.101440	3627.485352
1343.205322	4000.695801
1342.309082	3969.312744
1341.412720	4102.486328
1340.516113	4227.247559
1339.619385	4424.451660
1338.722534	4518.450684
1337.825439	4657.008301
1336.928223	4723.068848
1336.030884	4764.032227
1335.133423	4629.495117
1334.235718	4439.304199
1333.337891	4349.422852
1332.439941	4173.267578
1331.541870	4192.021973
1330.643555	4191.288086
1329.745117	4201.684570
1328.846436	4081.319580
1327.947754	4122.329102
1327.048828	3979.770508
1326.149780	3878.971191
1325.250488	3889.412598
1324.351074	3735.850586
1323.451538	3629.588135
1322.551880	3584.493652
1321.651978	3489.407227
1320.751953	3386.020996
1319.851807	3302.111328
1318.951416	3387.611572
1318.050903	3314.835693
1317.150269	3408.630615
1316.249512	3349.752686
1315.348511	3376.913574
1314.447388	3351.353027
1313.546021	3420.110840
1312.644653	3172.685547
1311.743042	3213.721924
1310.841309	3199.296875
1309.939331	3148.842285
1309.037231	3181.546875
1308.135010	3147.738281
1307.232666	3185.971924
1306.330078	3334.989258
1305.427368	3400.870850
1304.524536	3386.429688
1303.621460	3568.554688
1302.718262	3639.896240
1301.814941	3553.465332
1300.911499	3577.745117
1300.007813	3516.253662
1299.104004	3424.357422
1298.199951	3548.206543
1297.295898	3605.650391
1296.391602	3627.134277
1295.487061	3750.882324
1294.582520	3769.569092
1293.677734	3862.854004
1292.772827	3931.241943
1291.867676	4137.713867
1290.962402	4288.879395
1290.057007	4332.305176
1289.151489	4226.637695
1288.245728	4165.170898
1287.339844	4302.426270
1286.433838	4155.430176
1285.527588	4113.318848
1284.621216	4173.278809
1283.714722	4304.919922
1282.808105	4389.640137
1281.901245	4383.355469
1280.994263	4457.006348
1280.087036	4467.246582
1279.179810	4436.152344
1278.272217	4259.060059
1277.364624	4170.170410
1276.456787	3896.799316
1275.548828	3719.894287
1274.640747	3581.592773
1273.732544	3498.389160
1272.824097	3299.631104
1271.915405	3222.008789
1271.006714	3158.168945
1270.097778	3094.351318
1269.188721	3041.556152
1268.279541	2975.031738
1267.370117	2936.021240
1266.460571	2877.784180
1265.550781	3039.416748
1264.640991	2885.014648
1263.730957	2865.277100
1262.820679	2873.012939
1261.910400	2856.030518
1260.999878	2781.394043
1260.089233	2833.063477
1259.178345	2752.967773
1258.267334	2727.784912
1257.356201	2823.336670
1256.444824	2877.705322
1255.533447	2715.373535
1254.621704	2827.330566
1253.709961	2826.832764
1252.797974	2804.404297
1251.885864	2877.913818
1250.973633	2762.310791
1250.061157	2865.940674
1249.148560	2662.718750
1248.235840	2695.116943
1247.322876	2691.903809
1246.409790	2787.258789
1245.496582	2671.792969
1244.583130	2641.215088
1243.669556	2742.001221
1242.755859	2640.284424
1241.841919	2658.968018
1240.927856	2612.003174
1240.013672	2540.443115
1239.099365	2531.792969
1238.184814	2561.416748
1237.270142	2626.560791
1236.355225	2727.206787
1235.440186	2521.811523
1234.525024	2649.757324
1233.609741	2578.278076
1232.694214	2657.015137
1231.778564	2648.355713
1230.862671	2541.427246
1229.946777	2652.880127
1229.030640	2655.141113
1228.114258	2676.499512
1227.197876	2733.312256
1226.281128	2721.920410
1225.364380	2781.431885
1224.447388	2854.554199
1223.530273	2971.265625
1222.613037	2968.015625
1221.695557	2926.617432
1220.777954	3037.804932
1219.860229	3110.816895
1218.942261	3238.273438
1218.024170	3202.302246
1217.105957	3378.703613
1216.187500	3476.102051
1215.268921	3478.209717
1214.350220	3654.468506
1213.431274	3738.163086
1212.512207	3775.585205
1211.593018	3853.789063
1210.673706	3782.409180
1209.754150	3692.023193
1208.834351	3569.050049
1207.914551	3514.064209
1206.994507	3274.322754
1206.074219	3213.974609
1205.153931	3180.810791
1204.233398	3098.773438
1203.312744	3003.188232
1202.391846	2967.364014
1201.470825	2939.695313
1200.549683	3042.304688
1199.628296	2990.211426
1198.706787	3005.960693
1197.785156	2994.579102
1196.863281	2909.977539
1195.941284	2904.040039
1195.019165	2936.058838
1194.096802	2702.431152
1193.174438	2777.835693
1192.251709	2766.505859
1191.328979	2736.216064
1190.406006	2689.685059
1189.482788	2778.578613
1188.559570	2834.948486
1187.636108	2736.987305
1186.712402	2798.757813
1185.788696	2830.737305
1184.864746	2751.769043
1183.940552	2781.040283
1183.016357	2823.824951
1182.091919	2817.916504
1181.167236	2663.297852
1180.242554	2714.190430
1179.317505	2659.651855
1178.392456	2697.014893
1177.467163	2677.623535
1176.541748	2509.658691
1175.616211	2630.758545
1174.690430	2678.901611
1173.764526	2651.426758
1172.838501	2664.454834
1171.912231	2793.538330
1170.985840	2811.933594
1170.059204	2908.567383
1169.132446	3051.026611
1168.205566	2999.239990
1167.278564	3052.642090
1166.351318	3019.746582
1165.423828	3051.560059
1164.496338	3072.581299
1163.568604	3007.362061
1162.640747	3049.937500
1161.712646	2944.338135
1160.784424	2946.509277
1159.856079	2881.358398
1158.927490	2950.849121
1157.998779	2923.406982
1157.069946	2898.665527
1156.140869	2925.060791
1155.211670	2889.565918
1154.282349	2805.663574
1153.352783	2901.988281
1152.423096	2990.211670
1151.493164	2898.270020
1150.563232	3021.407715
1149.632935	2902.616699
1148.702637	2966.592773
1147.772095	3025.172607
1146.841431	2965.539795
1145.910522	2828.042725
1144.979492	2800.688477
1144.048340	2797.506348
1143.116943	2721.850098
1142.185425	2917.283936
1141.253784	2919.449219
1140.321899	2846.493896
1139.389893	2768.199951
1138.457764	2601.431152
1137.525391	2595.606445
1136.592896	2525.440918
1135.660278	2578.601563
1134.727417	2548.663574
1133.794434	2499.979736
1132.861206	2403.090332
1131.927856	2397.306152
1130.994385	2431.695313
1130.060669	2482.137451
1129.126831	2385.319824
1128.192871	2475.901855
1127.258667	2421.938232
1126.324341	2384.047852
1125.389893	2354.196777
1124.455200	2417.971924
1123.520386	2420.216309
1122.585327	2331.550781
1121.650146	2408.662354
1120.714844	2402.888428
1119.779297	2378.409668
1118.843628	2313.861084
1117.907837	2385.577881
1116.971802	2427.888672
1116.035645	2419.445313
1115.099365	2325.564941
1114.162842	2373.202393
1113.226196	2455.520508
1112.289307	2396.375000
1111.352417	2326.578125
1110.415161	2475.550781
1109.477905	2493.780029
1108.540405	2429.335938
1107.602661	2522.220459
1106.664917	2385.819580
1105.726807	2433.369141
1104.788696	2424.941650
1103.850342	2416.516846
1102.911865	2474.690674
1101.973145	2354.399414
1101.034302	2449.843506
1100.095337	2321.611816
1099.156128	2382.422607
1098.216797	2464.503174
1097.277344	2336.337158
1096.337646	2415.735840
1095.397827	2431.265625
1094.457764	2385.620117
1093.517700	2342.649658
1092.577271	2387.428467
1091.636841	2490.669922
1090.696167	2386.577393
1089.755249	2436.638428
1088.814209	2433.547363
1087.873047	2454.363281
1086.931763	2427.368164
1085.990234	2432.245850
1085.048584	2500.837402
1084.106689	2601.256348
1083.164673	2648.562012
1082.222412	2690.543945
1081.280151	2682.105225
1080.337524	2596.748535
1079.394897	2609.545166
1078.452026	2455.292236
1077.509033	2399.182617
1076.565796	2321.888184
1075.622437	2324.124023
1074.678955	2384.650391
1073.735229	2320.645264
1072.791382	2328.177246
1071.847290	2327.761475
1070.903076	2449.141113
1069.958740	2398.406250
1069.014160	2397.978027
1068.069458	2294.343994
1067.124512	2291.288574
1066.179565	2280.297852
1065.234253	2404.200195
1064.288940	2416.992920
1063.343384	2453.576416
1062.397583	2352.686279
1061.451660	2272.976074
1060.505615	2478.686768
1059.559448	2369.919922
1058.613037	2395.912354
1057.666382	2334.738525
1056.719727	2439.946777
1055.772827	2471.192627
1054.825684	2388.920654
1053.878418	2483.505371
1052.931030	2414.454102
1051.983398	2350.703857
1051.035645	2529.654297
1050.087769	2415.796631
1049.139648	2465.465088
1048.191406	2396.478027
1047.242920	2388.141602
1046.294312	2361.360107
1045.345581	2484.781494
1044.396606	2389.495117
1043.447510	2560.279785
1042.498291	2470.280518
1041.548828	2535.665771
1040.599121	2503.620850
1039.649414	2605.826416
1038.699341	2494.829834
1037.749268	2536.482666
1036.798950	2483.413818
1035.848511	2538.204834
1034.897827	2603.495361
1033.947021	2568.848145
1032.996094	2613.078857
1032.044922	2604.725830
1031.093506	2549.073242
1030.142090	2553.871826
1029.190430	2364.272461
1028.238525	2355.969727
1027.286499	2337.165527
1026.334351	2439.143555
1025.381958	2446.582031
1024.429443	2293.915771
1023.476807	2311.874023
1022.523926	2327.201660
1021.570923	2463.191650
1020.617737	2321.122314
1019.664368	2383.640869
1018.710815	2267.854492
1017.757080	2335.602539
1016.803223	2301.112793
1015.849121	2423.858398
1014.894897	2376.265381
1013.940491	2326.069824
1012.985962	2419.936035
1012.031189	2367.132080
1011.076294	2343.145264
1010.121216	2431.722412
1009.165955	2358.007324
1008.210510	2352.351318
1007.254944	2477.505127
1006.299133	2385.511230
1005.343201	2348.470215
1004.387085	2376.811279
1003.430786	2431.284668
1002.474365	2462.214355
1001.517700	2401.665527
1000.560913	2482.233643
999.603943	2497.462646
998.646790	2468.282959
997.689514	2501.789063
996.731995	2503.950928
995.774353	2563.543701
994.816528	2453.460693
993.858521	2560.013672
992.900330	2478.670898
991.942017	2470.399902
990.983459	2438.657959
990.024780	2443.435303
989.065918	2375.207764
988.106873	2317.431885
987.147705	2348.291504
986.188293	2402.592285
985.228760	2290.129395
984.269043	2331.396484
983.309143	2450.781982
982.349060	2452.945557
981.388794	2507.178223
980.428406	2530.155029
979.467834	2652.020996
978.507019	2703.586426
977.546082	2700.498779
976.585022	2640.186279
975.623718	2730.736328
974.662292	2805.651855
973.700623	2958.533691
972.738831	3002.189697
971.776855	2822.330322
970.814758	2863.396484
969.852417	2821.315186
968.889954	2745.482178
967.927246	2659.288574
966.964417	2513.406494
966.001404	2577.854736
965.038208	2528.075439
964.074890	2525.025391
963.111328	2488.246094
962.147644	2505.957275
961.183777	2482.163086
960.219727	2502.462158
959.255493	2548.681152
958.291077	2532.668701
957.326538	2462.233398
956.361755	2547.304932
955.396851	2531.300781
954.431763	2512.711914
953.466492	2463.050293
952.501038	2576.544189
951.535461	2493.231445
950.569641	2536.787598
949.603699	2513.037842
948.637573	2453.069580
947.671265	2421.581787
946.704773	2400.451904
945.738098	2449.157715
944.771240	2515.946045
943.804260	2401.739502
942.837097	2525.378662
941.869751	2522.338867
940.902222	2503.796875
939.934509	2420.675781
938.966614	2536.472900
937.998535	2530.850586
937.030334	2489.081543
936.061951	2462.816895
935.093323	2395.264160
934.124573	2459.348145
933.155640	2389.239746
932.186584	2396.547852
931.217285	2370.323242
930.247864	2372.474365
929.278198	2384.937744
928.308411	2446.375732
927.338440	2456.243896
926.368286	2383.646973
925.397949	2468.239746
924.427429	2416.274414
923.456787	2472.499756
922.485901	2420.552246
921.514893	2396.944092
920.543701	2435.123047
919.572327	2421.815186
918.600769	2462.549072
917.629028	2444.095215
916.657104	2443.653809
915.685059	2402.063721
914.712769	2427.343018
913.740356	2470.609619
912.767761	2346.783447
911.794983	2315.520264
910.822021	2374.199951
909.848877	2461.117432
908.875549	2378.479004
907.902039	2390.889648
906.928406	2398.160400
905.954590	2369.488281
904.980530	2297.192627
904.006348	2358.366943
903.031982	2378.466553
902.057434	2378.036621
901.082703	2462.246338
900.107849	2377.176758
899.132751	2453.664307
898.157532	2417.332275
897.182068	2406.643066
896.206482	2419.020508
895.230713	2410.896729
894.254761	2433.514893
893.278625	2451.002441
892.302307	2355.814453
891.325806	2404.031982
890.349182	2475.269775
889.372314	2492.736816
888.395325	2464.138672
887.418091	2443.225830
886.440735	2486.267822
885.463196	2426.996826
884.485474	2367.747314
883.507568	2492.587158
882.529480	2412.898682
881.551270	2494.240234
880.572815	2447.796631
879.594238	2414.142822
878.615417	2423.922363
877.636475	2420.929688
876.657349	2461.343262
875.677979	2511.953369
874.698486	2381.329102
873.718811	2477.868896
872.739014	2546.308105
871.758972	2545.846680
870.778748	2517.329834
869.798401	2478.623291
868.817810	2582.706299
867.837097	2472.626709
866.856140	2495.116211
865.875061	2492.115723
864.893799	2550.261475
863.912354	2521.779297
862.930725	2556.977051
861.948914	2627.810547
860.966919	2586.600098
859.984741	2545.404541
859.002441	2560.212646
858.019897	2613.182373
857.037231	2589.812012
856.054321	2543.558105
855.071289	2568.527588
854.088074	2631.627441
853.104614	2707.415283
852.121033	2709.465576
851.137268	2632.736328
850.153320	2650.043945
849.169189	2728.313232
848.184937	2829.412842
847.200439	2844.135498
846.215759	2891.859131
845.230896	2997.950439
844.245911	3142.073486
843.260681	3210.017090
842.275330	3277.935791
841.289795	3355.976563
840.304016	3373.120117
839.318115	3298.971680
838.332031	3199.497314
837.345764	3092.454346
836.359314	3051.343262
835.372681	3053.322754
834.385864	2971.698486
833.398865	3062.344971
832.411743	2940.228516
831.424377	2952.354248
830.436829	2880.933594
829.449158	2855.098633
828.461243	2879.886230
827.473206	2785.745361
826.484924	2878.839111
825.496521	2847.964355
824.507935	2779.168457
823.519104	2945.534668
822.530151	2871.689941
821.541016	2883.804932
820.551697	3110.708252
819.562195	3185.937744
818.572510	3266.192139
817.582642	3460.068848
816.592590	3514.992188
815.602356	3683.506104
814.611938	3650.020996
813.621399	3533.263916
812.630615	3499.817871
811.639648	3779.216309
810.648560	3874.378906
809.657227	4168.738281
808.665771	4112.507324
807.674072	4096.632324
806.682251	3806.023926
805.690186	3397.076660
804.697998	3283.074951
803.705566	3111.173584
802.713013	3138.312500
801.720276	3074.784668
800.727356	2910.568115
799.734253	3053.525879
798.740906	3017.733398
797.747437	2916.526855
796.753784	2999.021973
795.759949	2928.041504
794.765930	2852.056641
793.771729	2813.818115
792.777344	2727.824951
791.782776	2795.196777
790.788025	2799.713623
789.793091	2786.639404
788.798035	2816.278809
787.802734	2760.504883
786.807251	2787.626709
785.811584	2706.769043
784.815796	2876.986572
783.819763	2881.481934
782.823547	2850.841797
781.827148	2857.848877
780.830627	2920.043213
779.833862	3202.933838
778.836975	3370.366211
777.839844	3785.955566
776.842529	4158.777344
775.845093	4248.246582
774.847412	4172.294922
773.849609	3976.110107
772.851563	3719.877686
771.853394	3566.423340
770.854980	3418.033203
769.856445	3267.193359
768.857666	3123.917725
767.858765	3025.742676
766.859680	2955.127930
765.860352	2882.036865
764.860901	2916.528809
763.861206	2838.469482
762.861389	2742.936035
761.861389	2807.433350
760.861145	2899.401367
759.860779	2786.415283
758.860168	2753.424805
757.859436	2742.928955
756.858521	2769.902100
755.857361	2774.390137
754.856079	2748.915527
753.854614	2928.145752
752.852905	2867.710449
751.851074	2889.644531
750.848999	3113.658936
749.846802	3197.901367
748.844421	3414.295166
747.841797	3498.451660
746.839050	3525.235840
745.836121	3599.370117
744.832947	3314.602783
743.829651	3461.008301
742.826111	3839.048340
741.822449	4446.104980
740.818604	5351.782227
739.814514	5594.813477
738.810303	5257.713867
737.805847	4445.340332
736.801270	3685.522949
735.796448	3438.528320
734.791504	3228.938232
733.786316	3283.064941
732.781006	3155.641357
731.775452	3135.173584
730.769775	3077.426025
729.763855	3034.611328
728.757751	2810.415283
727.751526	2807.416016
726.745056	2908.745117
725.738403	2803.904053
724.731628	2872.916504
723.724609	2857.494385
722.717407	2844.560059
721.710083	2841.557129
720.702515	2880.736572
719.694763	2900.054932
718.686829	2852.396973
717.678711	2866.753418
716.670410	2903.419434
715.661987	2969.819824
714.653320	2847.827393
713.644470	2780.397461
712.635437	2822.007080
711.626221	2856.169922
710.616821	2885.366699
709.607178	2946.743896
708.597412	2968.485596
707.587463	3019.923340
706.577332	2987.195801
705.567017	3050.983154
704.556458	3035.579590
703.545776	3020.181396
702.534912	3101.238770
701.523804	2892.969238
700.512573	3023.463379
699.501099	3017.965088
698.489502	3049.537598
697.477661	2952.616211
696.465698	2905.137451
695.453491	3102.196289
694.441101	3188.057373
693.428589	3145.499023
692.415833	3258.474365
691.402893	3307.237549
690.389771	3573.134766
689.376465	3594.683105
688.362976	3902.363770
687.349304	4528.080566
686.335449	5027.810547
685.321411	5561.872070
684.307190	5795.017090
683.292725	5527.790039
682.278137	4962.516113
681.263367	4515.700195
680.248352	3918.799072
679.233215	3647.187012
678.217834	3353.514893
677.202332	3131.341309
676.186584	3002.778320
675.170654	2957.930908
674.154541	2918.020996
673.138306	2956.843262
672.121826	2985.813232
671.105164	2859.853516
670.088318	2824.907471
669.071289	2804.722656
668.054016	2796.833740
667.036621	2752.089111
666.019043	2741.755859
665.001282	2795.290283
663.983276	2718.644043
662.965149	2811.449463
661.946777	2756.922852
660.928223	2758.869873
659.909546	2716.643066
658.890625	2740.679199
657.871521	2737.721436
656.852234	2670.994385
655.832764	2699.929443
654.813110	2652.848145
653.793274	2681.775879
652.773254	2644.518555
651.752991	2769.004150
650.732605	2690.094238
649.711975	2765.534668
648.691223	2684.205078
647.670227	2686.159180
646.649048	2707.697998
645.627747	2672.930664
644.606201	2721.383789
643.584473	2808.968506
642.562561	2769.308594
641.540466	2817.716797
640.518127	2782.960693
639.495667	2782.447510
638.473022	2696.374268
637.450134	2678.768066
636.427063	2680.717773
635.403870	2672.893799
634.380432	2728.584717
633.356812	2581.541748
632.333008	2598.158936
631.309021	2668.480957
630.284851	2638.697021
629.260498	2591.840088
628.235901	2520.599609
627.211182	2556.729004
626.186218	2595.284180
625.161133	2597.243896
624.135803	2626.023926
623.110291	2671.857910
622.084595	2654.302979
621.058716	2680.619141
620.032654	2592.411133
619.006409	2628.472900
617.979919	2647.472168
616.953308	2690.815674
615.926453	2673.276123
614.899414	2706.861572
613.872253	2599.275391
612.844849	2576.895264
611.817261	2639.674072
610.789490	2675.672852
609.761475	2648.426758
608.733337	2616.327393
607.705017	2627.999512
606.676453	2513.274170
605.647705	2673.201660
604.618774	2543.931641
603.589722	2592.047119
602.560425	2681.435059
601.530884	2668.797363
600.501221	2704.722900
599.471375	2796.467529
598.441284	2713.431152
597.411011	2710.502686
596.380615	2748.819824
595.349976	2665.837646
594.319153	2704.148682
593.288147	2696.374023
592.256897	2642.539551
591.225525	2685.680908
590.193970	2607.633545
589.162170	2611.997070
588.130188	2616.358643
587.098022	2657.050293
586.065674	2625.077148
585.033142	2576.166992
584.000427	2539.378662
582.967468	2659.924316
581.934387	2596.515381
580.901062	2625.067627
579.867554	2634.257324
578.833862	2730.510498
577.799988	2652.626465
576.765930	2611.035645
575.731628	2683.067383
574.697205	2619.735352
573.662537	2756.978271
572.627747	2606.685547
571.592712	2683.495117
570.557434	2699.902344
569.522034	2648.697754
568.486450	2551.645264
567.450623	2563.240234
566.414673	2570.004639
565.378479	2538.163086
564.342102	2605.235840
563.305542	2616.811768
562.268799	2666.965332
561.231812	2618.252441
560.194702	2699.722900
559.157349	2626.921631
558.119812	2785.466309
557.082092	2739.176270
556.044189	2724.216064
555.006042	2562.359131
553.967773	2749.691162
552.929260	2660.109375
551.890625	2630.733154
550.851746	2558.051758
549.812683	2661.034912
548.773376	2571.535645
547.733948	2595.109375
546.694275	2609.055664
545.654419	2558.083008
544.614441	2598.472168
543.574158	2597.989746
542.533752	2676.802246
541.493164	2700.329346
540.452332	2644.582520
539.411316	2723.342041
538.370178	2742.044922
537.328735	2731.933105
536.287170	2717.024414
535.245422	2786.112549
534.203430	2771.198975
533.161255	2703.516113
532.118896	2815.739258
531.076355	2623.378418
530.033630	2692.419189
528.990723	2624.800537
527.947571	2648.279053
526.904236	2654.975342
525.860718	2647.294434
524.817017	2701.894287
523.773132	2749.288818
522.729004	2796.665771
521.684692	2671.659912
520.640198	2635.260254
519.595520	2625.197754
518.550659	2662.991455
517.505615	2719.908447
516.460327	2599.815918
515.414856	2656.723145
514.369202	2512.778076
513.323364	2569.680176
512.277283	2597.881592
511.231079	2501.817627
510.184631	2575.413086
509.138000	2460.280029
508.091187	2524.302734
507.044159	2552.485596
505.996948	2475.617188
504.949554	2551.535400
503.901947	2536.741943
502.854126	2436.059326
501.806152	2497.628906
500.757965	2511.474365
499.709564	2537.237305
