#Wave		#Intensity
3200.600830	50.518227
3200.007080	29.468966
3199.413086	25.255297
3198.819092	21.042900
3198.224854	46.287380
3197.630615	33.658463
3197.036377	50.480061
3196.442139	8.412071
3195.847656	50.464798
3195.252930	16.819057
3194.658447	37.837154
3194.063721	33.627941
3193.468750	8.405714
3192.873779	12.606665
3192.278809	42.015862
3191.683838	25.205706
3191.088623	12.600946
3190.493164	37.797123
3189.897949	41.990452
3189.302490	54.579330
3188.706787	20.988874
3188.111328	25.182840
3187.515381	20.982525
3186.919678	20.979351
3186.323730	29.366648
3185.727783	20.973003
3185.131592	20.969830
3184.535400	-16.773325
3183.939209	-12.578091
3183.342773	37.728561
3182.746338	41.914280
3182.149902	37.717144
3181.553223	29.331116
3180.956543	46.084778
3180.359619	16.755566
3179.762695	25.129543
3179.165771	37.688606
3178.568604	25.121935
3177.971436	41.863552
3177.374268	37.671494
3176.776855	16.740351
3176.179443	54.397903
3175.581787	20.919104
3174.984131	25.099123
3174.386475	20.912767
3173.788574	54.364964
3173.190674	54.356728
3172.592773	4.180654
3171.994629	16.720081
3171.396484	45.973259
3170.798340	37.608788
3170.199951	62.671818
3169.601563	41.774883
3169.002930	-8.353711
3168.404297	37.586002
3167.805664	29.229130
3167.206787	41.749573
3166.607910	12.522974
3166.008789	37.563229
3165.409912	25.038357
3164.810547	37.551846
3164.211426	54.233334
3163.612061	4.171163
3163.012695	29.193712
3162.413086	4.169898
3161.813477	29.184862
3161.213623	-12.505902
3160.614014	12.504006
3160.013916	29.171593
3159.414063	29.167170
3158.813965	24.996641
3158.213867	8.330950
3157.613525	45.813278
3157.013184	0.000000
3156.412598	20.817902
3155.812256	41.629490
3155.211426	8.324636
3154.610840	16.646746
3154.010010	29.127386
3153.409180	24.962543
3152.808105	37.438137
3152.207031	62.387428
3151.605957	12.475593
3151.004639	16.631599
3150.403320	49.887230
3149.801758	8.313277
3149.200195	37.404072
3148.598633	41.553772
3147.996826	37.392719
3147.395020	24.924696
3146.793213	49.841827
3146.191162	45.681408
3145.589111	24.913351
3144.986816	24.909569
3144.384766	8.301929
3143.782227	20.751673
3143.179932	20.748522
3142.577393	24.894447
3141.974609	53.929779
3141.371826	53.921593
3140.769043	24.883110
3140.166260	37.318996
3139.563232	0.000000
3138.960205	20.726480
3138.356934	20.723333
3137.753662	45.584408
3137.150391	16.573631
3136.546875	49.713341
3135.943359	0.000000
3135.339600	0.000000
3134.735840	33.127129
3134.132080	33.122097
3133.528076	12.418899
3132.924072	24.834024
3132.320068	37.245377
3131.715820	-12.413239
3131.111572	0.000000
3130.507080	41.364891
3129.902588	8.271721
3129.298096	41.352318
3128.693604	16.538414
3128.088867	24.803850
3127.483887	-4.133347
3126.878906	57.858059
3126.273926	57.849262
3125.668945	33.051697
3125.063721	20.654171
3124.458252	4.130206
3123.853027	49.554939
3123.247559	20.644751
3122.641846	37.154903
3122.036133	20.638474
3121.430420	24.762402
3120.824707	33.011517
3120.218750	53.635555
3119.612549	4.125185
3119.006592	0.000000
3118.400391	16.495718
3117.793945	24.739815
3117.187500	-4.122675
3116.581055	-4.122048
3115.974609	8.242842
3115.367920	-16.483175
3114.760986	20.600836
3114.154297	24.717241
3113.547363	28.832394
3112.940186	24.709719
3112.333008	41.176598
3111.725830	16.468132
3111.118408	28.814846
3110.510986	41.157803
3109.903564	24.690922
3109.295898	16.458109
3108.688232	24.683407
3108.080566	16.453100
3107.472656	49.351784
3106.864746	16.448090
3106.256592	-8.222793
3105.648438	20.553852
3105.040039	36.991302
3104.431885	49.314224
3103.823486	41.088932
3103.214844	36.974407
3102.606201	28.753492
3101.997559	36.963146
3101.388672	-12.319172
3100.779785	4.105765
3100.170898	12.315419
3099.561768	16.418058
3098.952637	8.207778
3098.343262	28.722847
3097.733887	24.615833
3097.124512	0.000000
3096.514893	20.506945
3095.905273	0.000000
3095.295410	28.700974
3094.685791	16.398056
3094.075684	32.791115
3093.465820	28.687853
3092.855713	49.171684
3092.245361	49.164188
3091.635254	24.578346
3091.024658	45.053436
3090.414307	20.475712
3089.803711	45.039700
3089.193115	49.126728
3088.582275	8.186540
3087.971436	24.555874
3087.360596	36.828194
3086.749512	-8.182796
3086.138428	28.635418
3085.527100	12.270451
3084.915771	16.358105
3084.304443	12.266707
3083.692871	24.529675
3083.081299	32.701244
3082.469482	32.696255
3081.857910	4.086409
3081.245850	32.686279
3080.634033	16.340647
3080.021973	32.676308
3079.409668	16.335661
3078.797607	0.000000
3078.185059	36.744022
3077.572754	57.148647
3076.960205	24.488541
3076.347656	12.242401
3075.734863	20.400888
3075.122070	24.477329
3074.509033	36.710392
3073.895996	12.234929
3073.282959	12.233062
3072.669922	24.462389
3072.056641	12.229327
3071.443115	24.454920
3070.829834	44.827175
3070.216064	24.447454
3069.602539	40.739536
3068.988770	44.806644
3068.375000	28.508966
3067.760986	36.648788
3067.146973	0.000000
3066.532715	40.708439
3065.918701	24.421331
3065.304199	61.044006
3064.689941	28.482851
3064.075439	4.068357
3063.460693	12.203207
3062.846191	12.201343
3062.231445	40.664928
3061.616455	4.065872
3061.001465	28.456753
3060.386475	40.646294
3059.771240	12.192024
3059.156006	56.887421
3058.540771	20.313831
3057.925293	12.186436
3057.309814	24.369146
3056.694092	16.243614
3056.078369	44.663113
3055.462646	44.656284
3054.846680	48.708500
3054.230713	56.817898
3053.614502	32.462406
3052.998291	0.000000
3052.382080	4.056560
3051.765625	24.335638
3051.149170	12.165958
3050.532715	16.218798
3049.916016	44.594872
3049.299316	28.374216
3048.682373	16.211357
3048.065430	32.417755
3047.448486	24.309599
3046.831299	36.458820
3046.214111	20.251802
3045.596680	48.596889
3044.979248	24.294727
3044.361816	28.339512
3043.744141	36.430943
3043.126465	8.094526
3042.508545	8.093287
3041.890869	72.828438
3041.272705	32.363243
3040.654785	28.313503
3040.036621	24.265003
3039.418213	48.522579
3038.799805	24.257576
3038.181396	32.338482
3037.562988	36.375225
3036.944336	16.164291
3036.325439	28.283180
3035.706543	8.079672
3035.087646	20.196087
3034.468750	16.154396
3033.849609	64.607689
3033.230469	16.149448
3032.611084	56.514412
3031.991699	44.397381
3031.372070	24.213045
3030.752441	32.279114
3030.132813	60.514072
3029.513184	48.403843
3028.893066	44.363392
3028.273193	44.356598
3027.653076	12.095400
3027.032959	-12.093547
3026.412598	28.213953
3025.792480	44.329418
3025.171875	48.351955
3024.551270	52.373260
3023.930664	56.393330
3023.310059	48.329731
3022.689209	72.483490
3022.068115	40.262432
3021.447266	48.307514
3020.826172	60.375137
3020.204834	32.195137
3019.583496	44.261528
3018.962158	52.301060
3018.340576	24.135250
3017.718994	40.219250
3017.097412	48.255699
3016.475586	60.310375
3015.853760	12.060225
3015.231689	40.194588
3014.609619	52.244949
3013.987549	40.182259
3013.365234	28.123268
3012.742920	32.135948
3012.120361	48.196529
3011.497803	12.047284
3010.875244	20.075727
3010.252441	24.087177
3009.629639	24.083481
3009.006836	44.146275
3008.383789	40.126820
3007.760498	52.156860
3007.137451	68.194664
3006.514160	44.119186
3005.890625	64.163513
3005.267090	28.067228
3004.643555	28.062922
3004.019775	48.100483
3003.395996	60.116375
3002.772217	84.150002
3002.148193	52.084862
3001.524170	32.047302
3000.899902	40.052979
3000.275635	28.032782
2999.651367	48.048817
2999.026855	44.037987
2998.402344	36.025547
2997.777588	40.022240
2997.152832	60.024139
2996.528076	56.013927
2995.903076	80.007607
2995.278076	39.997658
2994.653076	63.986427
2994.027832	59.978062
2993.402344	43.977154
2992.777100	63.956944
2992.151367	39.966949
2991.525879	39.960808
2990.900146	63.927471
2990.274414	63.917648
2989.648438	59.913589
2989.022461	59.904381
2988.396240	59.895176
2987.770264	55.893574
2987.143799	59.876766
2986.517578	55.876392
2985.891113	79.811150
2985.264404	75.808937
2984.637695	71.807953
2984.010986	91.740501
2983.384033	87.738297
2982.757080	99.687279
2982.130127	31.895025
2981.502930	91.684097
2980.875732	71.741737
2980.248291	75.715752
2979.620850	71.719681
2978.993408	115.530602
2978.365723	87.630424
2977.738037	111.512482
2977.110107	103.531372
2976.482178	115.459541
2975.854248	103.499527
2975.226074	87.563049
2974.597900	111.426735
2973.969482	87.536110
2973.341309	123.327362
2972.712646	163.085281
2972.083984	135.220642
2971.455322	143.152771
2970.826660	170.961716
2970.197754	222.613556
2969.568604	226.553925
2968.939697	198.700928
2968.310547	230.457596
2967.681152	242.340515
2967.051758	242.303207
2966.422363	246.237488
2965.792725	285.909180
2965.163086	269.983765
2964.533203	365.215912
2963.903564	337.375793
2963.273438	341.292358
2962.643311	349.175629
2962.013184	384.827484
2961.383057	400.634949
2960.752686	408.505402
2960.122314	408.442474
2959.491699	467.852325
2958.861084	479.672974
2958.230225	404.290161
2957.599609	420.079956
2956.968506	499.263397
2956.337646	451.644897
2955.706299	439.691742
2955.075195	396.057678
2954.443848	427.676361
2953.812500	443.447906
2953.180908	403.792084
2952.549316	514.557678
2951.917725	463.030548
2951.285889	490.657593
2950.653809	474.756744
2950.021973	565.664551
2949.389893	569.532471
2948.757568	549.672302
2948.125244	529.818237
2947.492920	502.063721
2946.860352	521.749573
2946.227783	486.100769
2945.595215	379.337219
2944.962402	327.918060
2944.329590	367.369598
2943.696533	312.018524
2943.063477	319.868378
2942.430420	272.438446
2941.797119	296.083069
2941.163574	335.509064
2940.530273	292.045197
2939.896729	260.432556
2939.262939	244.611023
2938.629150	256.407471
2937.995361	228.759064
2937.361328	248.441330
2936.727295	220.802658
2936.093262	291.729919
2935.458984	224.676208
2934.824707	271.934509
2934.190186	283.713928
2933.555664	330.948517
2932.921143	311.201141
2932.286377	315.091766
2931.651367	370.175659
2931.016602	389.805695
2930.381592	421.240082
2929.746338	429.047485
2929.111084	468.337311
2928.475830	468.265015
2927.840332	546.880554
2927.204834	554.663696
2926.569336	527.045776
2925.933594	574.155212
2925.297607	589.794434
2924.661865	593.634644
2924.025879	652.504211
2923.389648	644.543152
2922.753418	636.584473
2922.117188	644.343994
2921.480713	656.029419
2920.844238	640.217224
2920.207764	640.118286
2919.571045	616.460388
2918.934082	632.068726
2918.297363	616.269897
2917.660156	557.304504
2917.023193	588.610962
2916.385986	596.366882
2915.748779	509.971802
2915.111328	588.338074
2914.473877	568.638855
2913.836182	462.682861
2913.198486	595.906128
2912.560791	564.455383
2911.922852	634.914124
2911.284912	544.687744
2910.646729	638.635803
2910.008545	685.545898
2909.370361	693.273499
2908.731934	700.998657
2908.093506	716.552612
2907.455078	833.891296
2906.816406	731.988525
2906.177490	872.771057
2905.538574	798.285889
2904.899658	884.238770
2904.260498	974.076904
2903.621338	973.926208
2902.982178	969.864807
2902.342773	1000.995850
2901.703369	1020.388672
2901.063721	965.505737
2900.424072	957.539673
2899.784424	898.775696
2899.144531	867.379639
2898.504639	890.684509
2897.864502	898.358459
2897.224365	859.166382
2896.583984	909.794434
2895.943848	808.147217
2895.303223	831.442993
2894.662842	823.508545
2894.021973	881.915222
2893.381348	811.548523
2892.740479	807.521790
2892.099609	842.500916
2891.458496	783.872559
2890.817383	912.426697
2890.176025	830.413635
2889.534668	919.940186
2888.893311	912.002808
2888.251709	943.036316
2887.610107	1036.400024
2886.968262	1024.552490
2886.326416	1117.874634
2885.684570	1144.962402
2885.042480	1152.572632
2884.400391	1125.141602
2883.758057	1179.463867
2883.115723	1261.013428
2882.473389	1194.664063
2881.830811	1264.513428
2881.188232	1314.890137
2880.545410	1388.588867
2879.902588	1248.369629
2879.259766	1298.725220
2878.616699	1201.328979
2877.973633	1197.255615
2877.330322	1305.894531
2876.687012	1115.278687
2876.043457	1056.824951
2875.399902	1091.624146
2874.756348	1040.960571
2874.112549	990.312561
2873.468750	928.031372
2872.824707	927.887451
2872.180664	1013.142517
2871.536621	923.718445
2870.892334	853.724976
2870.248047	911.792053
2869.603760	923.288696
2868.958984	837.812683
2868.314453	926.880371
2867.669678	1035.308228
2867.024902	930.469727
2866.379883	918.696289
2865.734863	1007.696106
2865.089844	1019.165161
2864.444580	999.634277
2863.799316	995.605164
2863.153809	976.083923
2862.508301	917.841187
2861.862549	863.488647
2861.216797	828.510742
2860.571045	793.543579
2859.925049	700.532166
2859.279053	599.810120
2858.632813	557.156433
2857.986572	471.962006
2857.340332	456.416962
2856.693848	390.601318
2856.047363	382.807190
2855.400635	355.684753
2854.753906	363.360596
2854.107178	320.789825
2853.460205	293.689636
2852.813232	278.189087
2852.166016	297.461548
2851.518799	293.552795
2850.871338	278.059448
2850.223877	285.738922
2849.576416	301.137482
2848.928711	320.391357
2848.281006	331.920197
2847.633301	324.150757
2846.985352	316.383698
2846.337158	327.907745
2845.688965	370.285309
2845.040771	412.649689
2844.392578	408.729584
2843.743896	412.521393
2843.095459	516.535278
2842.446777	508.746704
2841.798096	520.228210
2841.149170	593.353271
2840.500244	654.898499
2839.851074	708.721130
2839.202148	712.462036
2838.552734	727.753479
2837.903320	750.739990
2837.253906	758.321899
2836.604492	762.052734
2835.954834	838.897217
2835.304932	684.864563
2834.655029	700.145874
2834.005127	634.648865
2833.354980	557.635010
2832.704834	530.632080
2832.054688	457.502869
2831.404297	445.899780
2830.753906	372.806458
2830.103271	391.962280
2829.452637	307.373566
2828.801758	291.959442
2828.150879	284.232056
2827.500000	299.549316
2826.848877	203.508240
2826.197754	191.959015
2825.546387	176.574799
2824.895020	176.547318
2824.243408	188.031998
2823.591797	149.634811
2822.940186	168.792480
2822.288330	157.259415
2821.636475	126.554939
2820.984619	164.879242
2820.332520	149.518341
2819.680176	122.662613
2819.028076	114.978294
2818.375488	103.464348
2817.723145	80.459732
2817.070557	107.262932
2816.417725	134.057785
2815.764893	107.229515
2815.112061	141.674072
2814.458984	103.367676
2813.805908	95.695892
2813.152832	95.680984
2812.499512	114.799286
2811.845947	84.173027
2811.192383	110.938057
2810.538818	80.321938
2809.885010	68.836639
2809.231201	87.944221
2808.577393	95.576645
2807.923340	49.692108
2807.269287	110.834343
2806.614990	72.604286
2805.960693	87.875694
2805.306152	87.861992
2804.651611	87.848289
2803.997070	61.102325
2803.342285	42.001297
2802.687500	103.078018
2802.032471	41.988197
2801.377441	95.412842
2800.722412	83.950203
2800.067139	72.491135
2799.411621	95.368195
2798.756348	83.910919
2798.100586	87.711365
2797.445068	64.820030
2796.789307	87.683998
2796.133301	87.670319
2795.477539	80.034325
2794.821289	80.021835
2794.165283	64.769470
2793.509033	72.378113
2792.852539	49.514137
2792.196045	87.588257
2791.539551	57.113861
2790.882813	79.946922
2790.226074	79.934441
2789.569092	45.669693
2788.912109	38.052135
2788.255127	76.092392
2787.597900	49.452332
2786.940430	45.641178
2786.283203	60.845402
2785.625488	106.462822
2784.968018	79.834648
2784.310303	60.816898
2783.652588	64.607864
2782.994629	75.997375
2782.336426	41.792030
2781.678467	64.577591
2781.020264	87.356033
2780.361816	94.937378
2779.703369	56.953526
2779.044922	49.352009
2778.386230	64.527161
2777.727539	68.312202
2777.068604	34.150761
2776.409668	72.084785
2775.750732	75.866867
2775.091553	60.684006
2774.432373	60.674519
2773.772949	79.622856
2773.113525	83.401382
2772.453857	60.646072
2771.794189	64.426376
2771.134521	64.416306
2770.474609	75.772041
2769.814697	64.396164
2769.154541	75.748344
2768.494385	49.228725
2767.833984	64.365959
2767.173584	52.998966
2766.513184	90.841164
2765.852539	71.904671
2765.191895	64.325699
2764.531006	49.182545
2763.870117	49.174850
2763.209229	41.602978
2762.548096	90.755936
2761.886719	56.713585
2761.225586	64.265343
2760.563965	64.255280
2759.902588	64.245232
2759.240967	60.456635
2758.579102	56.669224
2757.917236	67.992424
2757.255371	64.205017
2756.593262	71.747322
2755.931152	64.184921
2755.269043	101.924797
2754.606689	86.811234
2753.944092	90.571457
2753.281494	90.557274
2752.618896	60.362064
2751.956055	90.528923
2751.293213	90.514740
2750.630371	79.187996
2749.967285	94.256660
2749.303955	60.314816
2748.640625	94.227142
2747.977295	86.675392
2747.313721	124.340866
2746.650146	150.692581
2745.986572	60.267593
2745.322754	112.984032
2744.658691	109.200790
2743.994873	90.358902
2743.330566	105.402206
2742.666504	101.621918
2742.002197	127.948280
2741.337646	127.928230
2740.673096	109.098152
2740.008545	97.796806
2739.343750	109.063957
2738.678955	150.409470
2738.013916	109.029770
2737.348877	116.530792
2736.683594	127.787933
2736.018311	142.799408
2735.353027	101.446831
2734.687500	123.971130
2734.021973	112.683357
2733.356201	112.665688
2732.690430	157.707230
2732.024658	142.665115
2731.358643	127.627708
2730.692383	157.633026
2730.026367	180.123779
2729.359863	172.591537
2728.693604	176.315872
2728.027100	127.527641
2727.360352	183.761002
2726.693604	164.983994
2726.026855	183.703339
2725.359863	168.680679
2724.692871	183.645691
2724.025635	198.606003
2723.358398	183.588058
2722.691162	176.067032
2722.023682	183.530441
2721.355957	228.440796
2720.688477	243.382309
2720.020508	220.881577
2719.352783	243.305908
2718.684814	198.356750
2718.016602	224.519547
2717.348389	231.967102
2716.680176	205.744965
2716.011719	228.154037
2715.343262	175.763214
2714.674561	198.169937
2714.005859	198.138809
2713.337158	149.515244
2712.668213	149.491760
2711.999023	183.098633
2711.329834	138.236435
2710.660645	104.594925
2709.991455	141.927948
2709.321777	145.640015
2708.652344	141.883347
2707.982666	115.728760
2707.312988	104.512779
2706.643066	115.692390
2705.972900	160.451324
2705.302979	160.426102
2704.632813	126.828613
2703.962402	104.430672
2703.291992	115.601501
2702.621582	111.854836
2701.950928	111.837250
2701.280273	126.728958
2700.609375	137.889236
2699.938477	93.153755
2699.267334	85.687981
2698.596191	115.474335
2697.925049	78.212250
2697.253662	141.504669
2696.582031	111.696640
2695.910645	93.065895
2695.239014	89.329208
2694.567139	85.593689
2693.895264	141.393417
2693.223145	81.846466
2692.551270	100.432137
2691.878906	74.382469
2691.206543	96.681999
2690.534180	59.487251
2689.861816	63.195259
2689.189209	104.069931
2688.516357	66.891571
2687.843506	74.312271
2687.170654	89.160690
2686.497559	89.146652
2685.824463	74.277184
2685.151123	81.692039
2684.477783	81.679184
2683.804199	92.802635
2683.130615	85.364983
2682.457031	133.593719
2681.783203	66.786346
2681.109375	70.485596
2680.435303	92.729599
2679.761230	107.549393
2679.086914	111.240471
2678.412598	51.904045
2677.738281	111.205429
2677.063721	107.481651
2676.389160	70.407921
2675.714355	88.922310
2675.039551	118.544403
2674.364502	81.486435
2673.689453	55.550179
2673.014404	74.055237
2672.339111	129.576248
2671.663574	77.733490
2670.988037	77.721245
2670.312500	77.708992
2669.636719	107.295509
2668.960938	85.083023
2668.285156	99.864326
2667.609131	73.961914
2666.932861	85.042793
2666.256592	70.241669
2665.580322	107.194061
2664.903809	114.568687
2664.227295	110.855446
2663.550781	125.616356
2662.874023	77.574341
2662.197021	92.335838
2661.520020	77.549873
2660.843018	125.537132
2660.165771	92.292160
2659.488525	88.586494
2658.811035	99.644089
2658.133545	118.078064
2657.455811	106.991364
2656.778076	99.596931
2656.100342	110.645798
2655.422363	88.502670
2654.744385	99.549797
2654.066162	110.593430
2653.387939	110.575974
2652.709473	121.614372
2652.031006	125.279884
2651.352539	147.364838
2650.673828	73.670784
2649.994873	81.025070
2649.316162	114.153671
2648.636963	77.317696
2647.958008	92.030342
2647.278809	125.141510
2646.599365	80.961128
2645.919922	88.307289
2645.240479	110.366676
2644.560791	73.566162
2643.880859	110.331818
2643.201172	106.637245
2642.520996	121.326668
2641.841064	113.955536
2641.160889	77.183487
2640.480469	62.472000
2639.800049	91.856079
2639.119629	84.494240
2638.438965	66.115479
2637.758301	58.760029
2637.077393	95.469955
2636.396484	88.112190
2635.715332	77.085976
2635.034180	69.733437
2634.353027	66.052811
2633.671631	110.070618
2632.989990	58.695053
2632.308350	51.350052
2631.626709	113.685707
2630.944824	66.000618
2630.262939	73.322426
2629.581055	58.648670
2628.898926	76.964203
2628.216553	69.623268
2627.534180	54.957047
2626.851807	73.264473
2626.169189	54.939667
2625.486572	65.917175
2624.803711	84.214172
2624.120850	91.522667
2623.437988	73.206551
2622.754883	69.535225
2622.071533	84.160896
2621.388184	51.220268
2620.704834	80.476257
2620.021240	58.518925
2619.337646	87.764496
2618.653809	54.844131
2617.969971	51.179756
2617.286133	73.102364
2616.602051	80.399872
2615.917725	73.079224
2615.233398	76.721039
2614.549072	105.931328
2613.864502	87.653427
2613.179932	73.032959
2612.495117	109.532097
2611.810303	83.961311
2611.125488	76.648186
2610.440430	58.389370
2609.755127	65.677643
2609.069824	109.445396
2608.384521	91.190056
2607.698975	91.175613
2607.013428	47.403809
2606.327637	72.917381
2605.641846	76.551125
2604.956055	91.117851
2604.270020	51.017914
2603.583740	91.088982
2602.897461	65.573677
2602.211182	101.987335
2601.524658	94.687515
2600.838135	65.542503
2600.151367	83.735489
2599.464600	105.562790
2598.777832	47.313751
2598.090820	80.056732
2597.403564	83.682411
2596.716309	109.133667
2596.029053	80.018669
2595.341553	87.279251
2594.654053	61.813000
2593.966309	76.345131
2593.278564	94.507553
2592.590820	105.395554
2591.902832	69.041306
2591.214600	87.196243
2590.526367	87.182411
2589.838135	83.536560
2589.149658	43.577377
2588.461182	105.295296
2587.772461	87.127106
2587.083740	98.002449
2586.394775	79.841179
2585.705811	94.342781
2585.016846	108.839783
2584.327637	79.803177
2583.638184	90.671036
2582.948975	65.272789
2582.259277	90.642258
2581.569824	97.878105
2580.879883	61.617172
2580.190186	61.607391
2579.500244	97.831497
2578.810059	50.719391
2578.119873	32.600147
2577.429688	83.298256
2576.739258	97.769386
2576.048584	76.030777
2575.358154	86.878525
2574.667236	76.006638
2573.976563	47.044254
2573.285645	83.218925
2572.594482	126.617378
2571.903320	97.660744
2571.212158	97.645233
2570.520752	119.325218
2569.829102	79.537506
2569.137451	90.369171
2568.445801	86.740623
2567.753906	54.204273
2567.062012	93.939148
2566.370117	54.187050
2565.677979	119.192558
2564.985596	68.615112
2564.293213	54.161217
2563.600830	50.542435
2562.908203	72.192001
2562.215332	72.180527
2561.522705	72.169052
2560.829590	93.804848
2560.136719	90.182632
2559.443604	100.988487
2558.750244	104.578590
2558.056885	75.717278
2557.363525	86.520271
2556.669922	72.088760
2555.976074	86.492760
2555.282227	90.082291
2554.588379	79.259804
2553.894287	64.838615
2553.200195	93.640884
2552.505859	46.812992
2551.811523	68.408104
2551.117188	100.795906
2550.422607	50.389935
2549.727783	71.974167
2549.032959	93.551529
2548.338135	50.365883
2547.643066	93.521751
2546.947998	82.717613
2546.252686	71.916908
2545.557373	61.119644
2544.861816	75.488716
2544.166260	53.911930
2543.470703	82.651802
2542.774902	57.487751
2542.078857	61.071011
2541.382813	79.020485
2540.686768	57.460293
2539.990479	78.995323
2539.294189	96.933365
2538.597656	96.917931
2537.901123	89.724533
2537.204346	46.649323
2536.507568	64.581085
2535.810791	86.094398
2535.113770	71.733902
2534.416504	68.136345
2533.719238	107.566566
2533.021973	53.774715
2532.324463	68.103783
2531.626953	64.509094
2530.929199	107.498024
2530.231445	78.819321
2529.533447	82.388885
2528.835449	100.283524
2528.137451	78.781639
2527.439209	89.510323
2526.740723	100.235573
2526.042236	114.536682
2525.343750	89.467514
2524.645020	128.812683
2523.946289	78.706314
2523.247314	82.270752
2522.548340	100.139725
2521.849121	64.365273
2521.149902	85.806671
2520.450684	42.896496
2519.751221	100.075859
2519.051514	64.324219
2518.351807	64.313957
2517.652100	67.876122
2516.952148	117.871300
2516.252197	71.425758
2515.552002	67.843643
2514.851807	85.683556
2514.151367	78.530731
2513.450928	89.225227
2512.750244	103.484741
2512.049561	60.653790
2511.348877	89.182510
2510.647949	64.201157
2509.946777	78.455559
2509.245605	64.180664
2508.544434	78.430511
2507.843018	71.289078
2507.141602	71.277702
2506.439941	89.082901
2505.738281	67.692192
2505.036377	67.681381
2504.334473	56.985748
2503.632568	78.342888
2502.930420	64.088486
2502.228027	92.557480
2501.525635	88.983360
2500.823242	28.470125
2500.120605	64.047554
2499.417969	88.940720
2498.715088	78.255333
2498.012207	81.799316
2497.309082	67.562553
2496.605957	67.551758
2495.902588	95.979263
2495.199219	78.192825
2494.495605	103.055893
2493.791992	92.380165
2493.088379	88.812889
2492.384521	67.487007
2491.680664	99.438637
2490.976563	88.770302
2490.272461	67.454643
2489.568115	99.390953
2488.863770	110.022385
2488.159180	67.422295
2487.454590	74.507462
2486.749756	70.948135
2486.044922	81.577309
2485.339844	81.564262
2484.634766	106.371155
2483.929688	67.357620
2483.224365	60.257706
2482.519043	70.880074
2481.813477	102.759666
2481.107666	85.028877
2480.402100	67.303757
2479.696045	95.626877
2478.990234	95.611580
2478.284180	88.515076
2477.577881	95.580978
2476.871582	67.249924
2476.165039	88.472580
2475.458496	95.535095
2474.751953	102.595345
2474.045166	81.355698
2473.338379	84.879311
2472.631348	81.329651
2471.924072	74.245613
2471.217041	63.628910
2470.509521	60.084347
2469.802246	88.345184
2469.094482	42.398899
2468.386963	77.718864
2467.679199	67.110085
2466.971191	45.910072
2466.263184	74.150551
2465.554932	105.912384
2464.846680	56.477558
2464.138428	105.878456
2463.429932	102.332771
2462.721436	84.675621
2462.012695	63.496540
2461.303955	59.959347
2460.594971	81.108467
2459.885986	66.991913
2459.176758	95.183777
2458.467529	66.970436
2457.758057	91.629066
2457.048584	84.567123
2456.338867	98.645828
2455.629150	119.765015
2454.919434	84.526459
2454.209473	70.427422
2453.499512	109.144997
2452.789307	80.965561
2452.078857	109.109993
2451.368408	70.382256
2450.657959	77.408066
2449.947266	87.949608
2449.236572	87.935501
2448.525879	91.438248
2447.814697	91.423584
2447.103760	105.471825
2446.392578	84.363922
2445.681152	91.379585
2444.969727	73.794746
2444.258301	59.729019
2443.546631	63.232342
2442.834717	87.808601
2442.122803	63.212048
2441.410889	80.757988
2440.698730	94.787636
2439.986572	84.242157
2439.274170	73.700050
2438.561768	98.250961
2437.849121	112.268791
2437.136475	80.680237
2436.423584	94.696373
2435.710693	91.174461
2434.997803	80.641380
2434.284424	63.100510
2433.571289	80.615479
2432.857910	94.620369
2432.144287	87.597382
2431.430908	98.093307
2430.717041	98.077553
2430.003174	80.550758
2429.289307	87.541107
2428.575195	91.028122
2427.861084	98.014542
2427.146729	83.998962
2426.432373	66.488495
2425.717773	104.964966
2425.003174	104.948097
2424.288330	66.456444
2423.573486	108.411507
2422.858643	83.917999
2422.143555	90.896553
2421.428223	55.927349
2420.712891	94.362228
2419.997559	80.369720
2419.281982	69.875473
2418.566162	115.275993
2417.850586	118.750107
2417.134521	87.302216
2416.418457	87.288177
2415.702393	73.310280
2414.986084	83.769699
2414.269775	62.817169
2413.553223	87.232033
2412.836670	94.195442
2412.120117	87.203972
2411.403076	62.776760
2410.686279	101.124062
2409.969238	90.648369
2409.251953	101.091522
2408.534668	87.133842
2407.817383	121.967751
2407.099854	118.463890
2406.382080	118.444824
2405.664307	66.179100
2404.946533	121.889244
2404.228516	97.495705
2403.510498	93.998581
2402.792236	111.387787
2402.073975	118.330467
2401.355469	114.831673
2400.636963	100.896431
2399.918213	86.965675
2399.199463	97.385872
2398.480469	114.757721
2397.761475	100.831459
2397.042480	76.480507
2396.323242	86.895668
2395.603760	69.505341
2394.884277	90.342384
2394.164795	97.276123
2393.445068	79.892517
2392.725098	72.933586
2392.005127	86.811707
2391.285156	107.629173
2390.564941	83.312386
2389.844727	97.182121
2389.124268	97.166458
2388.403809	72.863098
2387.683105	52.036682
2386.962402	100.588036
2386.241455	79.763855
2385.520508	97.088173
2384.799316	100.539398
2384.078125	93.590553
2383.356689	114.370010
2382.635254	65.838783
2381.913818	90.080650
2381.192139	96.994286
2380.470215	124.686829
2379.748291	83.111145
2379.026367	51.936085
2378.304199	79.622490
2377.581787	96.916092
2376.859375	103.821915
2376.136963	96.884819
2375.414307	55.353825
2374.691650	76.099228
2373.968750	93.379433
2373.245850	79.532608
2372.522705	121.008354
2371.799316	58.765999
2371.076172	107.144234
2370.352783	76.025574
2369.629150	82.923599
2368.905518	96.728584
2368.181641	117.437180
2367.457764	72.523018
2366.733643	110.493423
2366.009521	100.118500
2365.285400	72.487892
2364.561035	103.537415
2363.836426	96.619316
2363.111816	100.053848
2362.387207	75.890656
2361.662354	106.919563
2360.937256	100.005371
2360.212158	96.541313
2359.487061	99.973068
2358.761719	113.744080
2358.036377	86.155830
2357.310791	82.696236
2356.584961	82.682877
2355.859375	72.335823
2355.133301	86.100159
2354.407471	86.086250
2353.681152	89.515228
2352.955078	86.058426
2352.228516	110.136978
2351.502197	86.030609
2350.775635	106.660706
2350.048828	110.083572
2349.322021	127.263557
2348.594971	123.803978
2347.867920	110.030190
2347.140869	103.136620
2346.413330	109.994606
2345.686035	103.103271
2344.958496	89.341713
2344.230713	72.148949
2343.502930	106.488358
2342.775146	103.036583
2342.047119	103.019913
2341.319092	133.904221
2340.590820	92.687927
2339.862305	92.672928
2339.133789	99.521484
2338.405273	126.955147
2337.676514	109.781273
2336.947754	116.623726
2336.218750	61.731983
2335.489746	106.298981
2334.760498	106.281776
2334.031250	95.980904
2333.301758	116.529381
2332.572266	92.523056
2331.842529	119.917877
2331.112793	106.195778
2330.382813	119.879051
2329.652832	109.585953
2328.922607	89.024170
2328.192383	130.091171
2327.462158	140.338806
2326.731689	99.247955
2326.000977	116.340820
2325.270264	99.215805
2324.539307	123.144493
2323.808350	116.284294
2323.077393	95.748024
2322.346191	109.408585
2321.614746	88.880074
2320.883301	85.447762
2320.151855	133.276901
2319.420166	88.836868
2318.688232	88.822472
2317.956299	102.470856
2317.224365	122.945099
2316.492188	112.681404
2315.760010	133.147354
2315.027588	122.885323
2314.295166	98.974907
2313.562500	95.546486
2312.829590	85.295532
2312.096924	115.983109
2311.363770	119.375015
2310.630615	75.023560
2309.897461	112.517082
2309.164063	126.135056
2308.430664	98.846581
2307.697021	115.870293
2306.963379	105.629311
2306.229492	95.391640
2305.495605	71.532120
2304.761719	78.331993
2304.027344	129.397079
2303.293213	68.092674
2302.558838	98.718361
2301.824219	115.719986
2301.089600	125.910133
2300.354736	119.084846
2299.619873	102.056160
2298.885010	125.848839
2298.149658	95.221497
2297.414551	136.008621
2296.679199	115.588562
2295.943604	101.973351
2295.208008	81.565437
2294.472412	118.930283
2293.736572	101.923683
2293.000488	101.907135
2292.264404	95.097878
2291.528320	101.874039
2290.791992	91.671738
2290.055420	84.867455
2289.318848	101.824402
2288.582275	78.052696
2287.845459	88.219147
2287.108398	118.737244
2286.371582	122.109894
2285.634277	101.741714
2284.896973	67.816788
2284.159668	132.221237
2283.422119	108.471596
2282.684570	135.567459
2281.946777	105.047699
2281.208740	118.582970
2280.470703	111.788620
2279.732666	108.383469
2278.994385	98.206551
2278.256104	111.734108
2277.517578	108.330612
2276.779053	91.389091
2276.040283	94.758461
2275.301514	111.661453
2274.562500	142.091461
2273.823486	111.625137
2273.084229	118.371040
2272.344971	118.351784
2271.605469	128.475327
2270.865967	84.509491
2270.126221	138.573013
2269.386475	74.344154
2268.646484	118.255547
2267.906494	111.479942
2267.166260	97.951279
2266.426025	91.181183
2265.685547	128.308182
2264.945068	118.159355
2264.204346	124.890991
2263.463623	124.870659
2262.722656	131.598999
2261.981689	141.698929
2261.240723	118.063217
2260.499268	118.043991
2259.758057	104.536232
2259.016602	124.748734
2258.274902	111.244263
2257.533203	124.708107
2256.791260	144.907440
2256.049316	97.712357
2255.307129	104.434128
2254.564941	97.680527
2253.822754	107.767853
2253.080322	138.055069
2252.337646	107.732742
2251.594971	117.813484
2250.852051	100.966537
2250.109131	100.950081
2249.366211	117.755905
2248.623047	107.644997
2247.879639	104.264099
2247.136230	87.433052
2246.392578	73.969757
2245.648926	131.106827
2244.905273	110.918465
2244.161377	80.654823
2243.417236	80.641678
2242.673096	90.707092
2241.928955	107.487175
2241.184570	110.828072
2240.439941	117.525757
2239.695313	120.863922
2238.950439	120.844215
2238.205566	144.318161
2237.460693	130.871857
2236.715576	114.074806
2235.970215	130.829163
2235.224854	93.913315
2234.479492	103.958488
2233.733887	114.000389
2232.988037	117.334190
2232.242188	110.611328
2231.496338	100.539345
2230.750244	127.329048
2230.003906	117.257622
2229.257568	107.189468
2228.511230	113.870216
2227.764648	110.503052
2227.017822	100.440926
2226.270996	137.246857
2225.523926	127.183632
2224.776855	127.162865
2224.029785	113.758728
2223.282471	103.704254
2222.534912	103.687317
2221.787354	110.358795
2221.039795	93.622475
2220.291992	83.577843
2219.543945	93.591896
2218.795898	116.970757
2218.047852	116.951653
2217.299561	106.909752
2216.551025	113.573059
2215.802490	120.234177
2215.053955	113.535942
2214.305176	110.178642
2213.556152	90.131432
2212.807129	126.830917
2212.058105	113.461746
2211.308838	103.433510
2210.559326	103.416603
2209.809814	116.741592
2209.060303	133.397156
2208.310547	70.022057
2207.560547	146.688889
2206.810547	136.665024
2206.060303	119.978943
2205.310059	139.952545
2204.559814	113.276390
2203.809326	109.926750
2203.058594	123.231041
2202.307861	123.210892
2201.557129	106.543335
2200.806152	96.539108
2200.054932	119.822044
2199.303711	119.802444
2198.552246	119.782837
2197.800781	103.129456
2197.049316	109.765007
2196.297607	79.816032
2195.545654	129.679825
2194.793701	132.983185
2194.041504	129.637390
2193.289307	106.351723
2192.537109	99.688423
2191.784668	109.639313
2191.031982	112.943222
2190.279297	86.354210
2189.526367	102.943932
2188.773438	119.528214
2188.020508	122.828331
2187.267090	69.701958
2186.513916	96.239326
2185.760498	132.722153
2185.006836	102.842827
2184.253174	96.192047
2183.499268	82.910591
2182.745361	112.739937
2181.991211	92.829445
2181.237061	96.129028
2180.482666	135.884293
2179.728271	96.097527
2178.973877	109.334442
2178.218994	142.442749
2177.464355	92.738213
2176.709229	139.084518
2175.954346	129.128754
2175.198975	82.761269
2174.443848	69.508072
2173.688232	125.755890
2172.932861	115.808807
2172.177002	125.714661
2171.421387	122.386307
2170.665283	95.908676
2169.909424	115.732872
2169.153076	112.407776
2168.396729	89.250359
2167.640381	135.506104
2166.883789	125.570419
2166.127197	105.726166
2165.370361	138.742828
2164.613525	122.205772
2163.856445	122.185730
2163.099365	125.467453
2162.342041	102.338234
2161.584473	125.426285
2160.826904	125.405701
2160.069336	115.486298
2159.311523	95.672943
2158.553711	98.955765
2157.795654	122.025414
2157.037354	125.302826
2156.279053	102.203949
2155.520752	108.779884
2154.762207	112.057846
2154.003662	125.220558
2153.244873	168.031586
2152.485840	148.238815
2151.726807	151.508118
2150.967773	135.017670
2150.208252	108.654915
2149.448975	102.053001
2148.689453	167.866074
2147.929688	105.310432
2147.169922	115.164360
2146.410156	111.855576
2145.650146	118.415855
2144.889893	108.530029
2144.129639	105.223953
2143.369141	131.508316
2142.608643	131.486710
2141.847900	134.751724
2141.087158	128.157410
2140.326416	114.994156
2139.565186	118.260262
2138.804199	144.516556
2138.042725	160.912445
2137.281494	114.918564
2136.519775	134.596756
2135.758301	95.186928
2134.996338	118.143654
2134.234619	111.561768
2133.472412	118.104797
2132.710449	134.486115
2131.947998	127.904785
2131.185547	147.558167
2130.423096	131.141235
2129.660400	111.451721
2128.897705	124.543190
2128.134766	117.968880
2127.371826	134.331329
2126.608643	147.412567
2125.845215	131.011841
2125.081787	137.539795
2124.318359	117.871849
2123.554688	153.862915
2122.790771	117.833054
2122.026855	143.994476
2121.262939	150.514893
2120.498779	124.317924
2119.734375	163.549286
2118.969971	124.276993
2118.205322	150.415802
2117.440674	153.660400
2116.676025	140.559769
2115.911133	137.268326
2115.145996	124.174698
2114.380859	169.895294
2113.615479	143.733871
2112.850098	124.113350
2112.084473	150.217728
2111.318848	150.192978
2110.552979	120.787498
2109.787109	127.295578
2109.020996	176.226364
2108.254883	146.831116
2107.488525	133.757416
2106.722168	140.259048
2105.955566	123.929428
2105.188965	127.169762
2104.422119	110.847672
2103.655029	127.127838
2102.887939	182.512451
2102.120850	153.154846
2101.353516	117.290749
2100.585938	146.589264
2099.818359	127.023079
2099.050781	153.053848
2098.282959	175.820114
2097.514893	166.024948
2096.746826	113.919891
2095.978760	159.461548
2095.210449	133.404999
2094.441895	156.155701
2093.673340	162.635345
2092.904541	143.095505
2092.135742	178.839859
2091.366699	172.308151
2090.597656	107.268509
2089.828369	178.751343
2089.059082	155.975433
2088.289551	149.451782
2087.520020	178.662857
2086.750244	181.881256
2085.980469	162.367172
2085.210449	168.833984
2084.440186	120.112038
2083.670166	129.829407
2082.899658	139.543579
2082.129150	149.254517
2081.358643	145.985748
2080.587891	178.397568
2079.816895	126.479202
2079.045898	119.973267
2078.274902	123.195435
2077.503662	162.072479
2076.732178	126.395653
2075.960693	165.259323
2075.188965	152.272644
2074.417236	126.333023
2073.645264	139.267242
2072.873291	181.341324
2072.101074	145.696625
2071.328857	171.569885
2070.556396	181.251434
2069.783936	158.568787
2069.011230	100.302444
2068.238525	142.341232
2067.465576	148.786682
2066.692627	158.463974
2065.919434	177.838318
2065.145996	135.781342
2064.372559	142.223602
2063.599121	148.663727
2062.825439	187.414566
2062.051514	132.460800
2061.277588	164.741074
2060.503662	167.943497
2059.729248	174.374023
2058.955078	171.116562
2058.180664	177.544418
2057.406006	187.197678
2056.631348	180.712692
2055.856445	209.721085
2055.081543	158.071274
2054.306396	164.495941
2053.531250	174.143341
2052.755859	132.198074
2051.980225	174.085709
2051.204590	145.047409
2050.428955	180.473572
2049.653076	170.777069
2048.877197	154.640411
2048.101074	141.730240
2047.324707	196.457123
2046.548340	154.563614
2045.771851	170.635727
2044.995239	144.855408
2044.218506	173.797699
2043.441528	141.589493
2042.664551	154.435669
2041.887329	170.494476
2041.110107	135.086456
2040.332642	164.006378
2039.555176	170.409760
2038.777466	125.375084
2037.999634	151.068008
2037.221802	157.470337
2036.443726	167.083694
2035.665527	186.331696
2034.887207	160.604156
2034.108765	163.789078
2033.330200	173.394989
2032.551514	170.155762
2031.772705	173.337509
2030.993774	198.984146
2030.214600	182.906708
2029.435425	173.251312
2028.656128	192.469528
2027.876587	179.608444
2027.097046	211.646271
2026.317261	157.105270
2025.537476	176.313400
2024.757446	176.284149
2023.977295	163.436371
2023.197021	211.470810
2022.416626	198.621445
2021.636230	188.979370
2020.855591	195.353027
2020.074707	211.330505
2019.293823	185.683868
2018.512817	179.251221
2017.731689	188.822632
2016.950439	217.589966
2016.168945	182.361313
2015.387451	179.132248
2014.605713	169.507736
2013.823975	198.259155
2013.041992	211.015030
2012.260010	179.013336
2011.477783	185.375885
2010.695435	169.367081
2009.912964	194.899551
2009.130371	188.478088
2008.347656	172.476715
2007.564819	178.835037
2006.781860	175.612381
2005.998779	185.160477
2005.215576	248.967560
2004.432129	236.160751
2003.648682	220.167358
2002.864990	185.037460
2002.081299	194.576035
2001.297363	242.382309
2000.513428	184.945236
1999.729248	219.984497
1998.944946	216.760284
1998.160522	245.408340
1997.375977	181.635727
1996.591309	213.466141
1995.806519	213.430664
1995.021606	213.395172
1994.236572	226.097595
1993.451416	222.876053
1992.666016	191.004852
1991.880615	210.070389
1991.094971	206.853104
1990.309326	219.546005
1989.523438	235.415970
1988.737549	248.099884
1987.951416	219.436478
1987.165161	244.837646
1986.378784	247.976089
1985.592285	209.791016
1984.805664	225.646729
1984.018921	266.917908
1983.232056	174.738586
1982.444946	244.593307
1981.657837	250.904617
1980.870605	238.160950
1980.083130	219.071594
1979.295654	257.128204
1978.507935	225.346466
1977.720093	241.175766
1976.932129	247.481293
1976.144165	272.818573
1975.355957	250.570663
1974.567627	260.042694
1973.779053	218.779984
1972.990479	247.275314
1972.201782	291.609497
1971.412964	250.362091
1970.623901	218.634262
1969.834839	215.429749
1969.045532	259.739655
1968.256226	243.861237
1967.466675	278.652130
1966.677002	250.111938
1965.887207	281.724731
1965.097290	272.183014
1964.307251	259.480103
1963.517090	224.634338
1962.726807	240.413589
1961.936401	281.490021
1961.145874	271.956268
1960.355103	252.940399
1959.564331	246.575775
1958.773315	287.623779
1957.982178	274.935120
1957.191040	293.847168
1956.399658	287.479919
1955.608154	265.321838
1954.816528	281.067902
1954.024780	287.336121
1953.232910	268.346100
1952.440918	325.118103
1951.648682	249.320831
1950.856445	302.921600
1950.063965	283.941620
1949.271484	290.203003
1948.478760	283.846863
1947.685913	286.952820
1946.893066	286.904938
1946.099976	337.293457
1945.306763	255.291687
1944.513428	299.366211
1943.719971	305.617645
1942.926270	324.467651
1942.132568	311.814880
1941.338745	270.824280
1940.544678	280.224854
1939.750610	327.399078
1938.956299	280.131256
1938.161865	308.407654
1937.367310	295.770172
1936.572632	302.012695
1935.777832	298.816803
1934.982910	320.781311
1934.187866	330.160889
1933.392700	311.242554
1932.597290	342.623932
1931.801880	301.710114
1931.006226	270.236816
1930.210571	273.333435
1929.414673	282.711456
1928.618652	285.804932
1927.822510	326.579620
1927.026245	298.268066
1926.229858	361.000977
1925.433350	354.663422
1924.636719	338.913666
1923.839844	279.243286
1923.042969	304.292908
1922.245850	345.016754
1921.448730	310.463135
1920.651367	319.817627
1919.853882	360.518402
1919.056274	385.533447
1918.258545	288.318237
1917.460693	319.603729
1916.662720	291.354645
1915.864624	316.364471
1915.066284	357.024933
1914.267944	350.702637
1913.469360	347.513214
1912.670776	316.152802
1911.871948	369.304840
1911.072998	341.080444
1910.273926	315.994110
1909.474731	344.094391
1908.675415	331.526367
1907.875977	347.106293
1907.076294	318.909149
1906.276611	378.250458
1905.476807	337.555450
1904.676758	309.374023
1903.876587	340.566895
1903.076294	353.005646
1902.275879	362.316803
1901.475342	349.764526
1900.674683	324.726959
1899.873901	334.038116
1899.072998	324.618164
1898.271851	399.463135
1897.470703	355.712250
1896.669312	386.850250
1895.867920	361.831543
1895.066284	343.058624
1894.264526	380.419434
1893.462646	349.178986
1892.660645	358.471924
1891.858521	345.945343
1891.056152	367.700073
1890.253784	299.095673
1889.451172	352.001526
1888.648560	342.598907
1887.845703	389.251678
1887.042725	367.391968
1886.239624	357.991455
1885.436401	370.381226
1884.633057	388.990662
1883.829590	373.368408
1883.025879	342.196960
1882.222168	376.353516
1881.418213	370.070709
1880.614258	366.899323
1879.810059	338.858612
1879.005737	360.559692
1878.201294	410.223206
1877.396729	382.189301
1876.592041	391.445313
1875.787231	378.954865
1874.982178	366.468597
1874.177124	434.720276
1873.371826	353.927094
1872.566406	375.596405
1871.760986	381.740540
1870.955322	384.779510
1870.149536	356.792053
1869.343506	362.936188
1868.537476	378.382721
1867.731323	378.319214
1866.924927	365.853851
1866.118530	365.792389
1865.311890	409.122772
1864.505127	393.559601
1863.698242	390.395111
1862.891235	362.448853
1862.084106	346.901306
1861.276855	393.295197
1860.469482	408.710602
1859.661865	374.588409
1858.854126	374.525482
1858.046387	365.178345
1857.238403	402.247528
1856.430298	386.711456
1855.622070	426.857697
1854.813721	395.859436
1854.005249	380.332214
1853.196533	405.001190
1852.387817	411.115265
1851.578857	395.593292
1850.769775	376.986450
1849.960693	383.102142
1849.151367	410.838837
1848.341919	392.238770
1847.532227	404.524719
1846.722534	389.019409
1845.912720	404.388641
1845.102661	391.974945
1844.292603	357.964142
1843.482300	382.586945
1842.671875	379.437714
1841.861328	419.470306
1841.050659	388.561493
1840.239868	391.579407
1839.428833	428.506927
1838.617798	437.681610
1837.806519	431.444427
1836.995117	415.965668
1836.183716	391.250000
1835.372070	415.825653
1834.560303	418.835327
1833.748291	409.527344
1832.936279	409.458374
1832.124146	400.155090
1831.311768	406.242889
1830.499390	406.174500
1829.686768	387.646729
1828.874023	433.722076
1828.061157	433.649017
1827.248169	372.075836
1826.434937	411.981506
1825.621704	396.542236
1824.808228	374.961273
1823.994751	408.700378
1823.181030	439.355682
1822.367188	417.778351
1821.553223	414.636566
1820.739136	439.133606
1819.924927	393.004364
1819.110474	386.798462
1818.296021	414.357086
1817.481323	420.424805
1816.666626	358.988403
1815.851685	408.012024
1815.036621	386.472534
1814.221436	420.141357
1813.406006	423.136719
1812.590576	404.671204
1811.774902	352.494995
1810.959229	419.858002
1810.143311	410.594757
1809.327271	428.907227
1808.511108	398.203827
1807.694824	422.637360
1806.878418	376.634949
1806.061768	431.679413
1805.245117	397.935150
1804.428223	434.594269
1803.611206	431.460907
1802.794067	391.614746
1801.976807	437.433228
1801.159424	382.307159
1800.341919	428.111755
1799.524170	391.350372
1798.706421	409.625763
1797.888428	427.894958
1797.070313	433.934479
1796.252075	409.418304
1795.433716	433.787933
1794.615234	403.171387
1793.796509	442.802856
1792.977783	439.674774
1792.158813	439.600525
1791.339844	421.212646
1790.520630	451.658997
1789.701294	427.172821
1788.881714	408.796326
1788.062134	399.576660
1787.242432	375.111633
1786.422485	454.326721
1785.602417	405.471436
1784.782349	423.691772
1783.962036	377.905731
1783.141479	420.501434
1782.320923	469.175903
1781.500244	411.221039
1780.679321	493.381805
1779.858398	380.631470
1779.037231	456.680542
1778.215942	483.999512
1777.394531	444.352081
1776.572998	404.718018
1775.751221	435.074371
1774.929443	508.007904
1774.107422	434.927185
1773.285278	434.853638
1772.463013	419.577972
1771.640625	413.427155
1770.818115	437.672333
1769.995483	407.209534
1769.172607	501.329865
1768.349731	434.412354
1767.526611	458.637512
1766.703369	409.970764
1765.880005	467.591187
1765.056519	428.046753
1764.232910	403.692047
1763.409058	455.214722
1762.585083	412.658142
1761.761108	461.128082
1760.936890	482.282562
1760.112549	430.644806
1759.288086	448.765076
1758.463379	427.467285
1757.638672	433.457245
1756.813721	484.904968
1755.988647	490.883118
1755.163574	484.740692
1754.338257	454.367432
1753.512695	493.662292
1752.687134	445.129211
1751.861328	457.164093
1751.035522	454.059570
1750.209473	435.823303
1749.383301	472.061890
1748.557007	462.905304
1747.730591	453.751831
1746.903931	477.870911
1746.077271	459.645966
1745.250366	520.037537
1744.423340	474.604950
1743.596313	459.412231
1742.768921	450.268524
1741.941528	450.192169
1741.114014	528.659546
1740.286255	492.325073
1739.458374	465.062592
1738.630493	474.041840
1737.802368	498.112335
1736.973999	431.624115
1736.145630	446.640076
1735.317139	455.616302
1734.488403	476.656677
1733.659546	545.950745
1732.830566	419.194916
1732.001465	509.582153
1731.172241	482.362762
1730.342896	515.437683
1729.513306	482.199036
1728.683594	482.117188
1727.853882	466.971741
1727.023926	442.794769
1726.193726	490.906769
1725.363525	487.812225
1724.533203	481.708038
1723.702637	490.656738
1722.871948	469.505829
1722.041138	514.563232
1721.210205	547.570740
1720.379150	481.299133
1719.547974	514.301086
1718.716553	484.142731
1717.885010	484.060486
1717.053467	499.008606
1716.221558	516.957214
1715.389648	480.808716
1714.557617	522.790649
1713.725342	534.717896
1712.893066	540.634094
1712.060547	522.524109
1711.227905	534.445313
1710.395142	519.344482
1709.562256	570.281372
1708.729126	546.176697
1707.895874	513.078735
1707.062622	545.990967
1706.229126	548.897583
1705.395508	506.819183
1704.561646	509.731415
1703.727783	548.617554
1702.893677	560.513855
1702.059570	527.452698
1701.225220	560.323181
1700.390747	500.310425
1699.556030	545.155762
1698.721313	527.093872
1697.886353	553.953247
1697.051392	526.914490
1696.216187	538.798157
1695.380859	481.842987
1694.545410	568.537781
1693.709717	559.465637
1692.874023	502.535980
1692.038086	565.256714
1691.202026	523.296753
1690.365845	547.125732
1689.529541	567.957336
1688.692993	543.950684
1687.856445	496.046387
1687.019653	555.716370
1686.182739	564.583313
1685.345703	573.447266
1684.508545	519.598083
1683.671143	519.509583
1682.833740	519.421082
1681.996094	549.179321
1681.158325	569.974854
1680.320435	551.975830
1679.482422	507.134613
1678.644287	536.874573
1677.805908	515.908142
1676.967407	530.728333
1676.128784	524.675659
1675.290039	536.508606
1674.451172	566.218140
1673.612183	548.244080
1672.772949	524.317993
1671.933594	533.164307
1671.094116	571.788208
1670.254517	562.758057
1669.414795	583.501404
1668.574829	583.401917
1667.734863	538.661926
1666.894653	598.080566
1666.054321	544.428223
1665.213867	565.156921
1664.373169	579.930542
1663.532471	535.229126
1662.691528	552.975769
1661.850464	538.018982
1661.009277	561.703003
1660.167969	597.264709
1659.326538	597.162781
1658.484863	603.001770
1657.643066	531.620178
1656.801147	549.346069
1655.959106	552.221191
1655.116943	566.969055
1654.274658	596.551453
1653.432129	587.547363
1652.589478	631.950562
1651.746704	575.481079
1650.903809	560.553406
1650.060791	542.665344
1649.217529	592.975586
1648.374146	560.266174
1647.530640	589.809143
1646.687012	509.697693
1645.843262	583.681946
1644.999390	604.318665
1644.155273	598.291687
1643.311035	624.841492
1642.466675	568.478943
1641.622192	615.746948
1640.777588	541.646362
1639.932739	582.984070
1639.087769	574.008057
1638.242798	579.826538
1637.397461	579.727417
1636.552124	550.055420
1635.706665	585.442749
1634.860962	603.080261
1634.015137	608.888733
1633.169189	552.634521
1632.323120	564.359070
1631.476929	567.216797
1630.630493	573.027283
1629.783936	590.648743
1628.937256	617.122314
1628.090454	596.351135
1627.243530	578.538757
1626.396484	587.293396
1625.549194	539.981445
1624.701782	581.192017
1623.854248	548.645752
1623.006592	651.773987
1622.158691	625.124146
1621.310791	660.395447
1620.462646	592.485596
1619.614380	627.750366
1618.765991	574.602661
1617.917358	589.235168
1617.068726	547.894836
1616.219849	591.978577
1615.370850	647.825745
1614.521729	565.278381
1613.672363	609.336365
1612.822998	615.118347
1611.973389	617.955627
1611.123657	638.444763
1610.273804	655.985168
1609.423828	638.226013
1608.573608	614.591614
1607.723389	626.246826
1606.872925	614.380981
1606.022339	658.362488
1605.171509	620.047668
1604.320679	572.931641
1603.469604	631.585571
1602.618408	613.854675
1601.767090	602.003052
1600.915649	619.516418
1600.064087	613.539063
1599.212280	631.044373
1598.360352	622.132446
1597.508301	648.432495
1596.656128	607.251160
1595.803833	618.879333
1594.951294	630.503479
1594.098633	580.550110
1593.245850	691.850098
1592.392944	580.350952
1591.539795	688.682190
1590.686646	668.053650
1589.833252	679.657227
1588.979736	615.101379
1588.126099	614.995850
1587.272217	655.882996
1586.418335	644.060242
1585.564209	608.825195
1584.709961	658.471863
1583.855591	664.210938
1583.000977	628.990417
1582.146362	649.357727
1581.291504	625.849976
1580.436523	625.742493
1579.581421	619.787964
1578.726074	593.374329
1577.870605	637.110229
1577.015137	677.909119
1576.159424	619.362305
1575.303467	645.545044
1574.447510	689.241943
1573.591309	613.203125
1572.734985	621.856323
1571.878540	653.858582
1571.021973	601.213074
1570.165161	604.027771
1569.308350	633.098999
1568.451294	667.994263
1567.594116	670.795959
1566.736694	644.436646
1565.879272	644.325867
1565.021606	638.385071
1564.163818	620.788330
1563.305908	661.477600
1562.447876	649.709839
1561.589600	591.338196
1560.731201	658.223938
1559.872681	617.342773
1559.014038	675.466492
1558.155273	675.350281
1557.296265	631.576721
1556.437134	695.487915
1555.577881	631.359436
1554.718506	657.431763
1553.859009	616.599792
1552.999268	651.389526
1552.139404	715.242188
1551.279419	616.281494
1550.419312	656.866272
1549.558960	685.813110
1548.698608	671.167603
1547.838013	679.767029
1546.977173	636.082703
1546.116333	667.917053
1545.255249	670.705566
1544.394165	644.463196
1543.532837	629.839783
1542.671265	629.731323
1541.809692	655.736267
1540.947876	629.514404
1540.085938	704.818665
1539.223877	635.097534
1538.361694	637.887634
1537.499268	681.262573
1536.636841	684.043701
1535.774170	710.007751
1534.911377	669.320496
1534.048340	614.162354
1533.185303	677.779358
1532.322021	729.790405
1531.458618	726.769104
1530.594971	628.213989
1529.731323	723.624084
1528.867432	717.711365
1528.003418	714.694153
1527.139282	636.459900
1526.275024	650.812683
1525.410522	679.620483
1524.545898	679.503296
1523.681152	711.187134
1522.816284	722.626526
1521.951172	658.921692
1521.086060	696.371643
1520.220703	696.251526
1519.355225	667.246277
1518.489502	727.779480
1517.623779	675.678589
1516.757813	687.110107
1515.891724	686.991516
1515.025513	709.961121
1514.159058	698.296509
1513.292480	628.935364
1512.425781	672.094727
1511.558960	697.934937
1510.692017	741.067444
1509.824829	717.875244
1508.957520	688.925964
1508.090088	691.689026
1507.222534	645.464966
1506.354736	714.498474
1505.486938	702.852905
1504.618896	694.091370
1503.750610	665.175964
1502.882324	711.125916
1502.013794	693.731750
1501.145142	699.368042
1500.276367	696.369629
1499.407471	796.946533
1498.538330	747.907166
1497.669067	713.265137
1496.799683	727.519714
1495.930176	695.768127
1495.060547	687.024170
1494.190674	692.653564
1493.320679	732.764038
1492.450562	712.525696
1491.580200	680.804016
1490.709717	712.279358
1489.839233	720.770996
1488.968384	680.450928
1488.097534	737.745361
1487.226440	786.409607
1486.355347	728.881348
1485.483887	763.184692
1484.612427	806.081970
1483.740845	834.623718
1482.869019	823.008850
1481.997070	754.055298
1481.124878	794.057739
1480.252686	808.250977
1479.380249	676.291565
1478.507690	882.465088
1477.635010	833.613281
1476.762207	804.827454
1475.889160	839.052063
1475.015991	827.454163
1474.142700	850.212280
1473.269165	890.135437
1472.395630	935.768188
1471.521851	967.079102
1470.647949	1012.682617
1469.773804	1006.786865
1468.899658	1080.964600
1468.025269	1195.145264
1467.150757	1243.536255
1466.276001	1289.052246
1465.401245	1466.007080
1464.526245	1634.329102
1463.651123	1705.463989
1462.775879	1830.842529
1461.900391	1956.177612
1461.024780	2187.112793
1460.149048	2289.504639
1459.273193	2514.593506
1458.397217	2488.473877
1457.520996	2413.857666
1456.644653	2364.942383
1455.768188	2256.145996
1454.891479	2147.387451
1454.014648	2067.179199
1453.137695	1972.744751
1452.260620	1792.834229
1451.383423	1838.120117
1450.505981	1666.843018
1449.628418	1595.333618
1448.750732	1592.208618
1447.872803	1443.845703
1446.994873	1380.953979
1446.116699	1295.309448
1445.238403	1198.309082
1444.359863	1243.634644
1443.481201	1152.367676
1442.602417	1177.771362
1441.723511	1174.722656
1440.844482	1185.894165
1439.965210	1185.688354
1439.085815	1145.682129
1438.206299	1316.026733
1437.326538	1273.169800
1436.446777	1326.935425
1435.566772	1417.614136
1434.686646	1519.622925
1433.806274	1519.359009
1432.925781	1476.503784
1432.045166	1280.360596
1431.164429	1231.884644
1430.283569	1067.069580
1429.402466	1018.647400
1428.521240	1103.579346
1427.639893	955.891113
1426.758301	899.005432
1425.876709	913.026672
1424.994873	861.838135
1424.112793	827.674316
1423.230713	844.534546
1422.348389	872.722900
1421.465942	824.409790
1420.583374	863.921936
1419.700562	821.291138
1418.817627	826.811462
1417.934570	877.626648
1417.051392	866.151855
1416.167969	891.471863
1415.284546	851.702698
1414.400757	817.605591
1413.516968	811.806213
1412.633057	851.258423
1411.748901	820.006653
1410.864624	848.135132
1409.980103	814.068115
1409.095459	901.536621
1408.210815	799.656616
1407.325806	836.244446
1406.440796	858.696167
1405.555542	912.205872
1404.670166	858.397278
1403.784668	886.479736
1402.899048	835.516968
1402.013184	897.459961
1401.127197	880.373413
1400.241089	832.259460
1399.354736	908.274170
1398.468262	896.835083
1397.581665	817.726013
1396.694946	902.161255
1395.807983	876.635254
1394.920898	924.393188
1394.033691	831.245422
1393.146362	876.177246
1392.258789	909.826172
1391.371094	870.239380
1390.483276	903.877563
1389.595337	940.319336
1388.707153	878.229065
1387.818848	906.219482
1386.930420	861.039856
1386.041748	841.196228
1385.152954	914.184326
1384.264038	902.775452
1383.375000	908.241821
1382.485718	905.272095
1381.596313	972.576172
1380.706787	961.164917
1379.817139	1000.336365
1378.927246	1005.780823
1378.037231	988.751709
1377.147095	1078.450073
1376.256714	1030.526367
1375.366333	1041.576538
1374.475586	1128.411743
1373.584839	1102.956299
1372.693970	1116.793945
1371.802856	1094.154907
1370.911499	1141.649536
1370.020142	1099.382202
1369.128540	1034.697021
1368.236816	1054.141357
1367.344971	1053.957397
1366.453003	1056.575928
1365.560791	1042.380981
1364.668457	1073.016724
1363.775879	1162.465332
1362.883301	1134.255981
1361.990479	1276.865234
1361.097534	1315.837402
1360.204346	1399.582642
1359.311035	1444.116943
1358.417603	1552.994019
1357.524048	1440.814819
1356.630249	1334.269165
1355.736450	1375.986938
1354.842285	1249.916016
1353.948120	1174.212524
1353.053711	1095.740234
1352.159180	1053.627197
1351.264526	1031.088867
1350.369751	1025.321045
1349.474731	955.309326
1348.579590	966.313599
1347.684204	996.860291
1346.788818	943.641113
1345.893188	960.224243
1344.997314	960.056335
1344.101440	951.517334
1343.205322	1021.098083
1342.309082	987.446777
1341.412720	962.173889
1340.516113	948.063477
1339.619385	1048.263306
1338.722534	1006.268188
1337.825439	1103.635742
1336.928223	1109.015625
1336.030884	1170.113159
1335.133423	1142.053467
1334.235718	1236.543945
1333.337891	1400.614380
1332.439941	1467.186035
1331.541870	1767.552368
1330.643555	1889.697632
1329.745117	2103.625000
1328.846436	2186.719238
1327.947754	2094.543701
1327.048828	2083.052490
1326.149780	1879.702148
1325.250488	1687.543579
1324.351074	1537.146851
1323.451538	1347.894531
1322.551880	1200.388550
1321.651978	1158.505493
1320.751953	1036.083496
1319.851807	958.139954
1318.951416	930.204773
1318.050903	943.923035
1317.150269	896.569763
1316.249512	807.604004
1315.348511	835.210327
1314.447388	807.320984
1313.546021	735.060364
1312.644653	784.851379
1311.743042	826.306396
1310.841309	773.486816
1309.939331	717.913879
1309.037231	670.674500
1308.135010	756.454712
1307.232666	720.306702
1306.330078	778.348816
1305.427368	733.901306
1304.524536	791.920593
1303.621460	822.234863
1302.718262	755.659058
1301.814941	761.061523
1300.911499	871.608398
1300.007813	810.591919
1299.104004	791.087463
1298.199951	732.872009
1297.295898	699.562561
1296.391602	746.437683
1295.487061	702.081116
1294.582520	765.520996
1293.677734	676.966553
1292.772827	798.403992
1291.867676	679.491028
1290.962402	693.180115
1290.057007	632.312256
1289.151489	657.047546
1288.245728	621.049316
1287.339844	620.940247
1286.433838	618.071960
1285.527588	582.099426
1284.621216	537.864746
1283.714722	548.801453
1282.808105	598.336609
1281.901245	573.420044
1280.994263	520.948792
1280.087036	534.636536
1279.179810	553.830200
1278.272217	592.301392
1277.364624	564.653198
1276.456787	592.093201
1275.548828	547.934082
1274.640747	545.084839
1273.732544	531.226685
1272.824097	591.676941
1271.915405	533.791382
1271.006714	566.709778
1270.097778	530.853149
1269.188721	528.009766
1268.279541	536.165588
1267.370117	511.329529
1266.460571	527.731201
1265.550781	497.409088
1264.640991	516.554993
1263.730957	538.441345
1262.820679	532.853271
1261.910400	524.520996
1260.999878	524.428650
1260.089233	505.119873
1259.178345	502.286224
1258.267334	568.059814
1257.356201	587.166260
1256.444824	617.239014
1255.533447	630.844360
1254.621704	682.837341
1253.709961	655.298767
1252.797974	633.252563
1251.885864	630.400208
1250.973633	567.260254
1250.061157	572.640137
1249.148560	501.314331
1248.235840	525.876465
1247.322876	531.260742
1246.409790	509.263367
1245.496582	500.961182
1244.583130	500.872925
1243.669556	481.628967
1242.755859	465.127838
1241.841919	511.550446
1240.927856	527.870789
1240.013672	503.166351
1239.099365	508.545898
1238.184814	489.320801
1237.270142	472.835632
1236.355225	491.880981
1235.440186	510.919586
1234.525024	472.585571
1233.609741	494.352051
1232.694214	496.995636
1231.778564	529.671143
1230.862671	485.901215
1229.946777	529.484314
1229.030640	532.119751
1228.114258	523.840881
1227.197876	551.027039
1226.281128	512.746521
1225.364380	586.282227
1224.447388	610.716492
1223.530273	670.579224
1222.613037	722.244385
1221.695557	798.416077
1220.777954	858.213928
1219.860229	888.026489
1218.942261	893.316833
1218.024170	884.989990
1217.105957	963.788086
1216.187500	911.898315
1215.268921	802.873169
1214.350220	756.472290
1213.431274	737.294189
1212.512207	699.081726
1211.593018	568.413513
1210.673706	614.539490
1209.754150	560.056519
1208.834351	549.084656
1207.914551	519.092224
1206.994507	494.545013
1206.074219	478.156830
1205.153931	502.519196
1204.233398	458.976959
1203.312744	499.626251
1202.391846	494.108185
1201.470825	464.162445
1200.549683	480.363892
1199.628296	428.723602
1198.706787	455.777405
1197.785156	436.709473
1196.863281	447.480255
1195.941284	444.689606
1195.019165	498.831818
1194.096802	471.637939
1193.174438	444.453705
1192.251709	430.827057
1191.328979	457.842102
1190.406006	441.509216
1189.482788	433.306610
1188.559570	452.183746
1187.636108	387.130737
1186.712402	457.437195
1185.788696	449.237488
1184.864746	416.688721
1183.940552	403.088501
1183.016357	405.721985
1182.091919	454.328186
1181.167236	456.951599
1180.242554	500.124725
1179.317505	445.978210
1178.392456	472.923431
1177.467163	497.157166
1176.541748	483.561798
1175.616211	545.598816
1174.690430	540.101135
1173.764526	615.606262
1172.838501	704.582275
1171.912231	728.749146
1170.985840	844.659485
1170.059204	933.547607
1169.132446	1060.171143
1168.205566	1116.623535
1167.278564	1194.629395
1166.351318	1094.658203
1165.423828	1054.028320
1164.496338	943.336304
1163.568604	937.779541
1162.640747	894.504639
1161.712646	875.489380
1160.784424	872.640808
1159.856079	856.328918
1158.927490	888.485596
1157.998779	917.938965
1157.069946	952.764709
1156.140869	1033.324219
1155.211670	1043.902710
1154.282349	1256.227051
1153.352783	1312.484131
1152.423096	1438.636108
1151.493164	1457.200684
1150.563232	1489.199219
1149.632935	1359.929688
1148.702637	1327.442749
1147.772095	1174.067871
1146.841431	1010.002686
1145.910522	840.624268
1144.979492	722.325195
1144.048340	660.447754
1143.116943	644.224915
1142.185425	568.964294
1141.253784	512.513611
1140.321899	493.642700
1139.389893	512.331604
1138.457764	463.966614
1137.525391	453.158539
1136.592896	450.397125
1135.660278	348.459656
1134.727417	391.277466
1133.794434	367.092407
1132.861206	377.743286
1131.927856	345.533508
1130.994385	361.540588
1130.060669	358.798737
1129.126831	390.860474
1128.192871	380.084412
1127.258667	331.845703
1126.324341	379.949280
1125.389893	398.608307
1124.455200	326.319244
1123.520386	320.912659
1122.585327	342.245972
1121.650146	366.244995
1120.714844	315.395813
1119.779297	374.131866
1118.843628	368.721527
1117.907837	317.898956
1116.971802	328.526184
1116.035645	349.831482
1115.099365	360.449219
1114.162842	349.707001
1113.226196	354.982849
1112.289307	357.588257
1111.352417	360.192719
1110.415161	360.128601
1109.477905	394.737366
1108.540405	354.667053
1107.602661	367.934906
1106.664917	373.200836
1105.726807	402.452087
1104.788696	399.715668
1103.850342	436.944641
1102.911865	410.228607
1101.973145	506.036041
1101.034302	415.408234
1100.095337	399.359833
1099.156128	367.345612
1098.216797	372.603058
1097.277344	404.468384
1096.337646	345.865265
1095.397827	340.483582
1094.457764	343.082489
1093.517700	329.725922
1092.577271	327.008575
1091.636841	356.189728
1090.696167	287.027130
1089.755249	329.490906
1088.814209	313.491913
1087.873047	329.373444
1086.931763	278.855194
1085.990234	334.566559
1085.048584	289.375031
1084.106689	345.064636
1083.164673	326.425995
1082.222412	286.566833
1081.280151	262.639404
1080.337524	315.641541
1079.394897	299.673370
1078.452026	307.574402
1077.509033	315.472626
1076.565796	328.669128
1075.622437	270.308624
1074.678955	296.756470
1073.735229	286.106964
1072.791382	267.515228
1071.847290	304.542175
1070.903076	309.783264
1069.958740	246.194016
1069.014160	304.379120
1068.069458	306.971069
1067.124512	312.207916
1066.179565	288.343933
1065.234253	346.479889
1064.288940	282.952118
1063.343384	290.833405
1062.397583	296.068390
1061.451660	298.658478
1060.505615	311.817749
1059.559448	306.477936
1058.613037	311.706329
1057.666382	322.215057
1056.719727	295.751129
1055.772827	340.581055
1054.825684	343.159851
1053.878418	335.180878
1052.931030	340.398438
1051.983398	335.061035
1051.035645	400.946228
1050.087769	345.490570
1049.139648	395.529144
1048.191406	390.185638
1047.242920	461.285645
1046.294312	466.474030
1045.345581	492.740356
1044.396606	582.225342
1043.447510	600.559448
1042.498291	600.451965
1041.548828	634.574707
1040.599121	610.767639
1039.649414	613.290466
1038.699341	626.339111
1037.749268	657.801514
1036.798950	755.020935
1035.848511	746.995056
1034.897827	744.231506
1033.947021	641.554688
1032.996094	636.182129
1032.044922	565.101990
1031.093506	522.954224
1030.142090	480.821533
1029.190430	412.434204
1028.238525	425.492859
1027.286499	367.644012
1026.334351	383.331512
1025.381958	370.137390
1024.429443	367.446472
1023.476807	367.380646
1022.523926	359.443787
1021.570923	354.132965
1020.617737	325.219391
1019.664368	348.761536
1018.710815	325.102844
1017.757080	327.665894
1016.803223	343.332306
1015.849121	324.928070
1014.894897	327.489716
1013.940491	316.953217
1012.985962	322.134338
1012.031189	332.550629
1011.076294	335.109039
1010.121216	358.607056
1009.165955	374.245361
1008.210510	334.928772
1007.254944	355.797974
1006.299133	360.965546
1005.343201	407.974792
1004.387085	431.434387
1003.430786	499.328369
1002.474365	475.714417
1001.517700	561.869507
1000.560913	679.348145
999.603943	778.497742
998.646790	843.656494
997.689514	861.785339
996.731995	838.131653
995.774353	759.665161
994.816528	639.465820
993.858521	584.549500
992.900330	542.698486
991.942017	490.427856
990.983459	425.135010
990.024780	375.511932
989.065918	383.266266
988.106873	357.129547
987.147705	351.852753
986.188293	377.848022
985.228760	343.910217
984.269043	341.243500
983.309143	351.599945
982.349060	361.952667
981.388794	380.112183
980.428406	361.822571
979.467834	413.808990
978.507019	478.787201
977.546082	522.928955
976.585022	710.119080
975.623718	868.634216
974.662292	949.085266
973.700623	1026.907593
972.738831	1122.896851
971.776855	1083.712524
970.814758	1015.960144
969.852417	844.316223
968.889954	703.903198
967.927246	547.958862
966.964417	493.333893
966.001404	475.072937
965.038208	415.289581
964.074890	410.024658
963.111328	365.842224
962.147644	365.776398
961.183777	365.710541
960.219727	352.678589
959.255493	324.094757
958.291077	344.774750
957.326538	295.468018
956.361755	357.607391
955.396851	357.542999
954.431763	323.803101
953.466492	300.435150
952.501038	284.844086
951.535461	326.217194
950.569641	328.746979
949.603699	313.159210
948.637573	307.927521
947.671265	336.330811
946.704773	372.483917
945.738098	380.175476
944.771240	405.964569
943.804260	444.670837
942.837097	452.345184
941.869751	529.794556
940.902222	563.289734
939.934509	583.855652
938.966614	563.086609
937.998535	565.567627
937.030334	433.781860
936.061951	382.072235
935.093323	412.976563
934.124573	330.321686
933.155640	340.582794
932.186584	299.246033
931.217285	306.929779
930.247864	273.350311
929.278198	257.831116
928.308411	311.919373
927.338440	270.624969
926.368286	262.845398
925.397949	278.256653
924.427429	311.694244
923.456787	257.552063
922.485901	242.055237
921.514893	239.436935
920.543701	283.153839
919.572327	293.397369
918.600769	290.771210
917.629028	264.991364
916.657104	280.377106
915.685059	334.334320
914.712769	308.560577
913.740356	262.229095
912.767761	311.019501
911.794983	277.554047
910.822021	267.225952
909.848877	308.281952
908.875549	310.794800
907.902039	261.944946
906.928406	305.547211
905.954590	287.521881
904.980530	323.403625
904.006348	310.514008
903.031982	374.602081
902.057434	441.232239
901.082703	487.319580
900.107849	492.360229
899.132751	499.962921
898.157532	487.055267
897.182068	435.707489
896.206482	425.378571
895.230713	412.491364
894.254761	422.663116
893.278625	353.436096
892.302307	322.644135
891.325806	337.946991
890.349182	296.929993
889.372314	309.672638
888.395325	301.940155
887.418091	291.652100
886.440735	306.946625
885.463196	288.989105
884.485474	273.595001
883.507568	317.005951
882.529480	286.276123
881.551270	283.668701
880.572815	288.727570
879.594238	263.128784
878.615417	306.502289
877.636475	303.893066
876.657349	326.817352
875.677979	255.279816
874.698486	306.280273
873.718811	352.158508
872.739014	306.169312
871.758972	303.562866
870.778748	341.765167
869.798401	339.153198
868.817810	328.893494
867.837097	313.539276
866.856140	333.871552
865.875061	326.166473
864.893799	328.655060
863.912354	333.689972
862.930725	351.457001
861.948914	348.846954
860.966919	361.513000
859.984741	394.537720
859.002441	419.915588
858.019897	404.572510
857.037231	417.219238
856.054321	440.035553
855.071289	442.498840
854.088074	472.930176
853.104614	508.434784
852.121033	439.716278
851.137268	515.874023
850.153320	581.840942
849.169189	650.324219
848.184937	632.427063
847.200439	683.100403
846.215759	830.235229
845.230896	957.008728
844.245911	1164.952881
843.260681	1461.636230
842.275330	1923.123413
841.289795	2244.927490
840.304016	2145.608887
839.318115	1889.111328
838.332031	1455.238892
837.345764	1130.520264
836.359314	1003.597900
835.372681	909.662109
834.385864	820.827209
833.398865	805.480286
832.411743	757.216492
831.424377	686.181824
830.436829	739.220215
829.449158	647.965698
828.461243	683.277039
827.473206	594.596008
826.484924	624.844727
825.496521	548.852844
824.507935	637.261597
823.519104	586.578552
822.530151	543.497681
821.541016	535.816467
820.551697	596.366455
819.562195	603.837524
818.572510	603.727661
817.582642	664.232178
816.592590	664.111328
815.602356	706.910034
814.611938	850.661865
813.621399	1006.980164
812.630615	1226.324097
811.639648	1634.801147
810.648560	2191.949951
809.657227	2645.497070
808.665771	2869.425781
807.674072	2745.374023
806.682251	2404.600586
805.690186	1829.582886
804.697998	1400.912964
803.705566	1121.030151
802.713013	843.767822
801.720276	705.110352
800.727356	649.590454
799.734253	561.365417
798.740906	566.296875
797.747437	530.963867
796.753784	460.420319
795.759949	488.006897
794.765930	462.767548
793.771729	417.420715
792.777344	417.344635
791.782776	432.350555
790.788025	392.060425
789.793091	384.450684
788.798035	381.868317
787.802734	376.775024
786.807251	351.592560
785.811584	364.083038
784.815796	358.995697
783.819763	338.850220
782.823547	328.750244
781.827148	303.599396
780.830627	313.578522
779.833862	308.504974
778.836975	308.448700
777.839844	268.276306
776.842529	275.747742
775.845093	285.722778
774.847412	300.705933
773.849609	298.145630
772.851563	298.091217
771.853394	328.090912
770.854980	260.421570
769.856445	302.935150
768.857666	277.848450
767.858765	340.364777
766.859680	330.293701
765.860352	355.251068
764.860901	322.669128
763.861206	325.111053
762.861389	307.548889
761.861389	309.992645
760.861145	322.433411
759.860779	299.883270
758.860168	262.349915
757.859436	272.294403
756.858521	277.239960
755.857361	284.680908
754.856079	282.132111
753.854614	287.073120
752.852905	311.978943
751.851074	279.482025
750.848999	291.905548
749.846802	311.807861
748.844421	334.196899
747.841797	336.629333
746.839050	324.102295
745.836121	294.131348
744.832947	316.507202
743.829651	338.874847
742.826111	266.565979
741.822449	293.916168
740.818604	298.843109
739.814514	311.237946
738.810303	296.244293
737.805847	253.877213
736.801270	303.601471
735.796448	238.855804
734.791504	286.076965
733.786316	281.050262
732.781006	303.379242
731.775452	328.186279
730.769775	300.782349
729.763855	320.610046
728.757751	268.368561
727.751526	283.226044
726.745056	293.110107
725.738403	307.957581
724.731628	288.036560
723.724609	305.362152
722.717407	325.163513
721.710083	280.433167
720.702515	258.050476
719.694763	285.291992
718.686829	260.436249
717.678711	267.828186
716.670410	292.573456
715.661987	309.872681
714.653320	304.858826
713.644470	312.237152
712.635437	297.314178
711.626221	307.168304
710.616821	329.402374
709.607178	324.389465
708.597412	344.136353
707.587463	247.534714
706.577332	311.836517
705.567017	284.560486
704.556458	277.086334
703.545776	301.770782
702.534912	254.726944
701.523804	254.680206
700.512573	271.938660
699.501099	254.586731
698.489502	321.264069
697.477661	274.259735
696.465698	306.324005
695.453491	313.677490
694.441101	276.578156
693.428589	274.058380
692.415833	293.756378
691.402893	301.106720
690.389771	288.713226
689.376465	281.258667
688.362976	254.072998
687.349304	246.627487
686.335449	290.966980
685.321411	281.052032
684.307190	285.930237
683.292725	280.948761
682.278137	310.465271
681.263367	317.798859
680.248352	327.592865
679.233215	339.845917
678.217834	329.934662
677.202332	324.950500
676.186584	295.355255
675.170654	300.222626
674.154541	280.484314
673.138306	280.432709
672.121826	263.164764
671.105164	302.460876
670.088318	292.570923
669.071289	267.935822
668.054016	262.971191
667.036621	248.179474
666.019043	272.701508
665.001282	284.932922
663.983276	267.689423
662.965149	279.917236
661.946777	289.685577
660.928223	306.813843
659.909546	306.757355
658.890625	326.329742
657.871521	296.831787
656.852234	282.060913
655.832764	277.104492
654.813110	308.926880
653.793274	252.488953
652.773254	291.656799
651.752991	301.404877
650.732605	274.399414
649.711975	254.752518
648.691223	296.340149
647.670227	328.117889
646.649048	330.505615
645.627747	283.937683
644.606201	310.805542
643.584473	320.535583
642.562561	320.476532
641.540466	352.214600
640.518127	295.903534
639.495667	347.194672
638.473022	334.907776
637.450134	334.846008
636.427063	295.685394
635.403870	290.744385
634.380432	327.332458
633.356812	349.253052
632.333008	334.537384
631.309021	349.124237
630.284851	341.736877
629.260498	300.184875
628.235901	317.210022
627.211182	285.436340
626.186218	343.923920
625.161133	292.647186
624.135803	348.673553
623.110291	292.539185
622.084595	331.483215
621.058716	285.120422
620.032654	314.305481
619.006409	350.787872
617.979919	309.318298
616.953308	277.604523
615.926453	292.161316
614.899414	306.712738
613.872253	340.728973
612.844849	364.999329
611.817261	330.871582
610.789490	318.648315
609.761475	311.293488
608.733337	313.667511
607.705017	320.902802
606.676453	340.288544
605.647705	303.772919
604.618774	272.130219
603.589722	335.241333
602.560425	281.744995
601.530884	318.118713
600.501221	308.348145
599.471375	344.703461
598.441284	368.910126
597.411011	371.268494
596.380615	276.580261
595.349976	291.083282
594.319153	346.810089
593.288147	303.099579
592.256897	332.135712
591.225525	312.683044
590.193970	365.941132
589.162170	319.836365
588.130188	319.777191
587.098022	339.094849
586.065674	334.188782
585.033142	329.284515
584.000427	321.961273
582.967468	300.118835
581.934387	297.643433
580.901062	314.524231
579.867554	345.912598
578.833862	379.707825
577.799988	386.891754
576.765930	384.402466
575.731628	377.079742
574.697205	386.676819
573.662537	364.858643
572.627747	401.028564
571.592712	362.308075
570.557434	354.996124
569.522034	342.857880
568.486450	354.864563
567.450623	357.212402
566.414673	369.211945
565.378479	357.079987
564.342102	342.540253
563.305542	395.536530
562.268799	453.335876
561.231812	361.637085
560.194702	373.622375
559.157349	392.833252
558.119812	412.036957
557.082092	428.824432
556.044189	378.162628
555.006042	431.073608
553.967773	464.702637
552.929260	382.766876
551.890625	404.357910
550.851746	423.534424
549.812683	382.553864
548.773376	437.810577
547.733948	420.893555
546.694275	459.290009
545.654419	459.204742
544.614441	442.293121
543.574158	468.647552
542.533752	437.323151
541.493164	458.863800
540.452332	449.170685
539.411316	492.314911
538.370178	523.437622
537.328735	537.744263
536.287170	561.646362
535.245422	535.144775
534.203430	592.628723
533.161255	573.327698
532.118896	664.360962
531.076355	700.207031
530.033630	611.368530
528.990723	652.005249
527.947571	683.040283
526.904236	656.555237
525.860718	670.807678
524.817017	704.217102
523.773132	665.768555
522.729004	675.222412
521.684692	653.551208
520.640198	576.837158
519.595520	550.406128
518.550659	528.770142
517.505615	478.435974
516.460327	485.522186
515.414856	442.388641
514.369202	418.397888
513.323364	430.272034
512.277283	473.211182
511.231079	489.849670
510.184631	475.424133
509.138000	468.169769
508.091187	429.871796
507.044159	429.791779
505.996948	420.162628
504.949554	441.565979
503.901947	439.097351
502.854126	448.559418
501.806152	486.644043
500.757965	469.857941
499.709564	460.231964
