#Wave		#Intensity
3200.600830	181.023651
3200.007080	189.443359
3199.413086	155.740997
3198.819092	151.508881
3198.224854	197.773361
3197.630615	164.085007
3197.036377	180.886887
3196.442139	189.271606
3195.847656	168.216003
3195.252930	155.576279
3194.658447	155.552750
3194.063721	197.564163
3193.468750	168.114288
3192.873779	151.279984
3192.278809	155.458694
3191.683838	184.841843
3191.088623	189.014206
3190.493164	155.388168
3189.897949	184.757980
3189.302490	142.745941
3188.706787	163.713226
3188.111328	167.885605
3187.515381	163.663696
3186.919678	163.638931
3186.323730	180.395126
3185.727783	138.421829
3185.131592	159.370712
3184.535400	180.313248
3183.939209	163.515182
3183.342773	129.953934
3182.746338	167.657120
3182.149902	192.776520
3181.553223	138.275269
3180.956543	180.149582
3180.359619	121.477844
3179.762695	138.212479
3179.165771	129.816315
3178.568604	117.235695
3177.971436	146.522430
3177.374268	179.986023
3176.776855	146.478073
3176.179443	129.718079
3175.581787	167.352829
3174.984131	163.144287
3174.386475	112.928947
3173.788574	158.912964
3173.190674	158.888901
3172.592773	196.490723
3171.994629	142.120697
3171.396484	137.919785
3170.798340	162.971420
3170.199951	142.056122
3169.601563	154.567062
3169.002930	133.659378
3168.404297	121.110458
3167.805664	196.252716
3167.206787	162.823334
3166.607910	146.101364
3166.008789	187.816147
3165.409912	150.230148
3164.810547	175.241943
3164.211426	133.497437
3163.612061	154.333008
3163.012695	170.991745
3162.413086	179.305618
3161.813477	150.093582
3161.213623	162.576736
3160.614014	166.720093
3160.013916	129.188477
3159.414063	179.169754
3158.813965	145.813736
3158.213867	166.619003
3157.613525	124.945305
3157.013184	137.418991
3156.412598	137.398148
3155.812256	174.843857
3155.211426	133.194168
3154.610840	145.659027
3154.010010	120.670601
3153.409180	187.219086
3152.808105	137.273163
3152.207031	120.615692
3151.605957	137.231522
3151.004639	182.947601
3150.403320	149.661697
3149.801758	157.952255
3149.200195	145.460266
3148.598633	120.505936
3147.996826	182.808853
3147.395020	153.702301
3146.793213	157.832458
3146.191162	186.878494
3145.589111	149.480103
3144.986816	141.154221
3144.384766	145.283768
3143.782227	141.111374
3143.179932	128.640839
3142.577393	141.068527
3141.974609	153.492447
3141.371826	174.208221
3140.769043	128.562729
3140.166260	107.810440
3139.563232	120.231842
3138.960205	153.375961
3138.356934	165.786667
3137.753662	145.041306
3137.150391	124.302231
3136.546875	194.710587
3135.943359	120.122330
3135.339600	161.519287
3134.735840	128.367615
3134.132080	136.628647
3133.528076	161.445679
3132.924072	182.116180
3132.320068	136.566376
3131.715820	140.683380
3131.111572	161.347595
3130.507080	132.367645
3129.902588	144.755112
3129.298096	148.868347
3128.693604	136.441910
3128.088867	157.091049
3127.483887	140.533783
3126.878906	165.308731
3126.273926	169.415695
3125.668945	152.864105
3125.063721	156.971695
3124.458252	189.989471
3123.853027	161.053543
3123.247559	132.126404
3122.641846	132.106323
3122.036133	132.086227
3121.430420	193.972153
3120.824707	140.298935
3120.218750	156.780853
3119.612549	156.757004
3119.006592	152.608612
3118.400391	148.461472
3117.793945	119.575768
3117.187500	140.170959
3116.581055	173.126022
3115.974609	140.128311
3115.367920	164.831757
3114.760986	164.806686
3114.154297	115.347122
3113.547363	144.161972
3112.940186	152.376602
3112.333008	148.235748
3111.725830	135.862091
3111.118408	131.725006
3110.510986	152.283859
3109.903564	139.915222
3109.295898	168.695618
3108.688232	143.986542
3108.080566	160.417725
3107.472656	193.294479
3106.864746	115.136635
3106.256592	152.121674
3105.648438	184.984680
3105.040039	172.626068
3104.431885	127.395081
3103.823486	127.375687
3103.214844	172.547226
3102.606201	147.875107
3101.997559	147.852585
3101.388672	151.936447
3100.779785	184.759430
3100.170898	106.733635
3099.561768	168.285095
3098.952637	119.012787
3098.343262	139.510971
3097.733887	168.208191
3097.124512	147.672501
3096.514893	151.751389
3095.905273	159.929794
3095.295410	176.305984
3094.685791	135.283966
3094.075684	147.560028
3093.465820	151.635803
3092.855713	159.807968
3092.245361	163.880630
3091.635254	167.952042
3091.024658	155.639145
3090.414307	147.425125
3089.803711	171.969757
3089.193115	143.286285
3088.582275	167.824066
3087.971436	171.891113
3087.360596	159.588852
3086.749512	143.198929
3086.138428	151.358627
3085.527100	130.884796
3084.915771	139.043900
3084.304443	139.022690
3083.692871	192.149109
3083.081299	122.629662
3082.469482	134.872055
3081.857910	155.283524
3081.245850	134.830902
3080.634033	106.214211
3080.021973	159.296997
3079.409668	138.853119
3078.797607	155.165100
3078.185059	130.645416
3077.572754	138.789566
3076.960205	179.582626
3076.347656	134.666412
3075.734863	212.169235
3075.122070	163.182205
3074.509033	150.920502
3073.895996	146.819153
3073.282959	150.874435
3072.669922	130.466080
3072.056641	150.828369
3071.443115	179.336090
3070.829834	142.631927
3070.216064	154.833878
3069.602539	158.884186
3068.988770	146.639938
3068.375000	126.253990
3067.760986	126.234711
3067.146973	154.715698
3066.532715	154.692062
3065.918701	146.528000
3065.304199	150.575211
3064.689941	130.207321
3064.075439	158.665924
3063.460693	130.167542
3062.846191	162.684570
3062.231445	130.127777
3061.616455	142.305511
3061.001465	162.610016
3060.386475	105.680359
3059.771240	154.432312
3059.156006	146.281937
3058.540771	146.259583
3057.925293	154.361526
3057.309814	146.214874
3056.694092	129.948914
3056.078369	162.411316
3055.462646	101.491554
3054.846680	146.125504
3054.230713	129.869476
3053.614502	125.791824
3052.998291	146.058487
3052.382080	162.262405
3051.765625	150.069778
3051.149170	137.880859
3050.532715	158.133286
3049.916016	117.568306
3049.299316	149.977997
3048.682373	125.638023
3048.065430	125.618805
3047.448486	121.547997
3046.831299	162.039200
3046.214111	125.561172
3045.596680	137.691193
3044.979248	157.915726
3044.361816	133.600555
3043.744141	129.532227
3043.126465	149.748734
3042.508545	149.725815
3041.890869	125.426758
3041.272705	173.952423
3040.654785	149.657089
3040.036621	173.899185
3039.418213	141.524185
3038.799805	101.073235
3038.181396	153.607803
3037.562988	145.500900
3036.944336	141.437561
3036.325439	161.618179
3035.706543	157.553589
3035.087646	141.372604
3034.468750	153.466751
3033.849609	169.595184
3033.230469	153.419754
3032.611084	125.139061
3031.991699	145.300522
3031.372070	169.491318
3030.752441	137.186234
3030.132813	137.165222
3029.513184	129.076920
3028.893066	141.156250
3028.273193	161.296707
3027.653076	141.113007
3027.032959	169.309662
3026.412598	108.825249
3025.792480	124.928368
3025.171875	136.997208
3024.551270	132.947510
3023.930664	157.095703
3023.310059	128.879288
3022.689209	140.940109
3022.068115	148.971008
3021.447266	140.896912
3020.826172	128.800293
3020.204834	173.048859
3019.583496	140.832138
3018.962158	156.903183
3018.340576	140.788956
3017.718994	140.767380
3017.097412	136.724487
3016.475586	128.662140
3015.853760	148.742783
3015.231689	152.739426
3014.609619	140.659485
3013.987549	120.546783
3013.365234	156.686783
3012.742920	112.475822
3012.120361	136.556839
3011.497803	160.630447
3010.875244	152.575516
3010.252441	196.711945
3009.629639	156.542633
3009.006836	128.425522
3008.383789	168.532639
3007.760498	136.410248
3007.137451	136.389328
3006.514160	148.400894
3005.890625	144.367905
3005.267090	168.403381
3004.643555	148.332581
3004.019775	112.234459
3003.395996	128.248260
3002.772217	140.250000
3002.148193	172.280701
3001.524170	152.224686
3000.899902	140.185425
3000.275635	148.173279
2999.651367	164.166794
2999.026855	164.141586
2998.402344	144.102188
2997.777588	156.086731
2997.152832	120.048279
2996.528076	156.038803
2995.903076	172.016357
2995.278076	155.990875
2994.653076	119.974548
2994.027832	139.948807
2993.402344	175.908615
2992.777100	151.897736
2992.151367	135.887619
2991.525879	183.819717
2990.900146	167.809616
2990.274414	147.809555
2989.648438	183.735001
2989.022461	147.764145
2988.396240	175.692520
2987.770264	147.718735
2987.143799	147.696030
2986.517578	155.655670
2985.891113	147.650635
2985.264404	147.627930
2984.637695	167.551895
2984.010986	127.638962
2983.384033	119.643135
2982.757080	107.662262
2982.130127	143.527618
2981.502930	155.464340
2980.875732	135.512177
2980.248291	163.386612
2979.620850	175.314774
2978.993408	191.223068
2978.365723	155.344849
2977.738037	175.233902
2977.110107	155.297058
2976.482178	147.310455
2975.854248	147.287796
2975.226074	147.265137
2974.597900	147.242477
2973.969482	198.945709
2973.341309	179.023590
2972.712646	186.951416
2972.083984	178.968506
2971.455322	186.893890
2970.826660	194.816849
2970.197754	162.984924
2969.568604	222.579300
2968.939697	202.674942
2968.310547	218.537384
2967.681152	190.694168
2967.051758	214.497925
2966.422363	206.521759
2965.792725	266.054382
2965.163086	226.309921
2964.533203	182.607956
2963.903564	246.085876
2963.273438	305.575714
2962.643311	246.010101
2962.013184	317.383514
2961.383057	281.634491
2960.752686	329.183960
2960.122314	281.547729
2959.491699	269.609833
2958.861084	309.210693
2958.230225	328.981201
2957.599609	297.226379
2956.968506	273.406128
2956.337646	312.981995
2955.706299	328.778503
2955.075195	340.609589
2954.443848	320.757263
2953.812500	308.829773
2953.180908	352.328400
2952.549316	364.148499
2951.917725	356.177338
2951.285889	391.734680
2950.653809	415.412140
2950.021973	371.835449
2949.389893	435.059509
2948.757568	415.220062
2948.125244	427.017670
2947.492920	371.606232
2946.860352	359.690979
2946.227783	387.299805
2945.595215	316.114349
2944.962402	359.524628
2944.329590	300.216003
2943.696533	256.724091
2943.063477	272.480469
2942.430420	272.438446
2941.797119	264.500885
2941.163574	272.354431
2940.530273	272.312408
2939.896729	264.378510
2939.262939	335.353821
2938.629150	287.965332
2937.995361	307.641510
2937.361328	260.271881
2936.727295	264.174622
2936.093262	299.614532
2935.458984	279.859833
2934.824707	252.229095
2934.190186	279.773468
2933.555664	283.670166
2932.921143	279.687103
2932.286377	334.785004
2931.651367	299.290985
2931.016602	311.057068
2930.381592	326.756348
2929.746338	338.514526
2929.111084	385.689575
2928.475830	369.890015
2927.840332	401.308044
2927.204834	401.246063
2926.569336	409.050446
2925.933594	416.852417
2925.297607	432.515900
2924.661865	463.899933
2924.025879	495.274261
2923.389648	448.036072
2922.753418	459.755463
2922.117188	416.466248
2921.480713	514.609924
2920.844238	471.325562
2920.207764	463.398529
2919.571045	502.591919
2918.934082	498.588379
2918.297363	427.856171
2917.660156	455.262817
2917.023193	435.572083
2916.385986	451.198639
2915.748779	415.823151
2915.111328	411.836639
2914.473877	427.459564
2913.836182	435.235565
2913.198486	407.725250
2912.560791	395.902710
2911.922852	482.064423
2911.284912	431.047852
2910.646729	477.997345
2910.008545	466.171234
2909.370361	481.766327
2908.731934	548.267151
2908.093506	552.097900
2907.455078	540.267578
2906.816406	489.297119
2906.177490	645.772278
2905.538574	610.453918
2904.899658	575.146423
2904.260498	610.265076
2903.621338	668.840881
2902.982178	657.005188
2902.342773	652.993408
2901.703369	590.339783
2901.063721	637.155579
2900.424072	613.607056
2899.784424	668.220215
2899.144531	672.023865
2898.504639	601.602661
2897.864502	562.450500
2897.224365	601.416443
2896.583984	566.181091
2895.943848	577.805725
2895.303223	487.936035
2894.662842	546.403748
2894.021973	550.221436
2893.381348	518.922852
2892.740479	530.545715
2892.099609	549.965881
2891.458496	545.980835
2890.817383	592.687439
2890.176025	619.886230
2889.534668	604.197998
2888.893311	608.001892
2888.251709	615.701355
2887.610107	631.190979
2886.968262	689.527771
2886.326416	697.210999
2885.684570	712.680725
2885.042480	728.145569
2884.400391	739.712402
2883.758057	720.134705
2883.115723	825.107605
2882.473389	782.174133
2881.830811	824.851868
2881.188232	836.394653
2880.545410	801.258545
2879.902588	785.578369
2879.259766	843.782593
2878.616699	781.447021
2877.973633	796.874695
2877.330322	757.885254
2876.687012	788.855652
2876.043457	687.713318
2875.399902	691.491455
2874.756348	737.994385
2874.112549	660.208374
2873.468750	590.212402
2872.824707	625.062256
2872.180664	578.384033
2871.536621	628.749573
2870.892334	582.085205
2870.248047	585.874878
2869.603760	578.025269
2868.958984	605.086914
2868.314453	604.993042
2867.669678	601.021606
2867.024902	643.574890
2866.379883	686.114990
2865.734863	651.126709
2865.089844	701.402649
2864.444580	619.928223
2863.799316	643.075745
2863.153809	658.469299
2862.508301	569.293884
2861.862549	611.799133
2861.216797	534.273254
2860.571045	479.997101
2859.925049	522.496399
2859.279053	495.327057
2858.632813	452.689575
2857.986572	425.539520
2857.340332	367.454346
2856.693848	394.468658
2856.047363	344.139771
2855.400635	347.952484
2854.753906	374.957214
2854.107178	351.709351
2853.460205	309.147003
2852.813232	293.644043
2852.166016	278.145874
2851.518799	328.315643
2850.871338	312.816895
2850.223877	297.322937
2849.576416	359.048523
2848.928711	308.810974
2848.281006	355.077423
2847.633301	304.856049
2846.985352	343.392059
2846.337158	385.773804
2845.688965	401.142395
2845.040771	358.658142
2844.392578	404.873657
2843.743896	412.521393
2843.095459	412.457275
2842.446777	462.496979
2841.798096	535.642395
2841.149170	435.382599
2840.500244	547.032898
2839.851074	500.726868
2839.202148	569.969666
2838.552734	604.535950
2837.903320	600.591980
2837.253906	592.799866
2836.604492	542.673889
2835.954834	623.400696
2835.304932	592.523315
2834.655029	565.502441
2834.005127	503.872742
2833.354980	457.645264
2832.704834	457.574066
2832.054688	411.368134
2831.404297	361.332581
2830.753906	415.083496
2830.103271	415.018890
2829.452637	341.953094
2828.801758	353.424591
2828.150879	326.482758
2827.500000	330.272308
2826.848877	318.701569
2826.197754	303.295258
2825.546387	349.311035
2824.895020	276.334930
2824.243408	283.966675
2823.591797	257.064941
2822.940186	260.861115
2822.288330	264.656097
2821.636475	279.954865
2820.984619	287.580078
2820.332520	268.366272
2819.680176	321.989380
2819.028076	249.119629
2818.375488	249.080826
2817.723145	268.199097
2817.070557	271.988159
2816.417725	237.473785
2815.764893	229.777527
2815.112061	256.544922
2814.458984	279.475555
2813.805908	279.432007
2813.152832	210.498169
2812.499512	229.598572
2811.845947	260.171173
2811.192383	275.432434
2810.538818	260.090088
2809.885010	256.225281
2809.231201	217.948730
2808.577393	240.853149
2807.923340	236.993134
2807.269287	259.887421
2806.614990	267.489471
2805.960693	248.344345
2805.306152	267.406067
2804.651611	252.086395
2803.997070	225.314819
2803.342285	248.189484
2802.687500	236.697662
2802.032471	316.820038
2801.377441	263.339447
2800.722412	301.457550
2800.067139	236.550034
2799.411621	263.216217
2798.756348	217.405563
2798.100586	194.490433
2797.445068	236.402451
2796.789307	221.116180
2796.133301	263.010956
2795.477539	240.102966
2794.821289	243.876068
2794.165283	255.267914
2793.509033	262.846832
2792.852539	205.674103
2792.196045	228.491104
2791.539551	220.840271
2790.882813	236.033783
2790.226074	262.641754
2789.569092	254.989120
2788.912109	201.676331
2788.255127	197.840225
2787.597900	235.849579
2786.940430	228.205887
2786.283203	250.987289
2785.625488	228.134628
2784.968018	235.702301
2784.310303	269.875000
2783.652588	277.433777
2782.994629	265.990814
2782.336426	224.157242
2781.678467	246.914322
2781.020264	277.260468
2780.361816	265.824646
2779.703369	254.392410
2779.044922	254.352676
2778.386230	261.904358
2777.727539	227.707336
2777.068604	223.877213
2776.409668	273.163391
2775.750732	273.120697
2775.091553	246.528763
2774.432373	261.658875
2773.772949	284.367340
2773.113525	250.204147
2772.453857	291.859222
2771.794189	265.285065
2771.134521	257.665222
2770.474609	261.413544
2769.814697	250.008621
2769.154541	284.056274
2768.494385	291.585510
2767.833984	219.601501
2767.173584	234.709717
2766.513184	276.308533
2765.852539	295.187592
2765.191895	253.518921
2764.531006	279.962189
2763.870117	272.353027
2763.209229	264.746246
2762.548096	268.486298
2761.886719	287.348816
2761.225586	298.644806
2760.563965	275.919739
2759.902588	279.655701
2759.240967	306.061707
2758.579102	302.235870
2757.917236	268.192352
2757.255371	271.927155
2756.593262	271.884583
2755.931152	290.719940
2755.269043	279.349457
2754.606689	286.854523
2753.944092	309.452484
2753.281494	275.445038
2752.618896	286.719818
2751.956055	324.395294
2751.293213	267.772797
2750.630371	271.501709
2749.967285	290.310516
2749.303955	331.731476
2748.640625	365.601318
2747.977295	309.016602
2747.313721	293.896576
2746.650146	278.781281
2745.986572	286.271057
2745.322754	297.524628
2744.658691	256.057007
2743.994873	297.431396
2743.330566	335.028442
2742.666504	323.684601
2742.002197	308.581146
2741.337646	297.244995
2740.673096	319.770447
2740.008545	252.014847
2739.343750	282.061951
2738.678955	278.257507
2738.013916	315.810364
2737.348877	308.242737
2736.683594	326.986755
2736.018311	330.693390
2735.353027	300.583221
2734.687500	300.536072
2734.021973	308.001160
2733.356201	330.486023
2732.690430	304.149658
2732.024658	322.873688
2731.358643	315.315521
2730.692383	341.538239
2730.026367	356.494995
2729.359863	360.191040
2728.693604	341.377533
2728.027100	371.330475
2727.360352	341.270447
2726.693604	386.212524
2726.026855	337.414307
2725.359863	348.606750
2724.692871	386.030731
2724.025635	341.002777
2723.358398	378.416199
2722.691162	378.356812
2722.023682	359.569824
2721.355957	367.003265
2720.688477	366.945648
2720.020508	374.375549
2719.352783	374.316772
2718.684814	385.485748
2718.016602	381.683228
2717.348389	389.106110
2716.680176	362.859283
2716.011719	317.919556
2715.343262	373.964264
2714.674561	317.819702
2714.005859	336.462128
2713.337158	388.739624
2712.668213	332.619141
2711.999023	354.987152
2711.329834	354.931396
2710.660645	324.991364
2709.991455	373.494598
2709.321777	317.420532
2708.652344	328.571991
2707.982666	350.919464
2707.312988	358.329529
2706.643066	335.881134
2705.972900	350.754059
2705.302979	391.738159
2704.632813	376.755585
2703.962402	317.021698
2703.291992	350.533569
2702.621582	320.650513
2701.950928	339.239655
2701.280273	320.549713
2700.609375	309.319092
2699.938477	376.341187
2699.267334	301.770721
2698.596191	372.497864
2697.925049	331.470947
2697.253662	316.523590
2696.582031	361.152466
2695.910645	331.314575
2695.239014	301.486084
2694.567139	338.653290
2693.895264	342.320892
2693.223145	331.106171
2692.551270	319.894958
2691.878906	301.248993
2691.206543	327.231384
2690.534180	319.743988
2689.861816	345.715240
2689.189209	371.678314
2688.516357	338.174042
2687.843506	338.120819
2687.170654	308.347382
2686.497559	345.443268
2685.824463	345.388916
2685.151123	334.194702
2684.477783	345.280182
2683.804199	304.392639
2683.130615	304.344727
2682.457031	345.117126
2681.783203	307.959259
2681.109375	389.525665
2680.435303	322.699005
2679.761230	330.065369
2679.086914	348.553467
2678.412598	359.620880
2677.738281	341.029999
2677.063721	315.032440
2676.389160	340.922577
2675.714355	374.214722
2675.039551	377.860291
2674.364502	351.873260
2673.689453	374.037872
2673.014404	325.843048
2672.339111	388.728729
2671.663574	333.143555
2670.988037	347.895081
2670.312500	325.637695
2669.636719	318.186676
2668.960938	347.730621
2668.285156	358.771851
2667.609131	373.507660
2666.932861	332.776154
2666.256592	380.783783
2665.580322	365.938354
2664.903809	336.314545
2664.227295	354.737427
2663.550781	343.597687
2662.874023	288.133270
2662.197021	373.036804
2661.520020	361.899414
2660.843018	358.150055
2660.165771	369.168640
2659.488525	358.037079
2658.811035	365.361633
2658.133545	368.993958
2657.455811	391.071869
2656.778076	346.744873
2656.100342	405.701263
2655.422363	405.637238
2654.744385	353.954834
2654.066162	372.331207
2653.387939	379.644165
2652.709473	401.695953
2652.031006	431.110199
2651.352539	372.096222
2650.673828	372.037476
2649.994873	379.344666
2649.316162	360.872894
2648.636963	368.179504
2647.958008	375.483795
2647.278809	390.147064
2646.599365	349.604889
2645.919922	404.741730
2645.240479	349.494476
2644.560791	367.830841
2643.880859	382.483643
2643.201172	411.840393
2642.520996	397.069092
2641.841064	356.570526
2641.160889	345.488007
2640.480469	426.279541
2639.800049	389.469757
2639.119629	422.471191
2638.438965	363.635132
2637.758301	392.957672
2637.077393	414.927124
2636.396484	422.204224
2635.715332	374.417603
2635.034180	392.709351
2634.353027	370.629669
2633.671631	344.887939
2632.989990	363.175629
2632.308350	392.461121
2631.626709	377.729950
2630.944824	355.670013
2630.262939	337.283173
2629.581055	399.544067
2628.898926	417.805695
2628.216553	377.431427
2627.534180	370.044128
2626.851807	358.995941
2626.169189	303.999481
2625.486572	344.234131
2624.803711	322.210754
2624.120850	362.429749
2623.437988	395.315369
2622.754883	409.891846
2622.071533	380.553619
2621.388184	395.127777
2620.704834	373.117188
2620.021240	369.400726
2619.337646	387.626526
2618.653809	369.283813
2617.969971	383.848175
2617.286133	372.822052
2616.602051	427.581146
2615.917725	401.935730
2615.233398	372.645050
2614.549072	350.669220
2613.864502	376.179291
2613.179932	412.636230
2612.495117	397.966614
2611.810303	445.359985
2611.125488	372.291199
2610.440430	357.634888
2609.755127	401.363373
2609.069824	364.817993
2608.384521	382.998230
2607.698975	466.819122
2607.013428	390.169800
2606.327637	430.212555
2605.641846	368.174438
2604.956055	408.207977
2604.270020	448.228821
2603.583740	378.930176
2602.897461	367.941193
2602.211182	342.386047
2601.524658	415.168335
2600.838135	415.102539
2600.151367	415.036743
2599.464600	367.649719
2598.777832	425.823761
2598.090820	382.088959
2597.403564	436.603882
2596.716309	396.518982
2596.029053	400.093323
2595.341553	414.576447
2594.654053	399.966461
2593.966309	425.351440
2593.278564	414.379272
2592.590820	410.679230
2591.902832	428.782867
2591.214600	472.312988
2590.526367	443.177277
2589.838135	417.682800
2589.149658	424.879456
2588.461182	450.228149
2587.772461	421.114349
2587.083740	410.158386
2586.394775	471.788757
2585.705811	362.856842
2585.016846	431.731140
2584.327637	446.172302
2583.638184	427.967285
2582.948975	424.273102
2582.259277	431.457153
2581.569824	416.888214
2580.879883	416.822052
2580.190186	413.131897
2579.500244	387.702606
2578.810059	376.772614
2578.119873	409.312958
2577.429688	398.382965
2576.739258	463.499298
2576.048584	438.082123
2575.358154	419.912872
2574.667236	427.084900
2573.976563	416.160706
2573.285645	459.513184
2572.594482	434.116730
2571.903320	419.579498
2571.212158	426.745850
2570.520752	433.909882
2569.829102	448.302307
2569.137451	408.468658
2568.445801	462.616638
2567.753906	444.475037
2567.062012	401.047882
2566.370117	433.496399
2565.677979	393.696655
2564.985596	455.026550
2564.293213	397.182251
2563.600830	433.220856
2562.908203	472.857605
2562.215332	429.474121
2561.522705	458.273468
2560.829590	432.945465
2560.136719	440.091248
2559.443604	454.448181
2558.750244	443.557465
2558.056885	447.092499
2557.363525	428.996368
2556.669922	392.883759
2555.976074	457.690826
2555.282227	428.791718
2554.588379	461.147980
2553.894287	435.859589
2553.200195	453.798126
2552.505859	432.119934
2551.811523	446.452911
2551.117188	485.980255
2550.422607	449.910126
2549.727783	460.634644
2549.032959	467.757629
2548.338135	482.073456
2547.643066	453.220795
2546.947998	485.516418
2546.252686	438.693176
2545.557373	438.623322
2544.861816	442.148224
2544.166260	452.860229
2543.470703	420.446106
2542.774902	441.937073
2542.078857	423.904663
2541.382813	459.755554
2540.686768	434.543488
2539.990479	405.748718
2539.294189	423.634705
2538.597656	463.052338
2537.901123	466.567566
2537.204346	491.612122
2536.507568	473.594604
2535.810791	405.361115
2535.113770	469.857056
2534.416504	430.334839
2533.719238	462.536224
2533.021973	455.292572
2532.324463	444.466797
2531.626953	455.147491
2530.929199	444.325165
2530.231445	447.837036
2529.533447	469.258423
2528.835449	469.183624
2528.137451	461.946869
2527.439209	476.194885
2526.740723	494.018188
2526.042236	490.360168
2525.343750	490.281982
2524.645020	465.156921
2523.946289	418.574463
2523.247314	500.778473
2522.548340	475.663696
2521.849121	486.315369
2521.149902	514.840027
2520.450684	504.033813
2519.751221	489.656860
2519.051514	514.593750
2518.351807	468.062683
2517.652100	450.125885
2516.952148	510.775635
2516.252197	507.122864
2515.552002	489.188354
2514.851807	453.408844
2514.151367	421.210266
2513.450928	496.092255
2512.750244	467.465546
2512.049561	485.230316
2511.348877	481.585571
2510.647949	460.108307
2509.946777	445.770203
2509.245605	531.273254
2508.544434	491.973206
2507.843018	491.894653
2507.141602	424.102295
2506.439941	530.934082
2505.738281	495.221832
2505.036377	502.267090
2504.334473	480.817230
2503.632568	484.301483
2502.930420	519.828857
2502.228027	523.305725
2501.525635	476.950806
2500.823242	505.344727
2500.120605	505.264008
2499.417969	469.606995
2498.715088	494.431396
2498.012207	487.239410
2497.309082	469.381958
2496.605957	476.417664
2495.902588	561.656433
2495.199219	479.819611
2494.495605	511.725800
2493.791992	458.347748
2493.088379	515.114746
2492.384521	479.512939
2491.680664	500.744568
2490.976563	536.172607
2490.272461	539.637146
2489.568115	521.802490
2488.863770	511.071716
2488.159180	532.281250
2487.454590	557.031982
2486.749756	478.899933
2486.044922	503.651215
2485.339844	478.746765
2484.634766	489.307312
2483.929688	506.954742
2483.224365	464.338776
2482.519043	538.688599
2481.813477	499.624603
2481.107666	570.402039
2480.402100	481.753235
2479.696045	524.177002
2478.990234	517.010742
2478.284180	509.846832
2477.577881	548.705627
2476.871582	552.157288
2476.165039	509.602081
2475.458496	534.288879
2474.751953	502.363403
2474.045166	551.803833
2473.338379	488.056030
2472.631348	466.761444
2471.924072	512.648315
2471.217041	494.891510
2470.509521	487.743530
2469.802246	544.206360
2469.094482	515.853271
2468.386963	508.705292
2467.679199	490.963257
2466.971191	540.326233
2466.263184	575.549500
2465.554932	529.561951
2464.846680	434.171204
2464.138428	522.333679
2463.429932	550.479736
2462.721436	511.581879
2462.012695	529.137817
2461.303955	493.782867
2460.594971	539.547668
2459.885986	539.461182
2459.176758	525.273438
2458.467529	525.189209
2457.758057	539.201843
2457.048584	563.780823
2456.338867	588.351868
2455.629150	574.167542
2454.919434	542.378113
2454.209473	496.513306
2453.499512	538.683350
2452.789307	545.637451
2452.078857	531.471252
2451.368408	559.538940
2450.657959	559.449219
2449.947266	548.805542
2449.236572	580.374268
2448.525879	538.078918
2447.814697	530.960022
2447.103760	530.874817
2446.392578	544.850342
2445.681152	551.792114
2444.969727	576.301819
2444.258301	541.074646
2443.546631	569.091064
2442.834717	533.876343
2442.122803	572.420227
2441.410889	502.104004
2440.698730	537.129944
2439.986572	579.164795
2439.274170	540.467041
2438.561768	529.853394
2437.849121	519.243164
2437.136475	585.808655
2436.423584	554.149170
2435.710693	550.553467
2434.997803	550.465088
2434.284424	571.410156
2433.571289	571.318420
2432.857910	592.253418
2432.144287	592.158264
2431.430908	521.996521
2430.717041	514.907104
2430.003174	570.859741
2429.289307	591.777893
2428.575195	542.667664
2427.861084	570.584656
2427.146729	556.493103
2426.432373	580.899475
2425.717773	559.813110
2425.003174	615.695496
2424.288330	626.089661
2423.573486	535.063232
2422.858643	548.963562
2422.143555	601.315674
2421.428223	601.218994
2420.712891	555.688660
2419.997559	566.082336
2419.281982	607.916626
2418.566162	555.420715
2417.850586	625.184387
2417.134521	611.115540
2416.418457	576.101990
2415.702393	579.500305
2414.986084	537.522217
2414.269775	575.824036
2413.553223	596.667114
2412.836670	586.104980
2412.120117	565.081726
2411.403076	578.941223
2410.686279	599.770325
2409.969238	603.160278
2409.251953	547.288574
2408.534668	592.510132
2407.817383	554.082031
2407.099854	595.803650
2406.382080	564.354736
2405.664307	626.959900
2404.946533	595.516052
2404.228516	504.888458
2403.510498	584.880066
2402.792236	619.594543
2402.073975	577.731140
2401.355469	532.401367
2400.636963	647.128845
2399.918213	584.409363
2399.199463	587.793335
2398.480469	570.311096
2397.761475	577.173157
2397.042480	577.080200
2396.323242	622.172974
2395.603760	594.270630
2394.884277	615.023132
2394.164795	632.294800
2393.445068	600.930664
2392.725098	635.564148
2392.005127	586.847168
2391.285156	656.190796
2390.564941	642.199646
2389.844727	628.213013
2389.124268	628.111755
2388.403809	562.086731
2387.683105	582.810852
2386.962402	613.933838
2386.241455	610.366882
2385.520508	627.605713
2384.799316	665.640137
2384.078125	630.869629
2383.356689	585.713074
2382.635254	609.875061
2381.913818	630.564514
2381.192139	640.855103
2380.470215	619.970581
2379.748291	612.944702
2379.026367	574.759338
2378.304199	619.670654
2377.581787	671.490051
2376.859375	657.538818
2376.136963	564.008057
2375.414307	588.134399
2374.691650	605.334778
2373.968750	667.490051
2373.245850	612.055298
2372.522705	594.669617
2371.799316	608.400940
2371.076172	649.777954
2370.352783	639.305969
2369.629150	608.106384
2368.905518	642.554138
2368.181641	659.720642
2367.457764	569.823730
2366.733643	645.695923
2366.009521	600.710999
2365.285400	617.872986
2364.561035	659.188232
2363.836426	600.420044
2363.111816	610.673462
2362.387207	607.125244
2361.662354	651.864441
2360.937256	658.656067
2360.212158	651.653870
2359.487061	661.890625
2358.761719	672.124084
2358.036377	613.429565
2357.310791	713.255066
2356.584961	647.682495
2355.859375	654.466980
2355.133301	675.025269
2354.407471	637.038208
2353.681152	647.263977
2352.955078	654.044006
2352.228516	657.380066
2351.502197	653.832581
2350.775635	636.523560
2350.048828	660.501465
2349.322021	636.317810
2348.594971	677.482910
2347.867920	684.250244
2347.140869	618.819763
2346.413330	608.407654
2345.686035	642.677063
2344.958496	690.680176
2344.230713	690.568481
2343.502930	662.975891
2342.775146	631.957703
2342.047119	690.233398
2341.319092	710.722412
2340.590820	741.503418
2339.862305	638.413513
2339.133789	662.332642
2338.405273	607.325928
2337.676514	699.855652
2336.947754	662.011169
2336.218750	682.481384
2335.489746	675.512878
2334.760498	737.115540
2334.031250	661.582703
2333.301758	675.184937
2332.572266	702.489868
2331.842529	650.982727
2331.112793	664.580017
2330.382813	643.921753
2329.652832	630.119263
2328.922607	712.193359
2328.192383	715.501465
2327.462158	667.465027
2326.731689	667.356934
2326.000977	687.779541
2325.270264	660.298279
2324.539307	660.191345
2323.808350	690.865540
2323.077393	701.012329
2322.346191	666.708557
2321.614746	714.459045
2320.883301	693.835815
2320.151855	669.801880
2319.420166	697.027771
2318.688232	785.737244
2317.956299	707.048950
2317.224365	710.349487
2316.492188	734.136414
2315.760010	716.947266
2315.027588	679.282776
2314.295166	662.107971
2313.562500	726.835754
2312.829590	730.129700
2312.096924	736.833862
2311.363770	757.178650
2310.630615	767.286377
2309.897461	695.560181
2309.164063	746.583191
2308.430664	736.236572
2307.697021	753.156921
2306.963379	770.071716
2306.229492	664.334656
2305.495605	745.977844
2304.761719	732.233887
2304.027344	772.977295
2303.293213	708.163818
2302.558838	745.493835
2301.824219	789.618713
2301.089600	660.177429
2300.354736	670.277588
2299.619873	785.832458
2298.885010	724.481140
2298.149658	700.558167
2297.414551	751.447693
2296.679199	741.126709
2295.943604	724.010803
2295.208008	713.697571
2294.472412	723.775696
2293.736572	767.825073
2293.000488	760.906616
2292.264404	733.612183
2291.528320	760.659485
2290.791992	726.583435
2290.055420	695.913147
2289.318848	790.836182
2288.582275	722.835815
2287.845459	692.180969
2287.108398	729.385925
2286.371582	722.483582
2285.634277	793.585388
2284.896973	745.984680
2284.159668	762.814880
2283.422119	793.198547
2282.684570	755.788574
2281.946777	752.277100
2281.208740	694.557373
2280.470703	741.869934
2279.732666	765.458252
2278.994385	643.422241
2278.256104	731.350525
2277.517578	741.387634
2276.779053	812.347473
2276.040283	812.215393
2275.301514	751.177063
2274.562500	764.587402
2273.823486	771.228210
2273.084229	828.597290
2272.344971	760.832886
2271.605469	784.375671
2270.865967	797.769592
2270.126221	743.562500
2269.386475	736.682983
2268.646484	675.745972
2267.906494	790.494141
2267.166260	756.589233
2266.426025	793.613953
2265.685547	793.484802
2264.945068	715.708130
2264.204346	830.356323
2263.463623	820.096497
2262.722656	762.599304
2261.981689	762.475159
2261.240723	819.696045
2260.499268	836.426025
2259.758057	751.986450
2259.016602	755.235535
2258.274902	775.338806
2257.533203	717.914246
2256.791260	775.086304
2256.049316	774.960083
2255.307129	815.259949
2254.564941	771.339355
2253.822754	747.639465
2253.080322	777.822449
2252.337646	794.528992
2251.594971	801.131714
2250.852051	831.291138
2250.109131	794.140686
2249.366211	777.188965
2248.623047	800.609680
2247.879639	807.205933
2247.136230	827.251221
2246.392578	833.840881
2245.648926	709.321594
2244.905273	789.873901
2244.161377	793.105774
2243.417236	836.657410
2242.673096	806.285278
2241.928955	806.153809
2241.184570	792.588623
2240.439941	792.459412
2239.695313	785.615540
2238.950439	798.914490
2238.205566	812.209167
2237.460693	788.586853
2236.715576	822.009644
2235.970215	848.712280
2235.224854	845.219788
2234.479492	841.728394
2233.733887	821.473389
2232.988037	814.634521
2232.242188	827.908997
2231.496338	760.747681
2230.750244	777.377380
2230.003906	850.955261
2229.257568	777.123657
2228.511230	776.996826
2227.764648	853.887268
2227.017822	813.571472
2226.270996	806.743713
2225.523926	833.387512
2224.776855	873.408142
2224.029785	833.115356
2223.282471	836.324646
2222.534912	816.119568
2221.787354	812.642090
2221.039795	772.385437
2220.291992	859.180237
2219.543945	762.105408
2218.795898	865.583618
2218.047852	848.734802
2217.299561	828.550598
2216.551025	841.776794
2215.802490	851.658752
2215.053955	874.894653
2214.305176	804.638000
2213.556152	807.844727
2212.807129	817.725647
2212.058105	874.322876
2211.308838	830.804626
2210.559326	793.972595
2209.809814	830.533020
2209.060303	810.387695
2208.310547	906.952332
2207.560547	823.458130
2206.810547	889.989319
2206.060303	836.519836
2205.310059	839.715271
2204.559814	879.557800
2203.809326	876.082886
2203.058594	832.642212
2202.307861	849.156128
2201.557129	855.676208
2200.806152	918.785950
2200.054932	915.307251
2199.303711	895.190491
2198.552246	868.425598
2197.800781	835.015930
2197.049316	891.424927
2196.297607	851.371033
2195.545654	884.482910
2194.793701	887.662781
2194.041504	920.757813
2193.289307	860.784302
2192.537109	847.351624
2191.784668	950.207397
2191.031982	850.396057
2190.279297	856.899475
2189.526367	860.079956
2188.773438	873.220032
2188.020508	853.158936
2187.267090	826.466064
2186.513916	905.977112
2185.760498	829.513489
2185.006836	885.775269
2184.253174	815.973877
2183.499268	912.016541
2182.745361	885.340088
2181.991211	901.771729
2181.237061	888.364807
2180.482666	921.361755
2179.728271	924.524475
2178.973877	894.554504
2178.218994	910.971069
2177.464355	934.006287
2176.709229	900.737854
2175.954346	844.303345
2175.198975	893.821716
2174.443848	890.365295
2173.688232	893.528687
2172.932861	870.220459
2172.177002	903.160583
2171.421387	889.781555
2170.665283	853.256470
2169.909424	925.862976
2169.153076	915.792786
2168.396729	948.698303
2167.640381	908.882385
2166.883789	888.906372
2166.127197	872.240845
2165.370361	885.311401
2164.613525	875.257568
2163.856445	947.764954
2163.099365	934.402344
2162.342041	907.839172
2161.584473	904.389526
2160.826904	993.345154
2160.069336	933.789185
2159.311523	917.140625
2158.553711	897.198914
2157.795654	906.945618
2157.037354	976.043030
2156.279053	933.023132
2155.520752	936.166321
2154.762207	995.337341
2154.003662	1024.831421
2153.244873	981.831604
2152.485840	948.728394
2151.726807	932.104309
2150.967773	971.468628
2150.208252	1040.453125
2149.448975	987.609680
2148.689453	859.079285
2147.929688	931.339111
2147.169922	852.216248
2146.410156	931.033142
2145.650146	983.509460
2144.889893	966.903931
2144.129639	920.709534
2143.369141	943.572205
2142.608643	976.288818
2141.847900	959.695251
2141.087158	969.395813
2140.326416	942.952087
2139.565186	939.512085
2138.804199	1037.891602
2138.042725	988.462097
2137.281494	955.465759
2136.519775	935.611572
2135.758301	902.634644
2134.996338	987.812195
2134.234619	958.118713
2133.472412	1049.820435
2132.710449	951.243286
2131.947998	1010.119812
2131.185547	996.837402
2130.423096	1006.509033
2129.660400	1006.343445
2128.897705	1035.674927
2128.134766	1035.504639
2127.371826	1045.163330
2126.608643	992.578003
2125.845215	1064.471191
2125.081787	926.756226
2124.318359	1096.863037
2123.554688	1041.030029
2122.790771	1021.219788
2122.026855	985.053101
2121.262939	981.618835
2120.498779	1046.887695
2119.734375	1007.463562
2118.969971	1043.272583
2118.205322	1049.640625
2117.440674	1046.198486
2116.676025	1016.606689
2115.911133	1058.927124
2115.145996	1127.375610
2114.380859	1061.845581
2113.615479	1094.337402
2112.850098	1054.963501
2112.084473	1139.695435
2111.318848	1025.230347
2110.552979	1064.235840
2109.787109	1090.172363
2109.020996	1018.196777
2108.254883	1063.709839
2107.488525	1132.044434
2106.722168	1095.977661
2105.955566	1079.490479
2105.188965	1157.570923
2104.422119	1082.394897
2103.655029	1170.228027
2102.887939	1117.888794
2102.120850	1091.635498
2101.353516	1185.939819
2100.585938	1042.412476
2099.818359	1143.207764
2099.050781	1120.223999
2098.282959	1220.973022
2097.514893	1136.131470
2096.746826	1067.592163
2095.978760	1119.485107
2095.210449	1164.853394
2094.441895	1164.661255
2093.673340	1177.479980
2092.904541	1170.781372
2092.135742	1105.555542
2091.366699	1215.910400
2090.597656	1105.190674
2089.828369	1222.009155
2089.059082	1306.294189
2088.289551	1140.382080
2087.520020	1218.155884
2086.750244	1214.706909
2085.980469	1169.043579
2085.210449	1250.020752
2084.440186	1132.948608
2083.670166	1236.625122
2082.899658	1207.214233
2082.129150	1216.748779
2081.358643	1281.430420
2080.587891	1268.244507
2079.816895	1232.361450
2079.045898	1228.915405
2078.274902	1176.840576
2077.503662	1251.199585
2076.732178	1215.342896
2075.960693	1283.190063
2075.188965	1231.140503
2074.417236	1286.005371
2073.645264	1204.823608
2072.873291	1191.671509
2072.101074	1269.179443
2071.328857	1281.918457
2070.556396	1314.072876
2069.783936	1271.786377
2069.011230	1261.869507
2068.238525	1339.301636
2067.465576	1274.390381
2066.692627	1290.349487
2065.919434	1319.236938
2065.145996	1270.525513
2064.372559	1263.850708
2063.599121	1337.973511
2062.825439	1269.895264
2062.051514	1418.299805
2061.277588	1343.770264
2060.503662	1324.169922
2059.729248	1436.971069
2058.955078	1326.960571
2058.180664	1342.881348
2057.406006	1403.982666
2056.631348	1381.161255
2055.856445	1335.761963
2055.081543	1416.189575
2054.306396	1412.729858
2053.531250	1444.744751
2052.755859	1409.037964
2051.980225	1412.028564
2051.204590	1479.483643
2050.428955	1424.452026
2049.653076	1472.549438
2048.877197	1449.753906
2048.101074	1433.408203
2047.324707	1452.494507
2046.548340	1552.076294
2045.771851	1461.672119
2044.995239	1429.239990
2044.218506	1486.935913
2043.441528	1509.215210
2042.664551	1447.834473
2041.887329	1428.293335
2041.110107	1463.436523
2040.332642	1524.294556
2039.555176	1517.611450
2038.777466	1533.433716
2037.999634	1552.464966
2037.221802	1529.711914
2036.443726	1500.540039
2035.665527	1519.567139
2034.887207	1532.163574
2034.108765	1589.717529
2033.330200	1595.876099
2032.551514	1611.663940
2031.772705	1508.678345
2030.993774	1498.799927
2030.214600	1630.115967
2029.435425	1652.304077
2028.656128	1700.147583
2027.876587	1561.952026
2027.097046	1619.414673
2026.317261	1676.858276
2025.537476	1612.466187
2024.757446	1669.891724
2023.977295	1679.228638
2023.197021	1688.562378
2022.416626	1806.814453
2021.636230	1704.017334
2020.855591	1662.102051
2020.074707	1783.501343
2019.293823	1690.363525
2018.512817	1693.283936
2017.731689	1712.205200
2016.950439	1692.721924
2016.168945	1804.417236
2015.387451	1794.521362
2014.605713	1768.637329
2013.823975	1816.309692
2013.041992	1732.880981
2012.260010	1844.476685
2011.477783	1837.778076
2010.695435	1843.864136
2009.912964	1808.412231
2009.130371	1903.948120
2008.347656	1811.005615
2007.564819	1845.833130
2006.781860	1944.508057
2005.998779	1797.333618
2005.215576	1934.286377
2004.432129	1914.816895
2003.648682	1898.544556
2002.864990	1910.990356
2002.081299	1955.329590
2001.297363	1900.787598
2000.513428	1925.981445
1999.729248	1970.295898
1998.944946	1982.718994
1998.160522	2027.009155
1997.375977	2007.552734
1996.591309	1984.916504
1995.806519	2013.256348
1995.021606	2127.581787
1994.236572	2038.062744
1993.451416	2047.275757
1992.666016	2018.284546
1991.880615	2087.972412
1991.094971	2135.360596
1990.309326	2135.005371
1989.523438	2185.551025
1988.737549	2216.995117
1987.951416	2089.416748
1987.165161	2190.820068
1986.378784	2152.305420
1985.592285	2094.731445
1984.805664	2065.779785
1984.018921	2237.026123
1983.232056	2243.008057
1982.444946	2156.868408
1981.657837	2293.077637
1980.870605	2124.395752
1980.083130	2279.614502
1979.295654	2320.502686
1978.507935	2247.116699
1977.720093	2297.516602
1976.932129	2303.479736
1976.144165	2458.539307
1975.355957	2236.105225
1974.567627	2324.528076
1973.779053	2320.970215
1972.990479	2339.604736
1972.201782	2399.438965
1971.412964	2322.979980
1970.623901	2366.953613
1969.834839	2363.391113
1969.045532	2397.840576
1968.256226	2416.443115
1967.466675	2431.873047
1966.677002	2434.633789
1965.887207	2418.400879
1965.097290	2506.615723
1964.307251	2522.020020
1963.517090	2499.452637
1962.726807	2505.362549
1961.936401	2546.061523
1961.145874	2460.255615
1960.355103	2659.035889
1959.564331	2506.853760
1958.773315	2658.149414
1957.982178	2607.143311
1957.191040	2609.868408
1956.399658	2637.865234
1955.608154	2694.280029
1954.816528	2602.246582
1954.024780	2788.107422
1953.232910	2648.733887
1952.440918	2670.387451
1951.648682	2632.070557
1950.856445	2742.071533
1950.063965	2713.219971
1949.271484	2719.075928
1948.478760	2734.391602
1947.685913	2847.455078
1946.893066	2768.159912
1946.099976	2805.525146
1945.306763	2770.387695
1944.513428	2776.227783
1943.719971	2800.969727
1942.926270	2828.853760
1942.132568	2793.735352
1941.338745	2900.339111
1940.544678	2896.706299
1939.750610	2871.038086
1938.956299	2848.525879
1938.161865	2992.812988
1937.367310	2941.969238
1936.572632	2815.639160
1935.777832	2915.822998
1934.982910	2902.756348
1934.187866	2886.549561
1933.392700	2917.505859
1932.597290	3030.178711
1931.801880	2844.246338
1931.006226	2909.759277
1930.210571	2924.981934
1929.414673	3056.425049
1928.618652	3011.944336
1927.822510	3005.160645
1927.026245	3095.708496
1926.229858	2944.512451
1925.433350	2881.247803
1924.636719	2887.042480
1923.839844	3040.300293
1923.042969	3027.243896
1922.245850	2989.099609
1921.448730	3063.863525
1920.651367	3144.873291
1919.853882	3072.243652
1919.056274	3109.343018
1918.258545	3068.082275
1917.460693	3114.569580
1916.662720	3035.727539
1915.864624	3126.056885
1915.066284	3185.038086
1914.267944	3168.848877
1913.469360	3227.802979
1912.670776	3149.007324
1911.871948	3114.053467
1911.072998	3204.278564
1910.273926	3163.069824
1909.474731	3281.409424
1908.675415	3230.818359
1907.875977	3252.167236
1907.076294	3270.382080
1906.276611	3244.826416
1905.476807	3250.534180
1904.676758	3215.614990
1903.876587	3258.819092
1903.076294	3239.529785
1902.275879	3348.306885
1901.475342	3382.098145
1900.674683	3266.003662
1899.873901	3355.990479
1899.072998	3317.972168
1898.271851	3329.899658
1897.470703	3332.462158
1896.669312	3306.945801
1895.867920	3415.564941
1895.066284	3330.787354
1894.264526	3277.219971
1893.462646	3339.024170
1892.660645	3444.447510
1891.858521	3431.403809
1891.056152	3349.810059
1890.253784	3579.801270
1889.451172	3432.793701
1888.648560	3404.187256
1887.845703	3338.222168
1887.042725	3309.641113
1886.239624	3358.893799
1885.436401	3451.703857
1884.633057	3354.655273
1883.829590	3375.872559
1883.025879	3319.310547
1882.222168	3405.843994
1881.418213	3467.469238
1880.614258	3420.248047
1879.810059	3401.021484
1879.005737	3552.756104
1878.201294	3452.712158
1877.396729	3557.778564
1876.592041	3454.660156
1875.787231	3354.682373
1874.982178	3500.085693
1874.177124	3487.077637
1873.371826	3498.910889
1872.566406	3442.449707
1871.760986	3432.561279
1870.955322	3518.870605
1870.149536	3508.972168
1869.343506	3461.852783
1868.537476	3548.113525
1867.731323	3597.133301
1866.924927	3506.615967
1866.118530	3546.326416
1865.311890	3607.718994
1864.505127	3492.454102
1863.698242	3575.523438
1862.891235	3550.139893
1862.084106	3565.030273
1861.276855	3570.625000
1860.469482	3613.373047
1859.661865	3603.478760
1858.854126	3599.778076
1858.046387	3608.457275
1857.238403	3487.176514
1856.430298	3461.841064
1855.622070	3550.961182
1854.813721	3503.974365
1854.005249	3540.490967
1853.196533	3447.147461
1852.387817	3533.118408
1851.578857	3479.984863
1850.769775	3516.480225
1849.960693	3559.142334
1849.151367	3549.276855
1848.341919	3613.538330
1847.532227	3575.875000
1846.722534	3627.760254
1845.912720	3633.323975
1845.102661	3608.021484
1844.292603	3530.267090
1843.482300	3575.953857
1842.671875	3615.455322
1841.861328	3525.401123
1841.050659	3410.706543
1840.239868	3669.129883
1839.428833	3659.264160
1838.617798	3467.547852
1837.806519	3614.887939
1836.995117	3592.710938
1836.183716	3561.299072
1835.372070	3693.147705
1834.560303	3609.375000
1833.748291	3618.004639
1832.936279	3552.744141
1832.124146	3512.130371
1831.311768	3579.246094
1830.499390	3587.874756
1829.686768	3645.725098
1828.874023	3531.297363
1828.061157	3656.799072
1827.248169	3653.108154
1826.434937	3594.077393
1825.621704	3581.176025
1824.808228	3574.425781
1823.994751	3622.990479
1823.181030	3594.728271
1822.367188	3572.619141
1821.553223	3584.302734
1820.739136	3663.541016
1819.924927	3705.908447
1819.110474	3613.188965
1818.296021	3652.480957
1817.481323	3501.494385
1816.666626	3617.498535
1815.851685	3564.736572
1815.036621	3604.009766
1814.221436	3563.534668
1813.406006	3621.191650
1812.590576	3629.778076
1811.774902	3629.166016
1810.959229	3600.971924
1810.143311	3594.236328
1809.327271	3587.502686
1808.511108	3596.086914
1807.694824	3678.169922
1806.878418	3616.308105
1806.061768	3707.544434
1805.245117	3728.346191
1804.428223	3690.990723
1803.611206	3616.927734
1802.794067	3555.127441
1801.976807	3780.891602
1801.159424	3449.939941
1800.341919	3608.370605
1799.524170	3598.589111
1798.706421	3625.493652
1797.888428	3670.727539
1797.070313	3630.381348
1796.252075	3788.646973
1795.433716	3641.374756
1794.615234	3622.433838
1793.796509	3725.651611
1792.977783	3654.796631
1792.158813	3660.284912
1791.339844	3580.307617
1790.520630	3607.168457
1789.701294	3630.968994
1788.881714	3740.181396
1788.062134	3641.942871
1787.242432	3677.923828
1786.422485	3628.515625
1785.602417	3624.853760
1784.782349	3703.492676
1783.962036	3733.343018
1783.141479	3702.240967
1782.320923	3622.403564
1781.500244	3673.574463
1780.679321	3675.999023
1779.858398	3681.467773
1779.037231	3756.958740
1778.215942	3832.423828
1777.394531	3673.513428
1776.572998	3685.064209
1775.751221	3623.591309
1774.929443	3747.698975
1774.107422	3725.774902
1773.285278	3804.208984
1772.463013	3697.150635
1771.640625	3812.041748
1770.818115	3817.475342
1769.995483	3710.468750
1769.172607	3761.493164
1768.349731	3815.537842
1767.526611	3717.697510
1766.703369	3780.841553
1765.880005	3734.656982
1765.056519	3794.740723
1764.232910	3803.204102
1763.409058	3802.560303
1762.585083	3811.019287
1761.761108	3831.610107
1760.936890	3885.559326
1760.112549	3739.331299
1759.288086	3808.438721
1758.463379	3756.255127
1757.638672	3937.489014
1756.813721	3961.067383
1755.988647	3730.105713
1755.163574	3926.399658
1754.338257	3710.667236
1753.512695	3891.754883
1752.687134	3736.662842
1751.861328	3808.691650
1751.035522	3956.372314
1750.209473	3910.303467
1749.383301	3924.770996
1748.557007	3915.029297
1747.730591	3841.765381
1746.903931	3934.873779
1746.077271	3931.182617
1745.250366	4009.126465
1744.423340	3978.217285
1743.596313	3914.071289
1742.768921	4028.241211
1741.941528	3852.315430
1741.114014	3921.143311
1740.286255	3905.376221
1739.458374	3977.191162
1738.630493	4036.904053
1737.802368	3969.804199
1736.973999	4068.736328
1736.145630	3883.958008
1735.317139	3982.870850
1734.488403	4060.632324
1733.659546	4008.666016
1732.830566	4056.238525
1732.001465	4139.978027
1731.172241	3913.167725
1730.342896	4081.302002
1729.513306	3999.238281
1728.683594	4091.969482
1727.853882	4097.300293
1727.023926	4015.275146
1726.193726	3987.488037
1725.363525	3932.609619
1724.533203	4067.422363
1723.702637	4111.884277
1722.871948	4066.041016
1722.041138	4119.515137
1721.210205	4112.797852
1720.379150	4142.180664
1719.547974	4168.545410
1718.716553	4116.716797
1717.885010	4106.997559
1717.053467	4112.312012
1716.221558	4171.724609
1715.389648	4110.914551
1714.557617	4182.325195
1713.725342	4124.537598
1712.893066	4216.945801
1712.060547	4165.177734
1711.227905	4104.419922
1710.395142	4292.847656
1709.562256	4340.141602
1708.729126	4231.368652
1707.895874	4212.646484
1707.062622	4283.929199
1706.229126	4154.224609
1705.395508	4279.473145
1704.561646	4359.702637
1703.727783	4290.009277
1702.893677	4277.290039
1702.059570	4498.332520
1701.225220	4308.795410
1700.390747	4332.029297
1699.556030	4346.269043
1698.721313	4237.714844
1697.886353	4269.931641
1697.051392	4305.130859
1696.216187	4364.264648
1695.380859	4390.457520
1694.545410	4449.556152
1693.709717	4445.807129
1692.874023	4385.224609
1692.038086	4459.247559
1691.202026	4386.722168
1690.365845	4382.985352
1689.529541	4349.357422
1688.692993	4465.177734
1687.856445	4428.558594
1687.019653	4460.669434
1686.182739	4516.666504
1685.345703	4387.469238
1684.508545	4434.500977
1683.671143	4391.945801
1682.833740	4477.768066
1681.996094	4497.897949
1681.158325	4404.622559
1680.320435	4535.152832
1679.482422	4486.649902
1678.644287	4542.555176
1677.805908	4470.209961
1676.967407	4561.878418
1676.128784	4429.932129
1675.290039	4533.498047
1674.451172	4622.127930
1673.612183	4713.707031
1672.772949	4543.096191
1671.933594	4572.107422
1671.094116	4493.897949
1670.254517	4588.413574
1669.414795	4775.185059
1668.574829	4533.270996
1667.734863	4657.491211
1666.894653	4719.182617
1666.054321	4679.702637
1665.213867	4717.572754
1664.373169	4692.976074
1663.532471	4641.625977
1662.691528	4700.293945
1661.850464	4761.914063
1661.009277	4737.325684
1660.167969	4766.231934
1659.326538	4729.767090
1658.484863	4779.457520
1657.643066	4876.649902
1656.801147	4712.498047
1655.959106	4679.035645
1655.116943	4746.510742
1654.274658	4671.501953
1653.432129	4712.248535
1652.589478	4812.318359
1651.746704	4743.269531
1650.903809	4709.834473
1650.060791	4697.168945
1649.217529	4832.750977
1648.374146	4858.604980
1647.530640	4866.666504
1646.687012	4871.761719
1645.843262	4912.409668
1644.999390	4864.172363
1644.155273	4898.883789
1643.311035	4883.239746
1642.466675	4891.287598
1641.622192	4914.134277
1640.777588	4954.731934
1639.932739	4820.716309
1639.087769	4831.727539
1638.242798	4999.524414
1637.397461	4972.049805
1636.552124	4917.968262
1635.706665	4914.170898
1634.860962	5034.538086
1634.015137	5080.969238
1633.169189	4890.963379
1632.323120	4919.674805
1631.476929	5069.500000
1630.630493	5042.049316
1629.783936	5117.971191
1628.937256	4975.364258
1628.090454	5077.841309
1627.243530	4958.903320
1626.396484	4993.469727
1625.549194	5095.890137
1624.701782	5024.213379
1623.854248	4967.309082
1623.006592	4916.322266
1622.158691	5133.684570
1621.310791	5076.790039
1620.462646	4960.961426
1619.614380	5169.362305
1618.765991	5056.503418
1617.917358	5149.915039
1617.068726	5207.946777
1616.219849	5154.041992
1615.370850	5191.439941
1614.521729	5122.835449
1613.672363	5083.690430
1612.822998	5215.261719
1611.973389	5002.497559
1611.123657	5304.681152
1610.273804	5303.772461
1609.423828	5176.395020
1608.573608	5190.211426
1607.723389	5112.878906
1606.872925	5106.123535
1606.022339	5316.865234
1605.171509	5022.092285
1604.320679	5279.785156
1603.469604	5299.443848
1602.618408	5207.484863
1601.767090	5365.168945
1600.915649	5402.418457
1600.064087	5292.875000
1599.212280	5268.486816
1598.360352	5114.984863
1597.508301	5266.680176
1596.656128	5283.378418
1595.803833	5455.523926
1594.951294	5434.060059
1594.098633	5186.833984
1593.245850	5420.469727
1592.392944	5322.814941
1591.539795	5272.082031
1590.686646	5189.135742
1589.833252	5434.328125
1588.979736	5325.020996
1588.126099	5151.322266
1587.272217	5331.977539
1586.418335	5313.497070
1585.564209	5438.447754
1584.709961	5449.220703
1583.855591	5465.841309
1583.000977	5526.339355
1582.146362	5443.489746
1581.291504	5530.291016
1580.436523	5552.733398
1579.581421	5452.379883
1578.726074	5568.364746
1577.870605	5473.887695
1577.015137	5554.764160
1576.159424	5501.222656
1575.303467	5649.249512
1574.447510	5575.266113
1573.591309	5536.348145
1572.734985	5570.431152
1571.878540	5537.364746
1571.021973	5536.413574
1570.165161	5728.050781
1569.308350	5598.695801
1568.451294	5606.484863
1567.594116	5582.188965
1566.736694	5549.153320
1565.879272	5536.537598
1565.021606	5637.610840
1564.163818	5648.299805
1563.305908	5580.306641
1562.447876	5649.270996
1561.589600	5651.212402
1560.731201	5886.152832
1559.872681	5631.796875
1559.014038	5575.509766
1558.155273	5609.482910
1557.296265	5861.730957
1556.437134	5790.882813
1555.577881	5836.437988
1554.718506	5704.529297
1553.859009	5770.443359
1552.999268	5783.990234
1552.139404	5881.849609
1551.279419	5840.139648
1550.419312	5647.306152
1549.558960	5809.069336
1548.698608	5709.282715
1547.838013	5862.264648
1546.977173	5916.440430
1546.116333	5900.901855
1545.255249	5833.105957
1544.394165	5837.907227
1543.532837	5877.537109
1542.671265	5882.328613
1541.809692	5834.892090
1540.947876	5735.253418
1540.085938	5969.205078
1539.223877	5823.177246
1538.361694	5798.978516
1537.499268	5829.868164
1536.636841	6020.164063
1535.774170	6039.413086
1534.911377	5835.547852
1534.048340	5973.597656
1533.185303	5792.985840
1532.322021	5896.243164
1531.458618	5927.077148
1530.594971	5981.060547
1529.731323	6124.754395
1528.867432	5961.634766
1528.003418	5998.222168
1527.139282	5910.398438
1526.275024	6027.971680
1525.410522	5963.308105
1524.545898	6167.576660
1523.681152	6247.460938
1522.816284	6061.391113
1521.951172	6025.665527
1521.086060	5877.261230
1520.220703	6139.147461
1519.355225	6045.655762
1518.489502	6035.948730
1517.623779	6023.356934
1516.757813	6129.137207
1515.891724	6142.512207
1515.025513	6199.172852
1514.159058	5921.092773
1513.292480	6078.747070
1512.425781	6123.850098
1511.558960	6235.270020
1510.692017	6064.065430
1509.824829	6426.280762
1508.957520	6206.098633
1508.090088	6207.908691
1507.222534	6097.338379
1506.354736	6272.029297
1505.486938	6345.839844
1504.618896	6379.304688
1503.750610	6317.731934
1502.882324	6408.770508
1502.013794	6329.942383
1501.145142	6348.995117
1500.276367	6201.142578
1499.407471	6269.120605
1498.538330	6380.223633
1497.669067	6312.971680
1496.799683	6173.853027
1495.930176	6471.793945
1495.060547	6502.295410
1494.190674	6363.215820
1493.320679	6537.404297
1492.450562	6424.223633
1491.580200	6517.908691
1490.709717	6401.897949
1489.839233	6429.506836
1488.968384	6474.333008
1488.097534	6766.014648
1487.226440	6483.574219
1486.355347	6519.757813
1485.483887	6693.645996
1484.612427	6629.378418
1483.740845	6576.605469
1482.869019	6644.290527
1481.997070	6746.357910
1481.124878	6647.725098
1480.252686	6649.440918
1479.380249	6708.468750
1478.507690	6741.689453
1477.635010	6958.235840
1476.762207	6868.242676
1475.889160	6910.008789
1475.015991	6880.181152
1474.142700	6984.908691
1473.269165	7026.631836
1472.395630	6985.352051
1471.521851	7032.782227
1470.647949	6845.620117
1469.773804	7018.906250
1468.899658	7100.621582
1468.025269	7133.702148
1467.150757	7261.108398
1466.276001	7259.850586
1465.401245	7252.877441
1464.526245	7485.912598
1463.651123	7701.726563
1462.775879	7788.935547
1461.900391	7864.690430
1461.024780	7831.919922
1460.149048	7844.836426
1459.273193	7963.354980
1458.397217	8044.733887
1457.520996	8011.953613
1456.644653	8144.644531
1455.768188	8080.482422
1454.891479	8007.787109
1454.014648	7949.373047
1453.137695	7811.156738
1452.260620	7943.766113
1451.383423	8025.032715
1450.505981	7912.518066
1449.628418	7760.158691
1448.750732	7764.509277
1447.872803	8025.162109
1446.994873	7761.815430
1446.116699	7820.252441
1445.238403	7779.046875
1444.359863	7789.080566
1443.481201	7952.759277
1442.602417	7809.136230
1441.723511	7952.843750
1440.844482	7925.868652
1439.965210	7930.179688
1439.085815	7871.945313
1438.206299	8063.861328
1437.326538	8122.141113
1436.446777	8009.916016
1435.566772	8071.025391
1434.686646	8205.963867
1433.806274	8076.742188
1432.925781	8328.048828
1432.045166	7960.379883
1431.164429	8069.696289
1430.283569	8054.104980
1429.402466	8115.129883
1428.521240	8031.447754
1427.639893	8075.436035
1426.758301	8136.424805
1425.876709	8049.946289
1424.994873	8025.867188
1424.112793	8101.003906
1423.230713	8215.791016
1422.348389	8135.023926
1421.465942	8221.433594
1420.583374	8239.832031
1419.700562	8201.583008
1418.817627	8336.071289
1417.934570	8011.882324
1417.051392	8341.665039
1416.167969	8255.312500
1415.284546	8443.458008
1414.400757	8212.833984
1413.516968	8372.635742
1412.633057	8167.555664
1411.748901	8395.170898
1410.864624	8467.215820
1409.980103	8426.169922
1409.095459	8373.833984
1408.210815	8601.253906
1407.325806	8486.750977
1406.440796	8465.500977
1405.555542	8551.577148
1404.670166	8654.564453
1403.784668	8387.679688
1402.899048	8434.205078
1402.013184	8607.712891
1401.127197	8445.376953
1400.241089	8573.682617
1399.354736	8524.237305
1398.468262	8418.404297
1397.581665	8521.269531
1396.694946	8638.194336
1395.807983	8521.120117
1394.920898	8716.915039
1394.033691	8735.121094
1393.146362	8705.426758
1392.258789	8551.802734
1391.371094	8561.578125
1390.483276	8771.272461
1389.595337	8710.623047
1388.707153	8683.771484
1387.818848	8507.768555
1386.930420	8753.905273
1386.041748	8608.897461
1385.152954	8621.460938
1384.264038	8611.521484
1383.375000	8663.446289
1382.485718	8695.672852
1381.596313	8671.668945
1380.706787	8571.791992
1379.817139	8559.057617
1378.927246	8709.275391
1378.037231	8615.060547
1377.147095	8762.407227
1376.256714	8631.711914
1375.366333	8627.398438
1374.475586	8600.630859
1373.584839	8621.582031
1372.693970	8544.315430
1371.802856	8612.962891
1370.911499	8544.138672
1370.020142	8629.588867
1369.128540	8358.893555
1368.236816	8449.952148
1367.344971	8479.311523
1366.453003	8351.714844
1365.560791	8437.122070
1364.668457	8399.227539
1363.775879	8288.517578
1362.883301	8348.684570
1361.990479	8322.025391
1361.097534	8326.171875
1360.204346	8377.901367
1359.311035	8312.068359
1358.417603	8548.462891
1357.524048	8222.436523
1356.630249	8288.133789
1355.736450	8314.652344
1354.842285	7972.059570
1353.948120	8102.066895
1353.053711	7902.187988
1352.159180	7909.191406
1351.264526	7846.334961
1350.369751	7758.355957
1349.474731	7754.207031
1348.579590	7702.580566
1347.684204	7600.710449
1346.788818	7521.210449
1345.893188	7424.989746
1344.997314	7331.592773
1344.101440	7229.857422
1343.205322	7195.114746
1342.309082	7227.329102
1341.412720	7198.176270
1340.516113	7152.302246
1339.619385	7042.321777
1338.722534	7082.901855
1337.825439	7081.662598
1336.928223	6924.381348
1336.030884	6928.741699
1335.133423	6960.955566
1334.235718	7034.932617
1333.337891	6819.293457
1332.439941	7115.991699
1331.541870	7056.291504
1330.643555	7004.961426
1329.745117	7151.211914
1328.846436	7236.204590
1327.947754	6917.835449
1327.048828	6733.070801
1326.149780	6717.988770
1325.250488	6452.699219
1324.351074	6276.451660
1323.451538	6155.848145
1322.551880	5904.688965
1321.651978	5886.985840
1320.751953	5880.398926
1319.851807	5793.275391
1318.951416	5675.637695
1318.050903	5635.775879
1317.150269	5393.297363
1316.249512	5511.688965
1315.348511	5491.299805
1314.447388	5371.042480
1313.546021	5264.696289
1312.644653	5077.960449
1311.743042	5085.389160
1310.841309	5278.562500
1309.939331	5150.131348
1309.037231	4980.173828
1308.135010	5023.635254
1307.232666	4942.412109
1306.330078	4944.315430
1305.427368	4852.057129
1304.524536	4873.357422
1303.621460	4745.153320
1302.718262	4772.000977
1301.814941	4771.163574
1300.911499	4667.947266
1300.007813	4584.132813
1299.104004	4693.969727
1298.199951	4554.868652
1297.295898	4556.834473
1296.391602	4542.211914
1295.487061	4499.953125
1294.582520	4347.164551
1293.677734	4385.085449
1292.772827	4387.078125
1291.867676	4400.118652
1290.962402	4264.024414
1290.057007	4194.245605
1289.151489	4171.423828
1288.245728	4190.012695
1287.339844	4183.757324
1286.433838	4094.726807
1285.527588	4113.318848
1284.621216	4176.036621
1283.714722	4012.593262
1282.808105	4053.248047
1281.901245	4027.724609
1280.994263	4010.478760
1280.087036	4020.797607
1279.179810	3953.962158
1278.272217	3964.286865
1277.364624	3982.870850
1276.456787	3946.369873
1275.548828	3964.950439
1274.640747	3859.641113
1273.732544	3936.031738
1272.824097	3916.075928
1271.915405	3962.162842
1271.006714	3755.139893
1270.097778	3878.253662
1269.188721	3795.070068
1268.279541	3725.663574
1267.370117	3779.989990
1266.460571	3793.068115
1265.550781	3748.430908
1264.640991	3788.986084
1263.730957	3802.055176
1262.820679	3636.586182
1261.910400	3644.185059
1260.999878	3668.254883
1260.089233	3692.316406
1259.178345	3727.348145
1258.267334	3718.459473
1257.356201	3794.630371
1256.444824	3859.801270
1255.533447	3730.210205
1254.621704	3608.891357
1253.709961	3698.736572
1252.797974	3607.620605
1251.885864	3661.802734
1250.973633	3666.638672
1250.061157	3518.038086
1249.148560	3651.650146
1248.235840	3519.537842
1247.322876	3633.933105
1246.409790	3567.581543
1245.496582	3561.478027
1244.583130	3541.691650
1243.669556	3584.852051
1242.755859	3499.402832
1241.841919	3520.670654
1240.927856	3410.646973
1240.013672	3445.595703
1239.099365	3491.468262
1238.184814	3449.848389
1237.270142	3391.843994
1236.355225	3383.048096
1235.440186	3478.078125
1234.525024	3365.464844
1233.609741	3299.322021
1232.694214	3410.700684
1231.778564	3410.099365
1230.862671	3420.416992
1229.946777	3291.536621
1229.030640	3370.091797
1228.114258	3271.277100
1227.197876	3344.352051
1226.281128	3251.031250
1225.364380	3452.247803
1224.447388	3307.138672
1223.530273	3336.540283
1222.613037	3417.715088
1221.695557	3507.035889
1220.777954	3332.049561
1219.860229	3486.729980
1218.942261	3450.708496
1218.024170	3474.606689
1217.105957	3454.935303
1216.187500	3394.439453
1215.268921	3369.345703
1214.350220	3235.415527
1213.431274	3330.066650
1212.512207	3152.667969
1211.593018	3086.838867
1210.673706	3110.766357
1209.754150	3150.997803
1208.834351	3142.286377
1207.914551	3035.738525
1206.994507	3122.155029
1206.074219	3015.648193
1205.153931	3036.845703
1204.233398	3033.593262
1203.312744	2959.742432
1202.391846	3005.372314
1201.470825	2945.124268
1200.549683	2939.175781
1199.628296	2889.814209
1198.706787	3041.229004
1197.785156	2975.591797
1196.863281	2763.529541
1195.941284	2939.289795
1195.019165	2870.993896
1194.096802	2908.434082
1193.174438	2842.877686
1192.251709	2801.730713
1191.328979	2809.362305
1190.406006	2816.991455
1189.482788	2816.492920
1188.559570	2794.333008
1187.636108	2642.235107
1186.712402	2741.916504
1185.788696	2711.662354
1184.864746	2708.476807
1183.940552	2645.775635
1183.016357	2750.794922
1182.091919	2709.742920
1181.167236	2611.924561
1180.242554	2643.902588
1179.317505	2702.898193
1178.392456	2675.395508
1177.467163	2637.094482
1176.541748	2650.134766
1175.616211	2719.891113
1174.690430	2622.191162
1173.764526	2786.428223
1172.838501	2650.957275
1171.912231	2763.848389
1170.985840	2755.262939
1170.059204	2824.925781
1169.132446	2894.563721
1168.205566	2856.290771
1167.278564	2839.604492
1166.351318	2806.746582
1165.423828	2784.683350
1164.496338	2881.218750
1163.568604	2732.495605
1162.640747	2694.291016
1161.712646	2602.223877
1160.784424	2655.629150
1159.856079	2671.315430
1158.927490	2703.150146
1157.998779	2673.059814
1157.069946	2817.922852
1156.140869	2699.021240
1155.211670	2768.494629
1154.282349	2824.493408
1153.352783	3044.532715
1152.423096	2966.010498
1151.493164	3089.157959
1150.563232	2973.022217
1149.632935	2838.114258
1148.702637	2859.107666
1147.772095	2713.520752
1146.841431	2675.432617
1145.910522	2586.329590
1144.979492	2454.294678
1144.048340	2381.370605
1143.116943	2375.579346
1142.185425	2329.532959
1141.253784	2310.336182
1140.321899	2264.317627
1139.389893	2156.620850
1138.457764	2234.012695
1137.525391	2220.208740
1136.592896	2211.771484
1135.660278	2080.036133
1134.727417	2087.706543
1133.794434	2194.515869
1132.861206	2143.224365
1131.927856	1966.058960
1130.994385	2027.305420
1130.060669	2016.234619
1129.126831	2039.970459
1128.192871	2079.757568
1127.258667	1991.074097
1126.324341	1931.854858
1125.389893	2043.870728
1124.455200	1992.687134
1123.520386	2011.052734
1122.585327	2016.042725
1121.650146	2023.704102
1120.714844	1953.850220
1119.779297	2004.277832
1118.843628	2041.327759
1117.907837	1947.464966
1116.971802	1941.776611
1116.035645	2018.874756
1115.099365	1917.055786
1114.162842	2031.504028
1113.226196	1870.999878
1112.289307	1910.695435
1111.352417	1875.670166
1110.415161	1875.336304
1109.477905	1917.676880
1108.540405	1912.002197
1107.602661	1826.343506
1106.664917	1879.332764
1105.726807	1881.663452
1104.788696	1931.958984
1103.850342	1926.286377
1102.911865	1923.279541
1101.973145	1821.729736
1101.034302	1877.325684
1100.095337	1823.743286
1099.156128	1844.713745
1098.216797	1793.817627
1097.277344	1836.073608
1096.337646	1761.252441
1095.397827	1776.898804
1094.457764	1805.837158
1093.517700	1685.856812
1092.577271	1725.435425
1091.636841	1775.632446
1090.696167	1754.054565
1089.755249	1703.255371
1088.814209	1726.862183
1087.873047	1737.179199
1086.931763	1742.181030
1085.990234	1675.488159
1085.048584	1675.189331
1084.106689	1693.470947
1083.164673	1671.937988
1082.222412	1647.759155
1081.280151	1735.011719
1080.337524	1692.263062
1079.394897	1644.225586
1078.452026	1612.114136
1077.509033	1601.222412
1076.565796	1537.323242
1075.622437	1664.253052
1074.678955	1568.569946
1073.735229	1600.079712
1072.791382	1581.253418
1071.847290	1578.322998
1070.903076	1575.393555
1069.958740	1596.290283
1069.014160	1529.835815
1068.069458	1513.684937
1067.124512	1584.851929
1066.179565	1542.243286
1065.234253	1626.604126
1064.288940	1546.981201
1063.343384	1462.098877
1062.397583	1501.489624
1061.451660	1540.866333
1060.505615	1519.450928
1059.559448	1527.105591
1058.613037	1563.814819
1057.666382	1484.302124
1056.719727	1476.114990
1055.772827	1552.415894
1054.825684	1525.741577
1053.878418	1615.202271
1052.931030	1533.112427
1051.983398	1514.370361
1051.035645	1537.839844
1050.087769	1442.620972
1049.139648	1534.653076
1048.191406	1592.379272
1047.242920	1505.109131
1046.294312	1620.799683
1045.345581	1696.924072
1044.396606	1657.102905
1043.447510	1664.708618
1042.498291	1701.280640
1041.548828	1650.947510
1040.599121	1666.447876
1039.649414	1671.413940
1038.699341	1655.324829
1037.749268	1686.603027
1036.798950	1733.654419
1035.848511	1646.545410
1034.897827	1654.140015
1033.947021	1595.998779
1032.996094	1577.311157
1032.044922	1558.630005
1031.093506	1511.048584
1030.142090	1481.876221
1029.190430	1510.507446
1028.238525	1536.501953
1027.286499	1454.819824
1026.334351	1472.938232
1025.381958	1375.546143
1024.429443	1417.293579
1023.476807	1435.408691
1022.523926	1377.430542
1021.570923	1424.401489
1020.617737	1403.164429
1019.664368	1418.646484
1018.710815	1421.014038
1017.757080	1397.167480
1016.803223	1396.916992
1015.849121	1425.490845
1014.894897	1336.158081
1013.940491	1435.457520
1012.985962	1333.060059
1012.031189	1338.057983
1011.076294	1371.852539
1010.121216	1431.810669
1009.165955	1358.275024
1008.210510	1368.497925
1007.254944	1370.868652
1006.299133	1394.163940
1005.343201	1433.142212
1004.387085	1464.262085
1003.430786	1471.842285
1002.474365	1529.082153
1001.517700	1539.261108
1000.560913	1651.338623
999.603943	1692.840698
998.646790	1791.790649
997.689514	1804.526367
996.731995	1665.819336
995.774353	1649.857056
994.816528	1683.491577
993.858521	1550.099976
992.900330	1471.547852
991.942017	1473.892212
990.983459	1411.030884
990.024780	1376.877075
989.065918	1454.847412
988.106873	1329.460327
987.147705	1321.402588
986.188293	1336.800293
985.228760	1422.537720
984.269043	1344.134644
983.309143	1380.355347
982.349060	1262.928345
981.388794	1356.427734
980.428406	1353.580811
979.467834	1303.888672
978.507019	1293.245850
977.546082	1425.696899
976.585022	1524.284912
975.623718	1609.833984
974.662292	1645.947876
973.700623	1575.458130
972.738831	1655.753052
971.776855	1811.385132
970.814758	1631.772217
969.852417	1498.986084
968.889954	1451.962646
967.927246	1397.165283
966.964417	1308.633057
966.001404	1347.338013
965.038208	1318.544434
964.074890	1292.356201
963.111328	1328.448364
962.147644	1320.426880
961.183777	1260.534180
960.219727	1257.714111
959.255493	1283.415283
958.291077	1241.707520
957.326538	1293.320435
956.361755	1241.260498
955.396851	1269.536743
954.431763	1243.403809
953.466492	1214.690430
952.501038	1235.187500
951.535461	1175.417480
950.569641	1302.045166
949.603699	1213.815430
948.637573	1242.060547
947.671265	1296.167236
946.704773	1342.494141
945.738098	1251.734253
944.771240	1318.738403
943.804260	1377.962524
942.837097	1333.772095
941.869751	1330.947266
940.902222	1335.875122
939.934509	1371.802368
938.966614	1410.299561
937.998535	1322.240234
937.030334	1355.568237
936.061951	1288.203003
935.093323	1218.280884
934.124573	1230.964355
933.155640	1272.025146
932.186584	1227.940552
931.217285	1207.085205
930.247864	1186.237183
929.278198	1173.131592
928.308411	1175.497803
927.338440	1211.369019
926.368286	1131.265991
925.397949	1205.778931
924.427429	1213.289185
923.456787	1220.796753
922.485901	1277.227661
921.514893	1246.101929
920.543701	1173.801392
919.572327	1183.884155
918.600769	1193.963135
917.629028	1209.183960
916.657104	1201.248779
915.685059	1206.175415
914.712769	1149.388062
913.740356	1231.448486
912.767761	1136.120850
911.794983	1202.734131
910.822021	1192.238892
909.848877	1130.367065
908.875549	1212.356567
907.902039	1201.865112
906.928406	1178.539307
905.954590	1216.833618
904.980530	1203.780273
904.006348	1265.152222
903.031982	1208.476563
902.057434	1221.084595
901.082703	1315.762939
900.107849	1320.653687
899.132751	1274.264526
898.157532	1307.358887
897.182068	1255.862793
896.206482	1209.510254
895.230713	1260.532593
894.254761	1206.511108
893.278625	1242.148682
892.302307	1198.392578
891.325806	1187.934937
890.349182	1213.317383
889.372314	1154.234375
888.395325	1189.848877
887.418091	1174.283447
886.440735	1110.123657
885.463196	1120.152466
884.485474	1130.177490
883.507568	1114.633911
882.529480	1147.660522
881.551270	1139.786011
880.572815	1119.138672
879.594238	1200.684814
878.615417	1157.046143
877.636475	1167.051514
876.657349	1148.967285
875.677979	1187.051147
874.698486	1100.056641
873.718811	1201.932251
872.739014	1176.200439
871.758972	1191.292969
870.778748	1145.168335
869.798401	1295.412231
868.817810	1149.852417
867.837097	1185.331421
866.856140	1210.602905
865.875061	1151.775391
864.893799	1159.209717
863.912354	1146.263306
862.930725	1265.754517
861.948914	1212.052124
860.966919	1138.002197
859.984741	1196.340210
859.002441	1252.111938
858.019897	1193.361694
857.037231	1200.777344
856.054321	1167.493164
855.071289	1241.031250
854.088074	1322.170288
853.104614	1197.363892
852.121033	1286.106567
851.137268	1273.166870
850.153320	1341.537109
849.169189	1272.704834
848.184937	1396.927246
847.200439	1378.897827
846.215759	1477.666382
845.230896	1629.707153
844.245911	1758.850464
843.260681	1999.599609
842.275330	2379.801758
841.289795	2605.130615
840.304016	2589.440430
839.318115	2330.326660
838.332031	1924.261841
837.345764	1650.153931
836.359314	1548.480591
835.372681	1520.326660
834.385864	1459.248413
833.398865	1499.510498
832.411743	1473.912964
831.424377	1405.280151
830.436829	1354.393188
829.449158	1341.491455
828.461243	1384.268677
827.473206	1361.245239
826.484924	1305.343628
825.496521	1224.169434
824.507935	1350.387573
823.519104	1302.103271
822.530151	1261.420166
821.541016	1256.135864
820.551697	1228.110596
819.562195	1397.163818
818.572510	1298.393433
817.582642	1353.720337
816.592590	1361.049438
815.602356	1421.394043
814.611938	1537.249512
813.621399	1471.352051
812.630615	1587.156006
811.639648	1904.745117
810.648560	2144.024658
809.657227	2357.997803
808.665771	2481.120361
807.674072	2281.509277
806.682251	2160.107666
805.690186	1895.105103
804.697998	1763.739380
803.705566	1624.863892
802.713013	1498.632446
801.720276	1400.147705
800.727356	1369.679077
799.734253	1276.288208
798.740906	1286.123169
797.747437	1336.217163
796.753784	1308.298218
795.759949	1333.214722
794.765930	1255.005493
793.771729	1237.174683
792.777344	1289.745850
791.782776	1276.942383
790.788025	1188.747314
789.793091	1223.709106
788.798035	1145.604980
787.802734	1245.869385
786.807251	1147.698608
785.811584	1235.371338
784.815796	1132.217163
783.819763	1154.600708
782.823547	1209.600098
781.827148	1139.125000
780.830627	1158.986206
779.833862	1188.872803
778.836975	1178.625000
777.839844	1123.250366
776.842529	1205.769775
775.845093	1112.815063
774.847412	1215.353149
773.849609	1152.495728
772.851563	1124.730713
771.853394	1172.111084
770.854980	1146.856567
769.856445	1174.186646
768.857666	1191.494263
767.858765	1163.747192
766.859680	1088.467896
765.860352	1195.845093
764.860901	1263.162109
763.861206	1195.408325
762.861389	1250.198730
761.861389	1149.972656
760.861145	1087.275513
759.860779	1137.057373
758.860168	1126.855347
757.859436	1111.660645
756.858521	1206.368530
755.857361	1138.723633
754.856079	1121.038208
753.854614	1138.307373
752.852905	1173.040894
751.851074	1167.835693
750.848999	1145.167847
749.846802	1172.397583
748.844421	1202.111206
747.841797	1186.930054
746.839050	1144.330444
745.836121	1139.135864
744.832947	1171.325806
743.829651	1173.603271
742.826111	1148.475830
741.822449	1125.848389
740.818604	1247.670044
739.814514	1192.663818
738.810303	1145.145996
737.805847	1147.425415
736.801270	1137.261353
735.796448	1144.517334
734.791504	1114.456299
733.786316	1149.072754
732.781006	1136.428711
731.775452	1183.459595
730.769775	1155.899048
729.763855	1133.319214
728.757751	1200.203857
727.751526	1108.059814
726.745056	1142.632568
725.738403	1132.489136
724.731628	1134.764771
723.724609	1149.452637
722.717407	1146.759888
721.710083	1109.324097
720.702515	1119.045776
719.694763	1133.725464
718.686829	1217.849487
717.678711	1172.988281
716.670410	1098.390137
715.661987	1070.920044
714.653320	1164.907715
713.644470	1142.391479
712.635437	1162.002930
711.626221	1124.632446
710.616821	1126.902832
709.607178	1183.650024
708.597412	1143.820190
707.587463	1094.103394
706.577332	1088.952881
705.567017	1165.460693
704.556458	1118.241211
703.545776	1115.562500
702.534912	1145.034790
701.523804	1117.625732
700.512573	1107.531982
699.501099	1129.574097
698.489502	1218.332275
697.477661	1143.984375
696.465698	1200.592529
695.453491	1190.492432
694.441101	1158.171143
693.428589	1170.303345
692.415833	1091.095215
691.402893	1113.107544
690.389771	1201.738037
689.376465	1127.501831
688.362976	1144.561768
687.349304	1139.419067
686.335449	1094.824951
685.321411	1141.465698
684.307190	1101.817383
683.292725	1150.904175
682.278137	1172.868774
681.263367	1192.361694
680.248352	1133.027954
679.233215	1216.549927
678.217834	1194.166504
677.202332	1238.258423
676.186584	1176.498413
675.170654	1156.595337
674.154541	1144.080688
673.138306	1178.309448
672.121826	1187.930664
671.105164	1116.400269
670.088318	1150.614990
669.071289	1147.945190
668.054016	1125.614990
667.036621	1147.522949
666.019043	1078.522217
665.001282	1117.624878
663.983276	1122.330933
662.965149	1220.340942
661.946777	1183.291870
660.928223	1170.801514
659.909546	1131.321167
658.890625	1295.504517
657.871521	1189.780396
656.852234	1177.297729
655.832764	1155.010742
654.813110	1149.894409
653.793274	1164.390747
652.773254	1147.020020
651.752991	1124.754761
650.732605	1146.597534
649.711975	1134.138672
648.691223	1209.851563
647.670227	1099.439819
646.649048	1211.854004
645.627747	1211.630615
644.606201	1191.829102
643.584473	1123.098022
642.562561	1162.033203
641.540466	1183.832397
640.518127	1181.168701
639.495667	1188.286011
638.473022	1197.845337
637.450134	1168.294800
636.427063	1185.185181
635.403870	1160.534302
634.380432	1113.907471
633.356812	1211.395264
632.333008	1167.218018
631.309021	1154.795532
630.284851	1125.290771
629.260498	1132.404785
628.235901	1141.956177
627.211182	1195.417236
626.186218	1195.196655
625.161133	1224.240723
624.135803	1180.125854
623.110291	1182.345825
622.084595	1138.254883
621.058716	1150.229370
620.032654	1132.961670
619.006409	1196.089233
617.979919	1139.850098
616.953308	1120.158569
615.926453	1127.255737
614.899414	1139.218628
613.872253	1151.177124
612.844849	1167.997803
611.817261	1165.349243
610.789490	1148.106934
609.761475	1206.262329
608.733337	1213.333984
607.705017	1166.919312
606.676453	1169.134277
605.647705	1161.627686
604.618774	1090.950684
603.589722	1105.324707
602.560425	1156.125977
601.530884	1151.055420
600.501221	1172.694092
599.471375	1213.744629
598.441284	1218.374268
597.411011	1218.148926
596.380615	1130.582520
595.349976	1135.224854
594.319153	1195.645996
593.288147	1149.353638
592.256897	1173.384521
591.225525	1180.439087
590.193970	1194.761475
589.162170	1226.039429
588.130188	1213.699707
587.098022	1220.741455
586.065674	1169.660767
585.033142	1147.653320
584.000427	1159.544678
582.967468	1156.909790
581.934387	1144.596191
580.901062	1195.192139
579.867554	1211.903564
578.833862	1245.538452
577.799988	1257.398193
576.765930	1174.966064
575.731628	1201.337402
574.697205	1203.531494
573.662537	1244.385376
572.627747	1171.679810
571.592712	1132.816528
570.557434	1195.395142
569.522034	1224.147461
568.486450	1221.506592
567.450623	1199.557861
566.414673	1237.945923
565.378479	1223.240234
564.342102	1162.707031
563.305542	1232.433960
562.268799	1244.262329
561.231812	1241.620728
560.194702	1272.726563
559.157349	1274.900513
558.119812	1238.520508
557.082092	1332.246704
556.044189	1264.556519
555.006042	1329.344238
553.967773	1326.689819
552.929260	1280.704346
551.890625	1244.363281
550.851746	1299.480591
549.812683	1287.209473
548.773376	1248.481812
547.733948	1272.301147
546.694275	1245.613770
545.654419	1274.233032
544.614441	1286.015381
543.574158	1276.163330
542.533752	1307.163696
541.493164	1297.311279
540.452332	1347.512085
539.411316	1306.435669
538.370178	1335.006104
537.328735	1313.152344
536.287170	1353.711792
535.245422	1310.264771
534.203430	1336.413696
533.161255	1391.339233
532.118896	1340.713989
531.076355	1369.240479
530.033630	1388.166260
528.990723	1375.922852
527.947571	1437.979492
526.904236	1368.222778
525.860718	1387.134399
524.817017	1406.038940
523.773132	1403.382690
522.729004	1360.022339
521.684692	1335.829956
520.640198	1414.567505
519.595520	1301.830078
518.550659	1351.833130
517.505615	1284.600586
516.460327	1298.712036
515.414856	1300.861694
514.369202	1274.320435
513.323364	1290.816162
512.277283	1252.336670
511.231079	1254.493042
510.184631	1321.153442
509.138000	1165.647217
508.091187	1237.075562
507.044159	1189.090576
505.996948	1186.481934
504.949554	1265.026855
503.901947	1260.018555
502.854126	1240.696289
501.806152	1252.392822
500.757965	1259.314697
499.709564	1197.079956
