#Wave		#Intensity
3200.600830	33.678818
3200.007080	-8.419704
3199.413086	37.882946
3198.819092	16.834320
3198.224854	25.247662
3197.630615	29.451153
3197.036377	25.240030
3196.442139	16.824142
3195.847656	16.821600
3195.252930	58.866699
3194.658447	42.041283
3194.063721	25.220957
3193.468750	21.014286
3192.873779	16.808887
3192.278809	50.419033
3191.683838	33.607605
3191.088623	46.203472
3190.493164	37.797123
3189.897949	41.990452
3189.302490	33.587280
3188.706787	25.186649
3188.111328	50.365681
3187.515381	37.768547
3186.919678	12.587610
3186.323730	16.780941
3185.727783	41.946007
3185.131592	12.581898
3184.535400	-16.773325
3183.939209	25.156181
3183.342773	20.960312
3182.746338	33.531425
3182.149902	46.098732
3181.553223	20.950798
3180.956543	54.463829
3180.359619	29.322239
3179.762695	29.317801
3179.165771	0.000000
3178.568604	25.121935
3177.971436	58.608974
3177.374268	46.042938
3176.776855	41.850880
3176.179443	33.475632
3175.581787	16.735283
3174.984131	12.549562
3174.386475	20.912767
3173.788574	29.273441
3173.190674	62.719303
3172.592773	33.445229
3171.994629	25.080122
3171.396484	25.076324
3170.798340	20.893770
3170.199951	45.959332
3169.601563	54.307346
3169.002930	25.061132
3168.404297	54.290894
3167.805664	33.404720
3167.206787	33.399658
3166.607910	29.220272
3166.008789	37.563229
3165.409912	33.384476
3164.810547	-4.172427
3164.211426	54.233334
3163.612061	45.882790
3163.012695	41.705303
3162.413086	45.868881
3161.813477	25.015596
3161.213623	41.686340
3160.614014	8.336004
3160.013916	16.669481
3159.414063	33.333908
3158.813965	16.664427
3158.213867	16.661900
3157.613525	37.483593
3157.013184	24.985271
3156.412598	41.635803
3155.812256	29.140644
3155.211426	54.110130
3154.610840	20.808432
3154.010010	29.127386
3153.409180	29.122969
3152.808105	8.319586
3152.207031	37.432457
3151.605957	33.268250
3151.004639	29.105301
3150.403320	41.572693
3149.801758	41.566383
3149.200195	29.092054
3148.598633	24.932262
3147.996826	37.392719
3147.395020	54.003510
3146.793213	33.227886
3146.191162	12.458566
3145.589111	49.826702
3144.986816	45.667542
3144.384766	49.811577
3143.782227	41.503345
3143.179932	41.497044
3142.577393	33.192596
3141.974609	29.039112
3141.371826	33.182518
3140.769043	12.441555
3140.166260	0.000000
3139.563232	24.875555
3138.960205	20.726480
3138.356934	53.880665
3137.753662	12.432112
3137.150391	45.577484
3136.546875	45.570564
3135.943359	20.710747
3135.339600	24.849121
3134.735840	37.268017
3134.132080	20.701309
3133.528076	37.256695
3132.924072	45.529045
3132.320068	37.245377
3131.715820	49.652958
3131.111572	33.096943
3130.507080	33.091911
3129.902588	70.309624
3129.298096	41.352318
3128.693604	37.211430
3128.088867	28.937826
3127.483887	37.200119
3126.878906	16.530874
3126.273926	8.264180
3125.668945	24.788773
3125.063721	37.177505
3124.458252	-4.130206
3123.853027	66.073250
3123.247559	37.160553
3122.641846	16.513290
3122.036133	45.404640
3121.430420	24.762402
3120.824707	53.643711
3120.218750	37.132309
3119.612549	41.251842
3119.006592	53.619240
3118.400391	8.247859
3117.793945	20.616512
3117.187500	32.981400
3116.581055	41.220482
3115.974609	28.849947
3115.367920	32.966351
3114.760986	12.360501
3114.154297	49.434483
3113.547363	20.594566
3112.940186	49.419437
3112.333008	32.941280
3111.725830	28.819233
3111.118408	12.349220
3110.510986	28.810461
3109.903564	28.806076
3109.295898	32.916218
3108.688232	28.797308
3108.080566	53.472572
3107.472656	41.126488
3106.864746	57.568317
3106.256592	16.445585
3105.648438	24.664623
3105.040039	45.211590
3104.431885	20.547594
3103.823486	53.415607
3103.214844	32.866138
3102.606201	20.538208
3101.997559	45.177177
3101.388672	45.170296
3100.779785	24.634590
3100.170898	49.261677
3099.561768	28.731602
3098.952637	32.831112
3098.343262	8.206528
3097.733887	28.718472
3097.124512	12.306042
3096.514893	-4.101389
3095.905273	28.705347
3095.295410	28.700974
3094.685791	24.597086
3094.075684	36.890007
3093.465820	24.589588
3092.855713	36.878761
3092.245361	32.776127
3091.635254	69.638649
3091.024658	53.244968
3090.414307	61.427135
3089.803711	45.039700
3089.193115	40.938938
3088.582275	40.932697
3087.971436	40.926456
3087.360596	57.288303
3086.749512	53.188171
3086.138428	28.635418
3085.527100	32.721199
3084.915771	24.537157
3084.304443	89.955856
3083.692871	36.794510
3083.081299	49.051865
3082.469482	36.783287
3081.857910	36.777676
3081.245850	65.372559
3080.634033	65.362587
3080.021973	36.760849
3079.409668	53.090900
3078.797607	28.583046
3078.185059	40.826691
3077.572754	32.656372
3076.960205	24.488541
3076.347656	48.969604
3075.734863	73.443199
3075.122070	28.556885
3074.509033	44.868256
3073.895996	48.939716
3073.282959	28.543810
3072.669922	61.155972
3072.056641	57.070194
3071.443115	44.834023
3070.829834	28.526384
3070.216064	36.671181
3069.602539	48.887444
3068.988770	69.246635
3068.375000	36.654385
3067.760986	32.576698
3067.146973	24.428793
3066.532715	61.062656
3065.918701	36.632000
3065.304199	40.696003
3064.689941	16.275915
3064.075439	52.888645
3063.460693	32.541885
3062.846191	65.073830
3062.231445	52.864407
3061.616455	32.526974
3061.001465	40.652504
3060.386475	24.387775
3059.771240	12.192024
3059.156006	60.950806
3058.540771	36.564896
3057.925293	64.994324
3057.309814	16.246098
3056.694092	16.243614
3056.078369	52.783680
3055.462646	36.536961
3054.846680	32.472332
3054.230713	48.701054
3053.614502	40.578007
3052.998291	56.800526
3052.382080	20.282801
3051.765625	36.503456
3051.149170	40.553196
3050.532715	64.875191
3049.916016	20.270397
3049.299316	52.694973
3048.682373	56.739754
3048.065430	68.887733
3047.448486	44.567596
3046.831299	52.662739
3046.214111	68.856125
3045.596680	24.298445
3044.979248	48.589455
3044.361816	40.485016
3043.744141	56.670353
3043.126465	52.614418
3042.508545	28.326506
3041.890869	20.230122
3041.272705	52.590267
3040.654785	32.358288
3040.036621	24.265003
3039.418213	60.653221
3038.799805	36.386364
3038.181396	48.507725
3037.562988	40.416916
3036.944336	20.205364
3036.325439	44.444996
3035.706543	60.597538
3035.087646	36.352955
3034.468750	44.424587
3033.849609	36.341824
3033.230469	44.410984
3032.611084	64.587898
3031.991699	48.433506
3031.372070	56.497105
3030.752441	52.453564
3030.132813	16.137085
3029.513184	64.538460
3028.893066	40.330357
3028.273193	48.389015
3027.653076	36.286201
3027.032959	60.467735
3026.412598	28.213953
3025.792480	8.059895
3025.171875	44.322628
3024.551270	72.516823
3023.930664	52.365234
3023.310059	52.357208
3022.689209	48.322327
3022.068115	32.209946
3021.447266	48.307514
3020.826172	60.375137
3020.204834	72.439056
3019.583496	76.451729
3018.962158	44.254742
3018.340576	64.360664
3017.718994	40.219250
3017.097412	56.298317
3016.475586	44.227608
3015.853760	56.281052
3015.231689	72.350258
3014.609619	40.188423
3013.987549	40.182259
3013.365234	64.281754
3012.742920	60.254902
3012.120361	44.180153
3011.497803	40.157612
3010.875244	56.212036
3010.252441	48.174355
3009.629639	48.166962
3009.006836	100.332443
3008.383789	52.164864
3007.760498	36.108597
3007.137451	84.240463
3006.514160	56.151691
3005.890625	68.173737
3005.267090	84.201691
3004.643555	64.143822
3004.019775	44.092110
3003.395996	68.131889
3002.772217	76.135719
3002.148193	40.065281
3001.524170	68.100517
3000.899902	68.090065
3000.275635	40.046829
2999.651367	52.052887
2999.026855	12.010360
2998.402344	8.005677
2997.777588	40.022240
2997.152832	84.033798
2996.528076	56.013927
2995.903076	40.003803
2995.278076	67.996025
2994.653076	55.988121
2994.027832	59.978062
2993.402344	79.958466
2992.777100	67.954254
2992.151367	79.933899
2991.525879	75.925537
2990.900146	79.909340
2990.274414	71.907356
2989.648438	59.913589
2989.022461	39.936253
2988.396240	55.902164
2987.770264	107.794746
2987.143799	71.852119
2986.517578	95.788101
2985.891113	75.820595
2985.264404	67.829048
2984.637695	103.722603
2984.010986	83.763069
2983.384033	79.762085
2982.757080	99.687279
2982.130127	83.724442
2981.502930	71.752769
2980.875732	75.727394
2980.248291	91.655907
2979.620850	111.563942
2978.993408	95.611534
2978.365723	99.580025
2977.738037	83.634361
2977.110107	91.585449
2976.482178	95.552727
2975.854248	107.480278
2975.226074	95.523331
2974.597900	79.590530
2973.969482	123.346336
2973.341309	175.045288
2972.712646	139.219147
2972.083984	159.083115
2971.455322	147.129242
2970.826660	151.082443
2970.197754	135.158234
2969.568604	182.832993
2968.939697	194.726913
2968.310547	166.883087
2967.681152	198.639771
2967.051758	222.442291
2966.422363	190.635468
2965.792725	238.257645
2965.163086	202.487823
2964.533203	250.093506
2963.903564	261.962372
2963.273438	238.110947
2962.643311	253.945908
2962.013184	297.547028
2961.383057	273.701111
2960.752686	297.455383
2960.122314	305.340515
2959.491699	269.609833
2958.861084	332.996124
2958.230225	396.362885
2957.599609	344.782593
2956.968506	309.067810
2956.337646	316.943787
2955.706299	289.166656
2955.075195	344.570160
2954.443848	293.037506
2953.812500	324.667206
2953.180908	320.658417
2952.549316	320.609009
2951.917725	395.752594
2951.285889	391.734680
2950.653809	340.242340
2950.021973	348.101288
2949.389893	403.418823
2948.757568	367.766357
2948.125244	363.755798
2947.492920	363.699707
2946.860352	320.164490
2946.227783	347.779419
2945.595215	276.600067
2944.962402	323.967255
2944.329590	264.664124
2943.696533	300.169708
2943.063477	264.582489
2942.430420	244.799774
2941.797119	248.709793
2941.163574	264.460083
2940.530273	217.060608
2939.896729	205.189285
2939.262939	240.665680
2938.629150	244.573288
2937.995361	224.814941
2937.361328	197.175659
2936.727295	244.460098
2936.093262	224.710892
2935.458984	232.559586
2934.824707	264.052338
2934.190186	224.606873
2933.555664	244.271515
2932.921143	248.173065
2932.286377	263.889343
2931.651367	315.043121
2931.016602	283.495056
2930.381592	362.187744
2929.746338	330.642090
2929.111084	354.204712
2928.475830	405.305023
2927.840332	401.308044
2927.204834	479.921753
2926.569336	412.983643
2925.933594	452.245544
2925.297607	460.039642
2924.661865	432.449097
2924.025879	526.720276
2923.389648	467.686798
2922.753418	475.473602
2922.117188	538.263000
2921.480713	502.824951
2920.844238	510.602692
2920.207764	486.961182
2919.571045	502.591919
2918.934082	455.403564
2918.297363	463.183746
2917.660156	459.187500
2917.023193	447.344299
2916.385986	408.040497
2915.748779	498.203217
2915.111328	411.836639
2914.473877	447.067810
2913.836182	415.630371
2913.198486	446.929596
2912.560791	458.619995
2911.922852	419.356842
2911.284912	485.908508
2910.646729	501.505402
2910.008545	470.088623
2909.370361	509.183929
2908.731934	497.356598
2908.093506	469.870575
2907.455078	579.417419
2906.816406	610.642822
2906.177490	622.289673
2905.538574	692.630432
2904.899658	704.260925
2904.260498	680.680237
2903.621338	637.550110
2902.982178	696.112671
2902.342773	778.117859
2901.703369	750.630737
2901.063721	691.880615
2900.424072	695.681885
2899.784424	683.851074
2899.144531	656.395447
2898.504639	660.200317
2897.864502	683.533569
2897.224365	679.522522
2896.583984	663.798523
2895.943848	577.805725
2895.303223	593.330200
2894.662842	597.141235
2894.021973	550.221436
2893.381348	643.776489
2892.740479	647.577881
2892.099609	596.771484
2891.458496	709.775146
2890.817383	717.463745
2890.176025	658.872803
2889.534668	709.445374
2888.893311	732.720215
2888.251709	705.328796
2887.610107	744.181946
2886.968262	747.962280
2886.326416	747.846436
2885.684570	786.674866
2885.042480	806.022095
2884.400391	840.936218
2883.758057	844.698547
2883.115723	848.459656
2882.473389	789.956970
2881.830811	883.214050
2881.188232	879.186951
2880.545410	925.725891
2879.902588	902.248413
2879.259766	944.880981
2878.616699	863.090759
2877.973633	991.234375
2877.330322	851.163391
2876.687012	808.285583
2876.043457	808.160278
2875.399902	827.458862
2874.756348	807.909668
2874.112549	768.948608
2873.468750	722.233643
2872.824707	722.121582
2872.180664	683.191895
2871.536621	702.491760
2870.892334	702.382813
2870.248047	647.954346
2869.603760	690.526855
2868.958984	667.147156
2868.314453	748.484985
2867.669678	810.409790
2867.024902	709.483215
2866.379883	736.507568
2865.734863	744.144836
2865.089844	751.779663
2864.444580	774.910278
2863.799316	805.781616
2863.153809	786.289795
2862.508301	708.712830
2861.862549	693.114197
2861.216797	634.933472
2860.571045	615.480164
2859.925049	553.459106
2859.279053	553.373169
2858.632813	464.297028
2857.986572	456.487854
2857.340332	456.416962
2856.693848	386.733978
2856.047363	375.073700
2855.400635	336.354065
2854.753906	344.032898
2854.107178	324.654785
2853.460205	297.553986
2852.813232	332.281403
2852.166016	316.777252
2851.518799	305.140411
2850.871338	324.402679
2850.223877	266.432251
2849.576416	339.744843
2848.928711	285.650146
2848.281006	316.482056
2847.633301	328.009674
2846.985352	304.808685
2846.337158	339.480957
2845.688965	381.856720
2845.040771	404.936584
2844.392578	416.441467
2843.743896	389.389374
2843.095459	458.714172
2842.446777	477.913574
2841.798096	458.571533
2841.149170	516.294373
2840.500244	547.032898
2839.851074	531.540833
2839.202148	596.927673
2838.552734	531.375549
2837.903320	619.841736
2837.253906	627.444031
2836.604492	581.161438
2835.954834	554.133972
2835.304932	554.047729
2834.655029	500.104187
2834.005127	511.565460
2833.354980	473.028290
2832.704834	442.193420
2832.054688	388.300751
2831.404297	326.736908
2830.753906	322.842712
2830.103271	303.578644
2829.452637	284.320557
2828.801758	218.969574
2828.150879	245.822311
2827.500000	176.657288
2826.848877	222.707123
2826.197754	168.923935
2825.546387	237.992126
2824.895020	153.519409
2824.243408	172.682449
2823.591797	161.145187
2822.940186	157.283905
2822.288330	145.752625
2821.636475	122.719940
2820.984619	161.044846
2820.332520	153.352158
2819.680176	114.996201
2819.028076	111.145683
2818.375488	130.288437
2817.723145	157.088043
2817.070557	137.909485
2816.417725	145.548447
2815.764893	114.888763
2815.112061	160.819214
2814.458984	122.509834
2813.805908	126.318581
2813.152832	122.471657
2812.499512	118.625931
2811.845947	110.955353
2811.192383	95.636261
2810.538818	99.446205
2809.885010	126.200508
2809.231201	122.357178
2808.577393	133.807297
2807.923340	129.963974
2807.269287	133.765594
2806.614990	114.638344
2805.960693	76.413643
2805.306152	114.602600
2804.651611	129.862686
2803.997070	95.472382
2803.342285	133.640488
2802.687500	145.072769
2802.032471	99.244835
2801.377441	110.678894
2800.722412	99.213875
2800.067139	110.644371
2799.411621	118.256561
2798.756348	110.609848
2798.100586	91.524902
2797.445068	102.949455
2796.789307	125.807480
2796.133301	114.352592
2795.477539	95.278954
2794.821289	91.453522
2794.165283	91.439255
2793.509033	95.234352
2792.852539	125.689728
2792.196045	83.780075
2791.539551	102.804955
2790.882813	83.753922
2790.226074	102.772858
2789.569092	133.203278
2788.912109	87.519913
2788.255127	129.357071
2787.597900	121.728821
2786.940430	106.496086
2786.283203	87.465263
2785.625488	91.253853
2784.968018	155.867645
2784.310303	79.822182
2783.652588	114.013878
2782.994629	98.796593
2782.336426	113.978264
2781.678467	91.168365
2781.020264	75.961769
2780.361816	106.329865
2779.703369	56.953526
2779.044922	117.685562
2778.386230	87.301453
2777.727539	98.673180
2777.068604	102.452286
2776.409668	83.466599
2775.750732	91.040237
2775.091553	125.160759
2774.432373	91.011780
2773.772949	68.248169
2773.113525	87.192360
2772.453857	117.501762
2771.794189	102.324242
2771.134521	90.940666
2770.474609	83.349243
2769.814697	87.124222
2769.154541	124.984764
2768.494385	113.604744
2767.833984	71.938423
2767.173584	102.212296
2766.513184	90.841164
2765.852539	98.395866
2765.191895	124.867531
2764.531006	79.448723
2763.870117	102.132378
2763.209229	71.859688
2762.548096	121.007912
2761.886719	94.522644
2761.225586	124.750366
2760.563965	86.933617
2759.902588	105.815674
2759.240967	109.577652
2758.579102	105.782555
2757.917236	94.433929
2757.255371	101.972679
2756.593262	105.732895
2755.931152	117.043091
2755.269043	101.924797
2754.606689	120.780853
2753.944092	113.214317
2753.281494	113.196594
2752.618896	132.042023
2751.956055	124.477264
2751.293213	147.086456
2750.630371	120.667427
2749.967285	135.729599
2749.303955	131.938660
2748.640625	124.379822
2747.977295	113.054855
2747.313721	97.965530
2746.650146	135.623337
2745.986572	135.602081
2745.322754	112.984032
2744.658691	135.559601
2743.994873	154.363129
2743.330566	135.517120
2742.666504	112.913239
2742.002197	143.001022
2741.337646	139.216019
2740.673096	124.146179
2740.008545	112.842468
2739.343750	131.628922
2738.678955	142.888992
2738.013916	139.106949
2737.348877	157.880432
2736.683594	150.338745
2736.018311	146.557297
2735.353027	131.505157
2734.687500	138.997940
2734.021973	138.976135
2733.356201	157.731964
2732.690430	131.422684
2732.024658	153.928146
2731.358643	180.180298
2730.692383	195.164703
2730.026367	191.381516
2729.359863	202.607468
2728.693604	120.044846
2728.027100	213.796341
2727.360352	206.262344
2726.693604	194.981079
2726.026855	202.448578
2725.359863	183.674515
2724.692871	232.368027
2724.025635	191.111435
2723.358398	191.081451
2722.691162	213.528107
2722.023682	198.512512
2721.355957	172.266830
2720.688477	224.660599
2720.020508	224.625336
2719.352783	198.387894
2718.684814	202.099319
2718.016602	235.745529
2717.348389	194.553055
2716.680176	194.522507
2716.011719	175.790817
2715.343262	198.201065
2714.674561	216.865219
2714.005859	186.923416
2713.337158	186.894043
2712.668213	201.813873
2711.999023	164.415100
2711.329834	168.125397
2710.660645	175.570053
2709.991455	216.626877
2709.321777	175.514877
2708.652344	182.954849
2707.982666	164.260178
2707.312988	130.640976
2706.643066	160.476547
2705.972900	167.914169
2705.302979	149.233582
2704.632813	167.861389
2703.962402	130.538345
2703.291992	178.995865
2702.621582	178.967728
2701.950928	197.579147
2701.280273	167.729507
2700.609375	141.615982
2699.938477	160.224457
2699.267334	160.199265
2698.596191	152.724121
2697.925049	134.078140
2697.253662	160.123703
2696.582031	119.143082
2695.910645	126.569618
2695.239014	174.936356
2694.567139	141.415665
2693.895264	130.230774
2693.223145	111.608818
2692.551270	145.068634
2691.878906	130.169327
2691.206543	92.963455
2690.534180	96.666786
2689.861816	130.107880
2689.189209	163.538467
2688.516357	130.066940
2687.843506	133.762085
2687.170654	141.171082
2686.497559	156.006638
2685.824463	126.271210
2685.151123	126.251335
2684.477783	129.944153
2683.804199	167.044754
2683.130615	141.037796
2682.457031	85.351547
2681.783203	100.179512
2681.109375	111.293045
2680.435303	133.530624
2679.761230	129.800995
2679.086914	133.488571
2678.412598	148.297272
2677.738281	155.687607
2677.063721	148.250549
2676.389160	125.993118
2675.714355	166.729324
2675.039551	170.407578
2674.364502	166.676804
2673.689453	159.243851
2673.014404	140.704941
2672.339111	96.256638
2671.663574	88.838280
2670.988037	166.545517
2670.312500	125.814560
2669.636719	92.496124
2668.960938	107.278595
2668.285156	140.549789
2667.609131	147.923828
2666.932861	140.505478
2666.256592	162.664917
2665.580322	103.497719
2664.903809	140.439041
2664.227295	144.112076
2663.550781	140.394760
2662.874023	169.924744
2662.197021	140.350479
2661.520020	140.328339
2660.843018	136.613937
2660.165771	121.825645
2659.488525	147.644165
2658.811035	129.168259
2658.133545	140.217697
2657.455811	132.816864
2656.778076	140.173462
2656.100342	143.839539
2655.422363	121.691170
2654.744385	140.107117
2654.066162	125.339218
2653.387939	151.120499
2652.709473	158.467209
2652.031006	121.595184
2651.352539	132.628357
2650.673828	147.341568
2649.994873	143.635361
2649.316162	139.930298
2648.636963	158.317184
2647.958008	143.567337
2647.278809	195.073532
2646.599365	143.522003
2645.919922	169.255630
2645.240479	169.228912
2644.560791	158.167252
2643.880859	165.497726
2643.201172	154.440155
2642.520996	180.151718
2641.841064	136.011444
2641.160889	147.016174
2640.480469	135.968475
2639.800049	128.598511
2639.119629	135.925507
2638.438965	132.230957
2637.758301	117.520058
2637.077393	146.876862
2636.396484	121.154259
2635.715332	135.818161
2635.034180	117.445786
2634.353027	121.096825
2633.671631	132.084747
2632.989990	124.726982
2632.308350	161.385880
2631.626709	128.354828
2630.944824	128.334549
2630.262939	102.651398
2629.581055	161.283844
2628.898926	113.613831
2628.216553	135.582153
2627.534180	131.896912
2626.851807	124.549606
2626.169189	142.843124
2625.486572	131.834351
2624.803711	106.183090
2624.120850	153.758087
2623.437988	161.054413
2622.754883	131.750946
2622.071533	128.070938
2621.388184	117.074898
2620.704834	142.662460
2620.021240	164.584473
2619.337646	160.901581
2618.653809	124.313362
2617.969971	106.015205
2617.286133	168.135437
2616.602051	146.181595
2615.917725	131.542603
2615.233398	175.362381
2614.549072	138.806564
2613.864502	146.089050
2613.179932	153.369217
2612.495117	127.787445
2611.810303	142.369171
2611.125488	182.495682
2610.440430	131.376083
2609.755127	124.057770
2609.069824	131.334473
2608.384521	138.608887
2607.698975	127.645859
2607.013428	156.797211
2606.327637	156.772369
2605.641846	149.456955
2604.956055	142.143845
2604.270020	127.544785
2603.583740	138.455246
2602.897461	131.147354
2602.211182	131.126572
2601.524658	127.463966
2600.838135	174.780014
2600.151367	156.548950
2599.464600	141.963760
2598.777832	120.104141
2598.090820	141.918747
2597.403564	130.981155
2596.716309	178.251648
2596.029053	141.851273
2595.341553	152.738693
2594.654053	156.350525
2593.966309	134.512848
2593.278564	159.935852
2592.590820	119.932869
2591.902832	134.448868
2591.214600	127.161186
2590.526367	134.406219
2589.838135	163.441101
2589.149658	170.678070
2588.461182	119.818779
2587.772461	156.102737
2587.083740	148.818527
2586.394775	130.649200
2585.705811	141.514175
2585.016846	134.235733
2584.327637	141.469269
2583.638184	166.834702
2582.948975	137.798096
2582.259277	130.524857
2581.569824	134.129257
2580.879883	152.230652
2580.190186	141.334595
2579.500244	148.558945
2578.810059	148.535355
2578.119873	163.000732
2577.429688	159.353195
2576.739258	126.738091
2576.048584	162.923096
2575.358154	104.978218
2574.667236	152.013275
2573.976563	159.226700
2573.285645	162.819626
2572.594482	151.940857
2571.903320	191.704437
2571.212158	162.742050
2570.520752	155.484375
2569.829102	148.228989
2569.137451	133.746368
2568.445801	162.638657
2567.753906	158.999207
2567.062012	137.295670
2566.370117	140.886322
2565.677979	158.923416
2564.985596	137.230225
2564.293213	158.872910
2563.600830	140.796783
2562.908203	93.849602
2562.215332	119.097870
2561.522705	147.946548
2560.829590	155.138794
2560.136719	111.826462
2559.443604	151.482727
2558.750244	151.458649
2558.056885	147.828979
2557.363525	118.965378
2556.669922	144.177521
2555.976074	154.966187
2555.282227	129.718506
2554.588379	165.725052
2553.894287	162.096542
2553.200195	144.062897
2552.505859	187.251968
2551.811523	183.621750
2551.117188	154.793716
2550.422607	158.368362
2549.727783	190.731537
2549.032959	143.925430
2548.338135	161.890335
2547.643066	136.685638
2546.947998	136.663879
2546.252686	197.771500
2545.557373	100.667648
2544.861816	158.166840
2544.166260	168.924042
2543.470703	143.742264
2542.774902	183.242203
2542.078857	193.990265
2541.382813	186.775696
2540.686768	175.972153
2539.990479	147.218552
2539.294189	161.555603
2538.597656	168.708984
2537.901123	157.915176
2537.204346	139.947968
2536.507568	154.277039
2535.810791	129.141586
2535.113770	125.534325
2534.416504	168.547806
2533.719238	168.520950
2533.021973	139.814255
2532.324463	157.714020
2531.626953	143.353546
2530.929199	154.080505
2530.231445	154.055939
2529.533447	164.777771
2528.835449	143.262177
2528.137451	132.496399
2527.439209	175.440231
2526.740723	157.513046
2526.042236	157.487946
2525.343750	143.148026
2524.645020	146.703339
2523.946289	186.033096
2523.247314	132.348602
2522.548340	185.973770
2521.849121	164.489029
2521.149902	150.161682
2520.450684	153.712433
2519.751221	121.520683
2519.051514	182.251953
2518.351807	167.930893
2517.652100	185.766235
2516.952148	200.024033
2516.252197	157.136658
2515.552002	135.687286
2514.851807	157.086517
2514.151367	157.061462
2513.450928	135.622345
2512.750244	157.011337
2512.049561	181.961365
2511.348877	128.422821
2510.647949	135.535782
2509.946777	153.344955
2509.245605	167.582840
2508.544434	163.991074
2507.843018	146.142609
2507.141602	163.938705
2506.439941	153.222580
2505.738281	171.011856
2505.036377	224.417221
2504.334473	163.834015
2503.632568	163.807861
2502.930420	174.463104
2502.228027	167.315445
2501.525635	192.204056
2500.823242	174.379517
2500.120605	163.677078
2499.417969	177.881439
2498.715088	138.725357
2498.012207	149.372665
2497.309082	174.240265
2496.605957	149.324936
2495.902588	174.184586
2495.199219	209.698944
2494.495605	163.467957
2493.791992	170.548004
2493.088379	166.968231
2492.384521	195.357117
2491.680664	170.466232
2490.976563	177.540604
2490.272461	205.914169
2489.568115	191.682541
2488.863770	184.553680
2488.159180	163.232925
2487.454590	198.686554
2486.749756	177.370346
2486.044922	141.873581
2485.339844	159.582260
2484.634766	148.919617
2483.929688	159.531204
2483.224365	134.693695
2482.519043	159.480179
2481.813477	184.258713
2481.107666	148.800537
2480.402100	159.403641
2479.696045	177.086823
2478.990234	180.599655
2478.284180	155.786530
2477.577881	208.862137
2476.871582	180.512955
2476.165039	205.256393
2475.458496	137.995132
2474.751953	134.435272
2474.045166	169.785797
2473.338379	208.661636
2472.631348	183.875732
2471.924072	148.491226
2471.217041	169.677094
2470.509521	159.046799
2469.802246	183.757980
2469.094482	162.529114
2468.386963	176.633789
2467.679199	158.944946
2466.971191	137.730225
2466.263184	176.548920
2465.554932	176.520645
2464.846680	165.902817
2464.138428	176.464096
2463.429932	165.849670
2462.721436	165.823090
2462.012695	215.182724
2461.303955	193.986115
2460.594971	183.375671
2459.885986	172.768616
2459.176758	236.196777
2458.467529	137.465637
2457.758057	193.830719
2457.048584	147.992462
2456.338867	221.953110
2455.629150	200.782516
2454.919434	140.877426
2454.209473	140.854843
2453.499512	161.957092
2452.789307	168.971603
2452.078857	168.944504
2451.368408	179.474762
2450.657959	151.297592
2449.947266	204.043076
2449.236572	193.458099
2448.525879	193.427063
2447.814697	203.944916
2447.103760	179.302094
2446.392578	186.303665
2445.681152	186.273773
2444.969727	193.271957
2444.258301	168.646637
2443.546631	158.080856
2442.834717	182.641891
2442.122803	179.100800
2441.410889	182.583282
2440.698730	238.724426
2439.986572	175.504486
2439.274170	182.495377
2438.561768	157.903336
2437.849121	154.369583
2437.136475	168.376144
2436.423584	150.812744
2435.710693	164.815369
2434.997803	220.887253
2434.284424	161.256866
2433.571289	171.746033
2432.857910	199.754105
2432.144287	178.698654
2431.430908	199.689941
2430.717041	178.641251
2430.003174	245.154480
2429.289307	157.573990
2428.575195	189.058411
2427.861084	154.022842
2427.146729	199.497543
2426.432373	192.466690
2425.717773	209.929932
2425.003174	192.404846
2424.288330	167.889969
2423.573486	195.840149
2422.858643	206.298416
2422.143555	192.281174
2421.428223	188.754807
2420.712891	185.229568
2419.997559	160.739441
2419.281982	202.638870
2418.566162	202.606293
2417.850586	164.154556
2417.134521	174.604431
2416.418457	188.542465
2415.702393	181.530212
2414.986084	209.424240
2414.269775	191.941345
2413.553223	170.974792
2412.836670	212.811920
2412.120117	198.825058
2411.403076	205.768265
2410.686279	198.761093
2409.969238	212.675003
2409.251953	202.183044
2408.534668	195.179810
2407.817383	188.178818
2407.099854	198.601227
2406.382080	198.569260
2405.664307	188.087967
2404.946533	177.610046
2404.228516	188.027420
2403.510498	198.441437
2402.792236	184.486023
2402.073975	212.298782
2401.355469	243.582336
2400.636963	184.396927
2399.918213	173.931351
2399.199463	208.684021
2398.480469	187.785370
2397.761475	166.893448
2397.042480	132.102692
2396.323242	187.694641
2395.603760	166.812805
2394.884277	191.108887
2394.164795	149.388336
2393.445068	194.520905
2392.725098	194.489563
2392.005127	208.348099
2391.285156	229.145981
2390.564941	211.752319
2389.844727	232.542923
2389.124268	152.690155
2388.403809	208.180283
2387.683105	194.270279
2386.962402	201.176071
2386.241455	225.419601
2385.520508	214.980957
2384.799316	225.346924
2384.078125	183.714783
2383.356689	187.150925
2382.635254	190.585953
2381.913818	197.484497
2381.192139	180.132248
2380.470215	225.128983
2379.748291	228.555649
2379.026367	176.582687
2378.304199	183.477905
2377.581787	166.141861
2376.859375	179.957993
2376.136963	204.150162
2375.414307	179.899918
2374.691650	231.756729
2373.968750	193.675873
2373.245850	221.308136
2372.522705	193.613358
2371.799316	186.668472
2371.076172	200.463409
2370.352783	200.431061
2369.629150	200.398697
2368.905518	162.365845
2368.181641	203.788040
2367.457764	196.848190
2366.733643	169.193054
2366.009521	189.879913
2365.285400	210.560074
2364.561035	220.879822
2363.836426	220.844147
2363.111816	207.007950
2362.387207	206.974518
2361.662354	213.839127
2360.937256	206.907669
2360.212158	189.634720
2359.487061	193.051437
2358.761719	203.360626
2358.036377	224.005173
2357.310791	223.968979
2356.584961	206.707184
2355.859375	192.895538
2355.133301	196.308365
2354.407471	244.484940
2353.681152	206.573608
2352.955078	240.963593
2352.228516	251.249985
2351.502197	216.797134
2350.775635	206.440079
2350.048828	220.167145
2349.322021	192.615112
2348.594971	213.217972
2347.867920	240.691040
2347.140869	199.397476
2346.413330	202.802551
2345.686035	237.137512
2344.958496	178.683426
2344.230713	213.011169
2343.502930	226.717148
2342.775146	230.115036
2342.047119	192.303833
2341.319092	188.839294
2340.590820	192.241623
2339.862305	199.075180
2339.133789	250.519608
2338.405273	205.873199
2337.676514	195.547897
2336.947754	243.537781
2336.218750	202.343719
2335.489746	212.597961
2334.760498	205.706665
2334.031250	236.524384
2333.301758	195.358078
2332.572266	222.740692
2331.842529	270.671783
2331.112793	239.796921
2330.382813	253.458557
2329.652832	273.964874
2328.922607	219.136414
2328.192383	256.758911
2327.462158	222.488342
2326.731689	222.452316
2326.000977	270.321320
2325.270264	191.589142
2324.539307	184.716751
2323.808350	201.787460
2323.077393	249.628769
2322.346191	229.074219
2321.614746	208.526321
2320.883301	246.089539
2320.151855	201.624039
2319.420166	232.342590
2318.688232	249.386169
2317.956299	245.930054
2317.224365	232.229630
2316.492188	225.362808
2315.760010	204.842072
2315.027588	225.289749
2314.295166	235.492020
2313.562500	208.154846
2312.829590	225.180191
2312.096924	259.256348
2311.363770	221.696457
2310.630615	238.711319
2309.897461	235.263000
2309.164063	231.815781
2308.430664	252.229202
2307.697021	221.516739
2306.963379	214.666016
2306.229492	252.106476
2305.495605	235.034119
2304.761719	224.778763
2304.027344	224.742294
2303.293213	221.301193
2302.558838	248.497940
2301.824219	238.247025
2301.089600	241.611343
2300.354736	204.145462
2299.619873	261.944153
2298.885010	251.697678
2298.149658	248.256042
2297.414551	255.016174
2296.679199	224.377808
2295.943604	220.942261
2295.208008	220.906387
2294.472412	254.850601
2293.736572	214.039734
2293.000488	247.974030
2292.264404	258.122803
2291.528320	220.727081
2290.791992	264.829468
2290.055420	227.444778
2289.318848	244.378571
2288.582275	261.306854
2287.845459	281.622650
2287.108398	257.829437
2286.371582	244.219788
2285.634277	234.005936
2284.896973	200.059525
2284.159668	247.491043
2283.422119	227.112396
2282.684570	257.578156
2281.946777	271.090851
2281.208740	250.718277
2280.470703	284.552856
2279.732666	243.862793
2278.994385	226.890991
2278.256104	264.098816
2277.517578	243.743881
2276.779053	247.089020
2276.040283	250.433075
2275.301514	247.008667
2274.562500	216.520325
2273.823486	250.310913
2273.084229	250.270203
2272.344971	233.322098
2271.605469	240.046005
2270.865967	277.191132
2270.126221	267.006531
2269.386475	253.445984
2268.646484	216.238708
2267.906494	290.523499
2267.166260	280.343323
2266.426025	246.526901
2265.685547	249.863312
2264.945068	266.702545
2264.204346	239.655685
2263.463623	263.240845
2262.722656	263.197998
2261.981689	236.164886
2261.240723	259.739075
2260.499268	249.578735
2259.758057	229.305283
2259.016602	236.011108
2258.274902	242.714752
2257.533203	246.045715
2256.791260	256.115479
2256.049316	235.857407
2255.307129	242.556686
2254.564941	242.517166
2253.822754	229.006683
2253.080322	299.680511
2252.337646	289.531738
2251.594971	255.823578
2250.852051	262.513000
2250.109131	262.470215
2249.366211	225.418442
2248.623047	228.745621
2247.879639	272.432007
2247.136230	282.476013
2246.392578	295.879028
2245.648926	258.851959
2244.905273	252.087418
2244.161377	252.046326
2243.417236	248.645172
2242.673096	221.728455
2241.928955	248.564087
2241.184570	275.390961
2240.439941	251.840912
2239.695313	302.159821
2238.950439	261.829132
2238.205566	271.855133
2237.460693	268.455109
2236.715576	278.476746
2235.970215	238.176178
2235.224854	271.677795
2234.479492	278.340485
2233.733887	285.000977
2232.988037	244.725601
2232.242188	281.556091
2231.496338	274.807526
2230.750244	247.956573
2230.003906	271.367645
2229.257568	241.176300
2228.511230	284.675537
2227.764648	217.657532
2227.017822	254.450348
2226.270996	234.323898
2225.523926	251.020325
2224.776855	291.136047
2224.029785	240.900833
2223.282471	230.825592
2222.534912	304.372467
2221.787354	270.880676
2221.039795	324.334991
2220.291992	320.938904
2219.543945	274.090546
2218.795898	260.677704
2218.047852	263.976593
2217.299561	230.524155
2216.551025	250.528793
2215.802490	253.827698
2215.053955	267.143402
2214.305176	267.099762
2213.556152	257.041504
2212.807129	280.363068
2212.058105	266.968811
2211.308838	293.617706
2210.559326	286.897675
2209.809814	256.831512
2209.060303	236.779953
2208.310547	283.422607
2207.560547	246.704041
2206.810547	286.663239
2206.060303	293.281860
2205.310059	236.586441
2204.559814	279.859314
2203.809326	289.806885
2203.058594	283.098358
2202.307861	266.401917
2201.557129	283.005737
2200.806152	266.314789
2200.054932	286.241547
2199.303711	292.850403
2198.552246	229.583771
2197.800781	249.506760
2197.049316	279.401825
2196.297607	322.589813
2195.545654	259.359650
2194.793701	312.510498
2194.041504	299.163208
2193.289307	275.849792
2192.537109	282.450531
2191.784668	292.371490
2191.031982	279.036194
2190.279297	282.311829
2189.526367	278.944855
2188.773438	268.938477
2188.020508	275.533813
2187.267090	298.722687
2186.513916	275.443573
2185.760498	305.260956
2185.006836	278.670868
2184.253174	245.455566
2183.499268	308.427399
2182.745361	248.691025
2181.991211	278.488312
2181.237061	291.701874
2180.482666	288.339844
2179.728271	275.037750
2178.973877	314.750671
2178.218994	255.071884
2177.464355	281.526733
2176.709229	291.415192
2175.954346	274.812469
2175.198975	297.940582
2174.443848	278.032288
2173.688232	291.224182
2172.932861	304.411713
2172.177002	310.978363
2171.421387	314.235107
2170.665283	314.183594
2169.909424	294.292145
2169.153076	267.795013
2168.396729	257.834381
2167.640381	280.927277
2166.883789	317.230530
2166.127197	290.746948
2165.370361	303.912872
2164.613525	293.954437
2163.856445	267.487671
2163.099365	316.970428
2162.342041	270.701141
2161.584473	297.062256
2160.826904	330.015015
2160.069336	270.567902
2159.311523	280.420685
2158.553711	253.986465
2157.795654	263.838715
2157.037354	323.149384
2156.279053	267.049011
2155.520752	260.412445
2154.762207	299.919525
2154.003662	319.641968
2153.244873	293.231567
2152.485840	280.006653
2151.726807	296.428925
2150.967773	312.845825
2150.208252	293.039001
2149.448975	316.035095
2148.689453	243.570374
2147.929688	292.894623
2147.169922	282.975281
2146.410156	335.566711
2145.650146	282.882324
2144.889893	302.568573
2144.129639	364.995575
2143.369141	312.332275
2142.608643	318.855286
2141.847900	292.509857
2141.087158	259.600922
2140.326416	298.984802
2139.565186	269.370605
2138.804199	262.757385
2138.042725	305.405243
2137.281494	279.087921
2136.519775	288.890594
2135.758301	301.972321
2134.996338	341.303894
2134.234619	337.966522
2133.472412	301.823364
2132.710449	262.411957
2131.947998	311.562927
2131.185547	288.558197
2130.423096	327.853088
2129.660400	327.799164
2128.897705	304.803070
2128.134766	334.245148
2127.371826	285.044556
2126.608643	357.066010
2125.845215	311.153107
2125.081787	356.948517
2124.318359	314.324921
2123.554688	268.441681
2122.790771	324.040894
2122.026855	287.988953
2121.262939	278.125336
2120.498779	327.152435
2119.734375	274.762787
2118.969971	277.988007
2118.205322	353.150146
2117.440674	304.051422
2116.676025	310.539032
2115.911133	320.292755
2115.145996	326.775543
2114.380859	323.454498
2113.615479	310.334503
2112.850098	320.081818
2112.084473	274.310638
2111.318848	339.566742
2110.552979	297.071960
2109.787109	362.302795
2109.020996	352.452728
2108.254883	306.713867
2107.488525	300.138580
2106.722168	329.445648
2105.955566	345.697876
2105.188965	306.511749
2104.422119	312.981659
2103.655029	325.968811
2102.887939	322.655945
2102.120850	348.671661
2101.353516	342.098022
2100.585938	342.041626
2099.818359	341.985229
2099.050781	367.980530
2098.282959	325.592804
2097.514893	345.071442
2096.746826	331.995117
2095.978760	341.703308
2095.210449	325.378052
2094.441895	338.337341
2093.673340	325.270691
2092.904541	341.477905
2092.135742	295.898682
2091.366699	302.352051
2090.597656	328.306641
2089.828369	315.252380
2089.059082	302.202393
2088.289551	282.658813
2087.520020	341.083649
2086.750244	305.300659
2085.980469	373.444489
2085.210449	347.408386
2084.440186	334.365936
2083.670166	318.082062
2082.899658	324.519928
2082.129150	350.423676
2081.358643	343.877533
2080.587891	327.602783
2079.816895	321.062592
2079.045898	353.434753
2078.274902	340.408447
2077.503662	363.042358
2076.732178	288.441376
2075.960693	327.278259
2075.188965	327.224182
2074.417236	353.084595
2073.645264	372.458893
2072.873291	323.823792
2072.101074	333.483368
2071.328857	369.037109
2070.556396	326.899902
2069.783936	320.373688
2069.011230	323.556274
2068.238525	323.502808
2067.465576	333.152802
2066.692627	342.799591
2065.919434	329.809235
2065.145996	300.658691
2064.372559	294.144287
2063.599121	352.268402
2062.825439	358.672729
2062.051514	303.690643
2061.277588	397.316681
2060.503662	329.427643
2059.729248	335.831451
2058.955078	319.632813
2058.180664	361.544983
2057.406006	342.119904
2056.631348	361.425385
2055.856445	358.139099
2055.081543	367.757660
2054.306396	364.471405
2053.531250	341.836945
2052.755859	315.985626
2051.980225	328.828552
2051.204590	367.453430
2050.428955	415.733765
2049.653076	389.887268
2048.877197	367.270996
2048.101074	338.219910
2047.324707	344.605133
2046.548340	367.088593
2045.771851	363.808258
2044.995239	354.091003
2044.218506	337.939972
2043.441528	363.627533
2042.664551	337.828033
2041.887329	318.470825
2041.110107	340.932465
2040.332642	360.170868
2039.555176	324.743134
2038.777466	315.045074
2037.999634	353.563446
2037.221802	350.291168
2036.443726	337.380524
2035.665527	385.513855
2034.887207	385.449951
2034.108765	321.155060
2033.330200	366.056091
2032.551514	311.417145
2031.772705	365.934723
2030.993774	397.968292
2030.214600	369.022308
2029.435425	378.586182
2028.656128	356.068634
2027.876587	339.973114
2027.097046	349.537018
2026.317261	346.272827
2025.537476	343.009705
2024.757446	362.183807
2023.977295	381.351532
2023.197021	362.063660
2022.416626	355.596466
2021.636230	397.176971
2020.855591	329.858398
2020.074707	377.833313
2019.293823	355.360504
2018.512817	377.707947
2017.731689	374.444885
2016.950439	380.782440
2016.168945	361.523315
2015.387451	403.047577
2014.605713	364.601563
2013.823975	425.297882
2013.041992	380.466492
2012.260010	351.633331
2011.477783	364.359497
2010.695435	386.668213
2009.912964	383.408936
2009.130371	412.096161
2008.347656	402.445679
2007.564819	373.637482
2006.781860	411.890869
2005.998779	415.014862
2005.215576	367.067566
2004.432129	386.154724
2003.648682	437.143890
2002.864990	395.597351
2002.081299	376.392975
2001.297363	392.276642
2000.513428	404.966309
1999.729248	414.463531
1998.944946	357.016937
1998.160522	420.700012
1997.375977	388.764160
1996.591309	385.513489
1995.806519	395.005981
1995.021606	337.610291
1994.236572	350.292023
1993.451416	340.681976
1992.666016	407.477020
1991.880615	366.031738
1991.094971	423.253265
1990.309326	420.001068
1989.523438	381.755646
1988.737549	419.861359
1987.951416	419.791504
1987.165161	410.182556
1986.378784	406.935120
1985.592285	381.438202
1984.805664	425.868469
1984.018921	400.376862
1983.232056	397.133148
1982.444946	400.243591
1981.657837	381.120941
1980.870605	412.812317
1980.083130	406.393707
1979.295654	425.372589
1978.507935	406.258392
1977.720093	425.230957
1976.932129	444.197205
1976.144165	418.744751
1975.355957	434.533936
1974.567627	428.119080
1973.779053	399.511261
1972.990479	412.125519
1972.201782	415.226532
1971.412964	459.525360
1970.623901	405.582397
1969.834839	459.372284
1969.045532	408.614838
1968.256226	452.885162
1967.466675	411.645203
1966.677002	392.580750
1965.887207	458.989716
1965.097290	452.583405
1964.307251	408.206482
1963.517090	414.466187
1962.726807	430.213776
1961.936401	423.816467
1961.145874	404.772125
1960.355103	433.160431
1959.564331	417.282074
1958.773315	404.569702
1957.982178	436.103973
1957.191040	436.031281
1956.399658	480.186249
1955.608154	429.568665
1954.816528	420.022827
1954.024780	457.843262
1953.232910	410.411682
1952.440918	457.690521
1951.648682	419.742645
1950.856445	476.470428
1950.063965	447.996765
1949.271484	422.686981
1948.478760	387.924042
1947.685913	435.159241
1946.893066	466.614624
1946.099976	472.841309
1945.306763	406.575653
1944.513428	447.473694
1943.719971	409.590637
1942.926270	434.723633
1942.132568	440.950348
1941.338745	450.324097
1940.544678	418.762970
1939.750610	406.100769
1938.956299	462.688721
1938.161865	459.464447
1937.367310	475.120178
1936.572632	453.019043
1935.777832	437.216187
1934.982910	433.998230
1934.187866	452.792084
1933.392700	421.277802
1932.597290	465.214172
1931.801880	427.422668
1931.006226	490.197021
1930.210571	464.980988
1929.414673	471.185791
1928.618652	439.699890
1927.822510	455.327362
1927.026245	470.949554
1926.229858	483.427399
1925.433350	486.485199
1924.636719	467.575348
1923.839844	451.809357
1923.042969	464.281982
1922.245850	483.023438
1921.448730	454.718750
1920.651367	470.320038
1919.853882	448.296783
1919.056274	451.356232
1918.258545	451.280731
1917.460693	435.538422
1916.662720	476.192535
1915.864624	482.377533
1915.066284	441.583466
1914.267944	457.165955
1913.469360	450.827972
1912.670776	478.924561
1911.871948	472.585022
1911.072998	456.860016
1910.273926	463.040894
1909.474731	491.116547
1908.675415	422.226990
1907.875977	490.952148
1907.076294	472.110626
1906.276611	500.165894
1905.476807	487.580109
1904.676758	478.123505
1903.876587	440.549835
1903.076294	493.583130
1902.275879	477.883362
1901.475342	524.646790
1900.674683	490.212799
1899.873901	533.836609
1899.072998	440.107330
1898.271851	477.483276
1897.470703	474.282990
1896.669312	474.203552
1895.867920	520.912659
1895.066284	477.163361
1894.264526	473.965210
1893.462646	511.297821
1892.660645	504.977844
1891.858521	554.759216
1891.056152	498.576355
1890.253784	489.146057
1889.451172	510.869476
1888.648560	532.585571
1887.845703	529.382263
1887.042725	519.953003
1886.239624	519.865845
1885.436401	479.316864
1884.633057	482.348419
1883.829590	538.272766
1883.025879	485.297516
1882.222168	506.988647
1881.418213	463.365875
1880.614258	472.616089
1879.810059	488.080780
1879.005737	497.323700
1878.201294	503.455780
1877.396729	540.658081
1876.592041	506.393524
1875.787231	521.839478
1874.982178	537.280273
1874.177124	499.928345
1873.371826	574.355408
1872.566406	474.927704
1871.760986	465.537231
1870.955322	490.283569
1870.149536	558.457153
1869.343506	527.343201
1868.537476	533.457642
1867.731323	520.964172
1866.924927	548.780762
1866.118530	502.189575
1865.311890	526.900574
1864.505127	526.812073
1863.698242	508.133331
1862.891235	483.265137
1862.084106	557.519958
1861.276855	576.007141
1860.469482	532.562256
1859.661865	526.281250
1858.854126	554.050110
1858.046387	526.104370
1857.238403	504.356506
1856.430298	513.552795
1855.622070	559.864075
1854.813721	466.990417
1854.005249	550.399475
1853.196533	522.482422
1852.387817	553.305542
1851.578857	568.665344
1850.769775	543.849304
1849.960693	497.414886
1849.151367	497.331238
1848.341919	531.221008
1847.532227	605.243103
1846.722534	521.779968
1845.912720	534.039978
1845.102661	533.950134
1844.292603	509.173126
1843.482300	555.368164
1842.671875	561.444397
1841.861328	570.602966
1841.050659	530.417297
1840.239868	576.577576
1839.428833	551.818237
1838.617798	570.218994
1837.806519	545.469055
1836.995117	508.402496
1836.183716	502.155518
1835.372070	542.113464
1834.560303	569.739197
1833.748291	585.039063
1832.936279	560.311462
1832.124146	563.295227
1831.311768	529.346802
1830.499390	516.949341
1829.686768	566.087280
1828.874023	559.839844
1828.061157	581.274231
1827.248169	541.201233
1826.434937	528.812073
1825.621704	608.646240
1824.808228	556.294983
1823.994751	590.003540
1823.181030	577.614441
1822.367188	583.660950
1821.553223	592.776733
1820.739136	574.251648
1819.924927	543.451355
1819.110474	531.080444
1818.296021	484.951263
1817.481323	564.658142
1816.666626	564.562927
1815.851685	558.332275
1815.036621	585.843323
1814.221436	558.143982
1813.406006	594.844360
1812.590576	582.481262
1811.774902	591.578552
1810.959229	579.220154
1810.143311	554.609314
1809.327271	579.024780
1808.511108	578.927063
1807.694824	600.267578
1806.878418	526.676514
1806.061768	615.372803
1805.245117	587.719604
1804.428223	590.680969
1803.611206	581.401245
1802.794067	532.351257
1801.976807	523.084534
1801.159424	568.873047
1800.341919	571.834961
1799.524170	599.255249
1798.706421	577.755737
1797.888428	568.489014
1797.070313	592.840027
1796.252075	614.127441
1795.433716	577.365601
1794.615234	586.431091
1793.796509	638.246887
1792.977783	577.073120
1792.158813	631.925720
1791.339844	671.498474
1790.520630	601.194763
1789.701294	610.246887
1788.881714	588.788757
1788.062134	600.890076
1787.242432	567.242004
1786.422485	576.293640
1785.602417	582.293579
1784.782349	536.473022
1783.962036	624.763550
1783.141479	603.328125
1782.320923	563.620422
1781.500244	618.354614
1780.679321	578.657715
1779.858398	596.830139
1779.037231	596.729248
1778.215942	590.540283
1777.394531	620.875488
1776.572998	608.598511
1775.751221	593.283203
1774.929443	550.595398
1774.107422	605.248352
1773.285278	611.227844
1772.463013	559.437256
1771.640625	617.100830
1770.818115	580.523743
1769.995483	613.853149
1769.172607	595.519104
1768.349731	595.418335
1767.526611	607.466919
1766.703369	619.511353
1765.880005	598.152405
1765.056519	588.943726
1764.232910	628.302673
1763.409058	606.952942
1762.585083	597.747437
1761.761108	609.781189
1760.936890	655.176270
1760.112549	606.541992
1759.288086	645.857849
1758.463379	572.988098
1757.638672	585.015686
1756.813721	615.223206
1755.988647	615.118958
1755.163574	611.985107
1754.338257	636.114380
1753.512695	623.892212
1752.687134	666.179749
1751.861328	635.791138
1751.035522	662.926941
1750.209473	644.655334
1749.383301	632.441895
1748.557007	635.360229
1747.730591	656.427612
1746.903931	662.365356
1746.077271	677.372986
1745.250366	640.976501
1744.423340	634.821899
1743.596313	583.332642
1742.768921	667.847961
1741.941528	697.948914
1741.114014	607.203247
1740.286255	679.589844
1739.458374	582.838196
1738.630493	637.088074
1737.802368	639.998840
1736.973999	636.871948
1736.145630	612.621216
1735.317139	633.638550
1734.488403	666.716003
1733.659546	684.700684
1732.830566	633.316040
1732.001465	606.071045
1731.172241	636.115906
1730.342896	639.022156
1729.513306	660.009888
1728.683594	674.964050
1727.853882	638.696838
1727.023926	620.515137
1726.193726	647.515076
1725.363525	674.505798
1724.533203	644.284485
1723.702637	632.134460
1722.871948	613.969177
1722.041138	674.047729
1721.210205	634.821045
1720.379150	673.818787
1719.547974	601.521729
1718.716553	631.490479
1717.885010	625.370056
1717.053467	643.300232
1716.221558	640.185364
1715.389648	646.086731
1714.557617	639.967834
1713.725342	642.863098
1712.893066	648.760925
1712.060547	702.704834
1711.227905	699.582886
1710.395142	675.448059
1709.562256	678.334717
1708.729126	669.216492
1707.895874	693.106384
1707.062622	650.989197
1706.229126	695.870117
1705.395508	641.771057
1704.561646	686.638184
1703.727783	734.487976
1702.893677	671.417664
1702.059570	695.278564
1701.225220	680.178406
1700.390747	644.112244
1699.556030	682.942322
1698.721313	643.893066
1697.886353	661.749573
1697.051392	688.581482
1696.216187	685.470947
1695.380859	661.411804
1694.545410	658.306946
1693.709717	673.153870
1692.874023	679.021851
1692.038086	663.952332
1691.202026	711.683594
1690.365845	738.470276
1689.529541	681.548767
1688.692993	726.263855
1687.856445	750.046021
1687.019653	690.163818
1686.182739	696.020752
1685.345703	692.915466
1684.508545	704.742249
1683.671143	665.808289
1682.833740	707.487366
1681.996094	707.366821
1681.158325	707.246277
1680.320435	722.044067
1679.482422	671.207581
1678.644287	703.902161
1677.805908	748.514160
1676.967407	721.552002
1676.128784	697.580139
1675.290039	688.519409
1674.451172	745.023865
1673.612183	724.039734
1672.772949	682.209167
1671.933594	696.985718
1671.094116	723.669495
1670.254517	666.972534
1669.414795	687.698120
1668.574829	717.346252
1667.734863	669.607361
1666.894653	714.126038
1666.054321	654.503845
1665.213867	716.856934
1664.373169	692.942627
1663.532471	752.294312
1662.691528	767.030884
1661.850464	728.257751
1661.009277	731.105469
1660.167969	701.266052
1659.326538	718.972107
1658.484863	709.938049
1657.643066	715.756775
1656.801147	703.756836
1655.959106	700.667786
1655.116943	709.453430
1654.274658	750.883118
1653.432129	738.885315
1652.589478	679.421021
1651.746704	676.338623
1650.903809	685.120789
1650.060791	729.484558
1649.217529	744.184326
1648.374146	735.164124
1647.530640	758.749451
1646.687012	720.096191
1645.843262	690.344604
1644.999390	702.076050
1644.155273	805.620544
1643.311035	737.372192
1642.466675	692.833740
1641.622192	716.397949
1640.777588	707.396057
1639.932739	766.461304
1639.087769	695.319031
1638.242798	715.908264
1637.397461	724.659241
1636.552124	736.364502
1635.706665	753.979309
1634.860962	736.112732
1634.015137	765.544556
1633.169189	721.084656
1632.323120	647.092346
1631.476929	762.197571
1630.630493	700.038513
1629.783936	750.123901
1628.937256	723.420898
1628.090454	741.010559
1627.243530	720.221680
1626.396484	749.610718
1625.549194	749.482422
1624.701782	784.756714
1623.854248	719.728821
1623.006592	749.097717
1622.158691	784.353882
1621.310791	734.100342
1620.462646	784.085388
1619.614380	739.743408
1618.765991	730.776733
1617.917358	807.252136
1617.068726	739.363525
1616.219849	789.304749
1615.370850	765.612244
1614.521729	774.313599
1613.672363	777.124695
1612.822998	756.389526
1611.973389	738.604065
1611.123657	814.973267
1610.273804	697.168091
1609.423828	738.224548
1608.573608	729.276184
1607.723389	740.911743
1606.872925	773.120605
1606.022339	723.023132
1605.171509	758.162598
1604.320679	743.342041
1603.469604	754.965088
1602.618408	766.584106
1601.767090	795.818665
1600.915649	798.618347
1600.064087	807.288208
1599.212280	780.734009
1598.360352	762.992615
1597.508301	762.861755
1596.656128	753.930176
1595.803833	756.733948
1594.951294	794.727661
1594.098633	765.270630
1593.245850	779.797180
1592.392944	706.386780
1591.539795	767.807373
1590.686646	799.906311
1589.833252	761.684814
1588.979736	752.766968
1588.126099	755.566345
1587.272217	758.364685
1586.418335	749.451904
1585.564209	761.031433
1584.709961	725.782349
1583.855591	807.586853
1583.000977	778.192810
1582.146362	763.434021
1581.291504	775.001099
1580.436523	751.475769
1579.581421	754.270264
1578.726074	719.064453
1577.870605	754.011230
1577.015137	786.023987
1576.159424	785.888977
1575.303467	800.359070
1574.447510	768.095886
1573.591309	765.043884
1572.734985	779.510010
1571.878540	782.295105
1571.021973	750.057068
1570.165161	761.600220
1569.308350	778.974365
1568.451294	778.840515
1567.594116	778.706604
1566.736694	836.892822
1565.879272	763.861450
1565.021606	722.920105
1564.163818	749.026306
1563.305908	751.811523
1562.447876	740.028259
1561.589600	760.291992
1560.731201	777.636230
1559.872681	780.414490
1559.014038	815.218140
1558.155273	785.968018
1557.296265	742.175415
1556.437134	811.887573
1555.577881	741.920105
1554.718506	788.336304
1553.859009	767.841248
1552.999268	805.512939
1552.139404	840.264221
1551.279419	784.886841
1550.419312	776.032288
1549.558960	816.582520
1548.698608	740.899292
1547.838013	807.586487
1546.977173	795.829529
1546.116333	818.924377
1545.255249	798.458984
1544.394165	795.418518
1543.532837	777.866638
1542.671265	766.124695
1541.809692	815.318054
1540.947876	783.266785
1540.085938	809.236267
1539.223877	838.096741
1538.361694	750.967712
1537.499268	814.616089
1536.636841	840.562134
1535.774170	820.131409
1534.911377	851.862488
1534.048340	808.260803
1533.185303	837.086426
1532.322021	897.758057
1531.458618	833.902405
1530.594971	932.188538
1529.731323	839.403992
1528.867432	873.987244
1528.003418	894.091064
1527.139282	925.759888
1526.275024	838.825256
1525.410522	861.816589
1524.545898	852.993469
1523.681152	878.865417
1522.816284	844.027771
1521.951172	809.202087
1521.086060	806.172974
1520.220703	858.036133
1519.355225	779.898254
1518.489502	759.547607
1517.623779	822.941895
1516.757813	819.912842
1515.891724	811.111816
1515.025513	790.769714
1514.159058	781.976685
1513.292480	830.887085
1512.425781	830.743713
1511.558960	853.672546
1510.692017	761.252136
1509.824829	830.313538
1508.957520	844.582825
1508.090088	844.437012
1507.222534	812.594238
1506.354736	835.502258
1505.486938	786.388733
1504.618896	792.013000
1503.750610	835.069458
1502.882324	843.562317
1502.013794	797.359741
1501.145142	851.905090
1500.276367	857.513000
1499.407471	802.700623
1498.538330	802.561951
1497.669067	802.423279
1496.799683	793.657898
1495.930176	836.646851
1495.060547	827.878479
1494.190674	842.105774
1493.320679	830.465881
1492.450562	836.068481
1491.580200	907.738708
1490.709717	827.163147
1489.839233	821.276917
1488.968384	824.005981
1488.097534	875.534363
1487.226440	855.292175
1486.355347	777.664734
1485.483887	803.352295
1484.612427	840.505371
1483.740845	851.832458
1482.869019	791.464905
1481.997070	891.677551
1481.124878	905.856445
1480.252686	842.644653
1479.380249	871.155273
1478.507690	859.543884
1477.635010	908.094238
1476.762207	882.159668
1475.889160	982.234985
1475.015991	864.675293
1474.142700	904.602905
1473.269165	895.859802
1472.395630	947.214844
1471.521851	947.050842
1470.647949	1038.428833
1469.773804	989.625732
1468.899658	1023.770691
1468.025269	1026.452515
1467.150757	1109.177124
1466.276001	1226.171631
1465.401245	1231.674561
1464.526245	1300.034424
1463.651123	1414.078125
1462.775879	1453.820313
1461.900391	1530.673218
1461.024780	1630.341309
1460.149048	1704.282104
1459.273193	1855.261963
1458.397217	1766.473999
1457.520996	1788.993896
1456.644653	1763.008911
1455.768188	1691.396484
1454.891479	1656.881958
1454.014648	1585.312622
1453.137695	1533.723511
1452.260620	1539.158081
1451.383423	1436.298462
1450.505981	1467.391724
1449.628418	1387.370483
1448.750732	1264.652222
1447.872803	1292.911133
1446.994873	1230.045654
1446.116699	1187.129761
1445.238403	1144.228638
1444.359863	1152.567627
1443.481201	1166.594360
1442.602417	1100.960205
1441.723511	1120.679688
1440.844482	1117.641235
1439.965210	1080.483398
1439.085815	1139.996460
1438.206299	1199.488647
1437.326538	1258.960327
1436.446777	1287.155762
1435.566772	1210.227661
1434.686646	1283.868408
1433.806274	1323.404297
1432.925781	1257.867554
1432.045166	1189.514648
1431.164429	1138.216064
1430.283569	1035.852051
1429.402466	1038.509644
1428.521240	1024.144409
1427.639893	967.237000
1426.758301	961.396973
1425.876709	932.875061
1424.994873	912.867981
1424.112793	895.702332
1423.230713	881.376648
1422.348389	855.721802
1421.465942	861.239075
1420.583374	897.912292
1419.700562	869.435791
1418.817627	945.736389
1417.934570	832.329834
1417.051392	840.676758
1416.167969	868.831299
1415.284546	874.339355
1414.400757	826.092834
1413.516968	899.492554
1412.633057	890.851807
1411.748901	913.317749
1410.864624	814.209717
1409.980103	904.520081
1409.095459	856.318481
1408.210815	904.205383
1407.325806	850.370178
1406.440796	855.871521
1405.555542	844.425903
1404.670166	847.102600
1403.784668	894.949280
1402.899048	812.935425
1402.013184	942.615173
1401.127197	809.830688
1400.241089	899.968689
1399.354736	840.576721
1398.468262	919.396973
1397.581665	905.138123
1396.694946	916.257507
1395.807983	887.910339
1394.920898	856.754639
1394.033691	912.961060
1393.146362	867.725403
1392.258789	901.375793
1391.371094	895.586121
1390.483276	926.404114
1389.595337	923.427368
1388.707153	852.895508
1387.818848	824.603394
1386.930420	891.992249
1386.041748	925.597168
1385.152954	928.248718
1384.264038	916.837341
1383.375000	880.122864
1382.485718	922.140503
1381.596313	941.656128
1380.706787	930.250244
1379.817139	935.707886
1378.927246	969.258057
1378.037231	924.145752
1377.147095	1005.429993
1376.256714	968.750977
1375.366333	982.619446
1374.475586	996.482971
1373.584839	985.083130
1372.693970	1021.389465
1371.802856	1009.989136
1370.911499	942.492004
1370.020142	1048.900269
1369.128540	1068.345703
1368.236816	970.034363
1367.344971	958.652710
1366.453003	1008.931946
1365.560791	991.943237
1364.668457	1053.405518
1363.775879	1056.022705
1362.883301	1061.439575
1361.990479	1066.854492
1361.097534	1133.859985
1360.204346	1178.448608
1359.311035	1239.813599
1358.417603	1245.193481
1357.524048	1155.449585
1356.630249	1169.233765
1355.736450	1076.737671
1354.842285	1163.232788
1353.948120	1062.382813
1353.053711	1095.740234
1352.159180	1025.679565
1351.264526	989.174683
1350.369751	983.414246
1349.474731	1000.002197
1348.579590	1005.413025
1347.684204	991.275635
1346.788818	999.477844
1345.893188	979.763672
1344.997314	996.337524
1344.101440	1007.324829
1343.205322	970.880127
1342.309082	1079.496826
1341.412720	1009.585327
1340.516113	1067.965576
1339.619385	1028.747803
1338.722534	1078.741821
1337.825439	1031.174805
1336.928223	1050.499756
1336.030884	1136.681396
1335.133423	1172.693970
1334.235718	1191.983887
1333.337891	1289.233521
1332.439941	1308.496094
1331.541870	1391.773560
1330.643555	1480.587769
1329.745117	1619.457275
1328.846436	1613.609619
1327.947754	1724.591064
1327.048828	1671.447998
1326.149780	1518.220947
1325.250488	1504.054443
1324.351074	1345.350952
1323.451538	1297.869629
1322.551880	1111.470947
1321.651978	1127.945313
1320.751953	1127.747803
1319.851807	1077.560303
1318.951416	1016.283447
1318.050903	1027.210327
1317.150269	1038.133423
1316.249512	1043.502075
1315.348511	979.499146
1314.447388	946.035889
1313.546021	1009.667786
1312.644653	995.624207
1311.743042	964.948425
1310.841309	942.600464
1309.939331	1042.222412
1309.037231	939.498596
1308.135010	950.417419
1307.232666	969.643677
1306.330078	977.783386
1305.427368	1002.536865
1304.524536	1013.436890
1303.621460	980.037476
1302.718262	985.401550
1301.814941	960.321228
1300.911499	1012.725952
1300.007813	973.816956
1299.104004	1028.966919
1298.199951	959.647461
1297.295898	945.653748
1296.391602	978.662781
1295.487061	1036.537109
1294.582520	1047.409668
1293.677734	986.436951
1292.772827	955.874695
1291.867676	980.566345
1290.962402	966.585815
1290.057007	924.998230
1289.151489	902.750183
1288.245728	880.509949
1287.339844	899.673462
1286.433838	869.163696
1285.527588	885.563599
1284.621216	874.374939
1283.714722	956.955261
1282.808105	896.126282
1281.901245	862.886902
1280.994263	807.608459
1280.087036	832.269287
1279.179810	895.496643
1278.272217	804.427917
1277.364624	881.409912
1276.456787	897.778503
1275.548828	842.551941
1274.640747	878.192261
1273.732544	850.513184
1272.824097	855.867615
1271.915405	795.184082
1271.006714	797.795288
1270.097778	888.422607
1269.188721	814.015015
1268.279541	841.367554
1267.370117	832.972290
1266.460571	816.334229
1265.550781	857.412354
1264.640991	777.580139
1263.730957	840.627808
1262.820679	898.159912
1261.910400	840.332031
1260.999878	900.589539
1260.089233	809.838928
1259.178345	809.696411
1258.267334	806.809631
1257.356201	839.592834
1256.444824	844.931641
1255.533447	877.696472
1254.621704	874.799683
1253.709961	874.645630
1252.797974	896.422485
1251.885864	819.520264
1250.973633	879.664429
1250.061157	884.989319
1249.148560	865.657532
1248.235840	873.721863
1247.322876	832.491089
1246.409790	848.772278
1245.496582	823.985352
1244.583130	810.155090
1243.669556	785.383606
1242.755859	826.285889
1241.841919	724.924438
1240.927856	831.464844
1240.013672	836.787537
1239.099365	776.489441
1238.184814	773.618958
1237.270142	798.080933
1236.355225	803.405579
1235.440186	811.460510
1234.525024	814.049133
1233.609741	843.949097
1232.694214	838.338806
1231.778564	816.348816
1230.862671	887.179199
1229.946777	867.917603
1229.030640	867.764526
1228.114258	815.773010
1227.197876	840.179810
1226.281128	834.576843
1225.364380	886.240540
1224.447388	924.253967
1223.530273	948.624207
1222.613037	910.300537
1221.695557	970.089172
1220.777954	1046.203613
1219.860229	1016.054871
1218.942261	1143.881226
1218.024170	1051.095825
1217.105957	1061.800415
1216.187500	1048.002563
1215.268921	955.282959
1214.350220	976.883240
1213.431274	900.532776
1212.512207	946.616455
1211.593018	862.139099
1210.673706	908.213257
1209.754150	899.896667
1208.834351	858.964050
1207.914551	823.481445
1206.994507	793.445862
1206.074219	834.057617
1205.153931	831.193909
1204.233398	817.467834
1203.312744	836.330872
1202.391846	876.906250
1201.470825	773.604065
1200.549683	838.601379
1199.628296	871.014404
1198.706787	881.712280
1197.785156	840.869141
1196.863281	827.160461
1195.941284	851.417908
1195.019165	900.066101
1194.096802	772.510437
1193.174438	807.604858
1192.251709	788.494812
1191.328979	828.992188
1190.406006	831.554199
1189.482788	804.325378
1188.559570	787.936951
1187.636108	806.747986
1186.712402	814.725403
1185.788696	811.875000
1184.864746	871.258240
1183.940552	857.577576
1183.016357	868.245056
1182.091919	835.639343
1181.167236	821.972107
1180.242554	862.377258
1179.317505	827.086853
1178.392456	799.916199
1177.467163	875.428894
1176.541748	875.273865
1175.616211	875.118835
1174.690430	864.161804
1173.764526	901.809143
1172.838501	936.743530
1171.912231	977.063660
1170.985840	990.383484
1170.059204	1041.472168
1169.132446	1108.728516
1168.205566	1184.052490
1167.278564	1159.572510
1166.351318	1153.974609
1165.423828	1110.638550
1164.496338	1107.746338
1163.568604	1064.433716
1162.640747	1031.913452
1161.712646	1053.281006
1160.784424	1047.707642
1159.856079	1087.914673
1158.927490	1028.489380
1157.998779	1063.301758
1157.069946	1087.336060
1156.140869	1084.452148
1155.211670	1103.093140
1154.282349	1234.707153
1153.352783	1269.451782
1152.423096	1371.410034
1151.493164	1400.740967
1150.563232	1373.611572
1149.632935	1319.615601
1148.702637	1273.700195
1147.772095	1168.694580
1146.841431	1093.274170
1145.910522	1060.851685
1144.979492	1044.552002
1144.048340	977.247925
1143.116943	955.600281
1142.185425	901.754700
1141.253784	963.310913
1140.321899	866.557556
1139.389893	887.862549
1138.457764	858.204102
1137.525391	841.963196
1136.592896	882.027649
1135.660278	889.912354
1134.727417	846.874573
1133.794434	844.044556
1132.861206	830.499451
1131.927856	752.673767
1130.994385	824.848145
1130.060669	824.701538
1129.126831	859.357605
1128.192871	786.935303
1127.258667	872.433044
1126.324341	783.979858
1125.389893	813.267944
1124.455200	853.244568
1123.520386	821.001587
1122.585327	802.138977
1121.650146	847.442810
1120.714844	772.452454
1119.779297	780.332153
1118.843628	796.224731
1117.907837	814.783020
1116.971802	852.031311
1116.035645	769.095154
1115.099365	849.058167
1114.162842	787.508118
1113.226196	760.677551
1112.289307	792.565002
1111.352417	859.126343
1110.415161	832.297180
1109.477905	845.484802
1108.540405	898.667664
1107.602661	866.513367
1106.664917	871.690491
1105.726807	786.247437
1104.788696	868.715332
1103.850342	801.953247
1102.911865	879.061279
1101.973145	796.340942
1101.034302	878.748169
1100.095337	793.394897
1099.156128	867.787415
1098.216797	769.159180
1097.277344	795.631897
1096.337646	840.718689
1095.397827	856.529053
1094.457764	805.844910
1093.517700	789.746765
1092.577271	778.971619
1091.636841	834.653564
1090.696167	781.351624
1089.755249	759.954834
1088.814209	807.640137
1087.873047	780.933777
1086.931763	722.367737
1085.990234	783.310608
1085.048584	812.373901
1084.106689	814.883362
1083.164673	772.276123
1082.222412	732.337402
1081.280151	764.041870
1080.337524	777.167847
1079.394897	774.377197
1078.452026	837.875122
1077.509033	795.309143
1076.565796	784.565002
1075.622437	810.925842
1074.678955	818.729919
1073.735229	776.197571
1072.791382	829.032349
1071.847290	794.457886
1070.903076	804.906921
1069.958740	738.582031
1069.014160	812.559875
1068.069458	778.012878
1067.124512	788.457275
1066.179565	801.543213
1065.234253	801.400085
1064.288940	822.412231
1063.343384	824.909302
1062.397583	811.544617
1061.451660	819.328613
1060.505615	776.901855
1059.559448	826.962036
1058.613037	792.473755
1057.666382	763.279907
1056.719727	784.268616
1055.772827	855.412842
1054.825684	828.863037
1053.878418	820.797241
1052.931030	791.624268
1051.983398	854.801392
1051.035645	778.152222
1050.087769	822.847778
1049.139648	841.158630
1048.191406	883.190491
1047.242920	875.124756
1046.294312	882.874573
1045.345581	956.495972
1044.396606	937.883362
1043.447510	964.055908
1042.498291	992.852661
1041.548828	984.775757
1040.599121	968.803833
1039.649414	1037.066284
1038.699341	994.773865
1037.749268	955.127747
1036.798950	981.264160
1035.848511	999.500366
1034.897827	1051.917358
1033.947021	980.737305
1032.996094	920.098145
1032.044922	898.906372
1031.093506	888.233765
1030.142090	838.153381
1029.190430	885.288757
1028.238525	890.383179
1027.286499	806.190796
1026.334351	879.562012
1025.381958	861.028870
1024.429443	834.628418
1023.476807	884.337708
1022.523926	860.566162
1021.570923	870.904785
1020.617737	849.766846
1019.664368	867.970398
1018.710815	802.269958
1017.757080	833.582092
1016.803223	804.603210
1015.849121	820.181335
1014.894897	809.554626
1013.940491	806.790039
1012.985962	824.978210
1012.031189	824.830261
1011.076294	843.008667
1010.121216	837.622314
1009.165955	850.557617
1008.210510	902.737671
1007.254944	818.858582
1006.299133	839.637207
1005.343201	907.482361
1004.387085	852.409729
1003.430786	894.085327
1002.474365	935.745972
1001.517700	985.231628
1000.560913	1021.635132
999.603943	1118.110840
998.646790	1144.029541
997.689514	1120.320923
996.731995	1070.510864
995.774353	1036.381714
994.816528	1030.975464
993.858521	968.160095
992.900330	983.640991
991.942017	907.813232
990.983459	881.568298
990.024780	917.918091
989.065918	818.677551
988.106873	886.306946
987.147705	813.170837
986.188293	841.689087
985.228760	891.040100
984.269043	825.757141
983.309143	854.257690
982.349060	833.272339
981.388794	861.761169
980.428406	822.560669
979.467834	921.310547
978.507019	913.338623
977.546082	986.020264
976.585022	978.039490
975.623718	1063.686768
974.662292	1138.902344
973.700623	1159.495605
972.738831	1146.290649
971.776855	1161.677368
970.814758	1195.247192
969.852417	1093.714233
968.889954	1036.374023
967.927246	966.069641
966.964417	903.580017
966.001404	872.265076
965.038208	885.085938
964.074890	877.141357
963.111328	843.253357
962.147644	850.884094
961.183777	871.480469
960.219727	845.391357
959.255493	850.424683
958.291077	806.202637
957.326538	899.363159
956.361755	839.599976
955.396851	839.448792
954.431763	844.478455
953.466492	846.916321
952.501038	823.458374
951.535461	846.611267
950.569641	856.812988
949.603699	841.130066
948.637573	812.514648
947.671265	846.001343
946.704773	858.782349
945.738098	817.247986
944.771240	886.916260
943.804260	948.803467
942.837097	904.690369
941.869751	912.280396
940.902222	999.968445
939.934509	1035.956177
938.966614	1002.190918
937.998535	978.767700
937.030334	934.696594
936.061951	916.457031
935.093323	880.156311
934.124573	820.642883
933.155640	820.494873
932.186584	864.201904
931.217285	820.198914
930.247864	827.787231
929.278198	840.529419
928.308411	861.000549
927.338440	850.535645
926.368286	796.266907
925.397949	832.193542
924.427429	852.651245
923.456787	878.252502
922.485901	816.292664
921.514893	805.846924
920.543701	844.313293
919.572327	826.145264
918.600769	841.435242
917.629028	877.301514
916.657104	856.564941
915.685059	884.700073
914.712769	858.826904
913.740356	817.537781
912.767761	835.382996
911.794983	855.791626
910.822021	919.874023
909.848877	855.482361
908.875549	863.033447
907.902039	880.854126
906.928406	862.721558
905.954590	857.431274
904.980530	908.610229
904.006348	877.651184
903.031982	903.150208
902.057434	900.421631
901.082703	925.907227
900.107849	961.641052
899.132751	992.234131
898.157532	910.024353
897.182068	940.615540
896.206482	922.507751
895.230713	917.216797
894.254761	870.942139
893.278625	847.734436
892.302307	847.581055
891.325806	844.867493
890.349182	888.230225
889.372314	788.257629
888.395325	869.997009
887.418091	874.956299
886.440735	887.587341
885.463196	828.605896
884.485474	874.481201
883.507568	805.297424
882.529480	825.599915
881.551270	899.562073
880.572815	914.729797
879.594238	896.681641
878.615417	873.531555
877.636475	835.067505
876.657349	857.895569
875.677979	888.373779
874.698486	803.985718
873.718811	888.051880
872.739014	885.339600
871.758972	892.831970
870.778748	879.917786
869.798401	918.008667
868.817810	892.346680
867.837097	892.184937
866.856140	902.217712
865.875061	909.698730
864.893799	881.508911
863.912354	899.179871
862.930725	955.046204
861.948914	924.317078
860.966919	901.236694
859.984741	929.072693
859.002441	951.808655
858.019897	936.369141
857.037231	938.743286
856.054321	989.444153
855.071289	974.006042
854.088074	981.457214
853.104614	1019.411743
852.121033	978.559326
851.137268	1039.371826
850.153320	1021.397644
849.169189	1051.696167
848.184937	1059.124878
847.200439	1122.417725
846.215759	1172.992920
845.230896	1228.626587
844.245911	1296.930176
843.260681	1583.439209
842.275330	1710.006836
841.289795	1849.211548
840.304016	1876.773682
839.318115	1734.432373
838.332031	1521.155640
837.345764	1343.443359
836.359314	1257.031738
835.372681	1264.405029
834.385864	1175.505615
833.398865	1190.489746
832.411743	1144.688477
831.424377	1083.711548
830.436829	1086.046143
829.449158	1154.188843
828.461243	1088.182007
827.473206	1024.729248
826.484924	1022.013245
825.496521	1054.708008
824.507935	1082.333130
823.519104	1046.739380
822.530151	985.879456
821.541016	1043.831177
820.551697	1023.425537
819.562195	1000.500671
818.572510	1096.308838
817.582642	1030.443848
816.592590	1123.686523
815.602356	1151.253418
814.611938	1085.414307
813.621399	1218.976074
812.630615	1337.349243
811.639648	1470.816406
810.648560	1710.175049
809.657227	2055.367188
808.665771	2077.686035
807.674072	2102.517822
806.682251	1812.272339
805.690186	1605.295166
804.697998	1456.344849
803.705566	1292.333618
802.713013	1146.013062
801.720276	1118.103516
800.727356	1065.026245
799.734253	1064.832153
798.740906	1099.874390
797.747437	1041.796509
796.753784	1029.026855
795.759949	1041.416748
794.765930	955.715637
793.771729	1020.920593
792.777344	985.536743
791.782776	927.542786
790.788025	1007.796326
789.793091	997.561646
788.798035	952.158508
787.802734	881.653564
786.807251	981.947754
785.811584	991.812378
784.815796	928.869995
783.819763	936.230591
782.823547	943.588440
781.827148	878.180115
780.830627	928.192444
779.833862	902.941406
778.836975	925.346069
777.839844	912.640930
776.842529	904.953979
775.845093	889.750793
774.847412	912.141357
773.849609	942.039978
772.851563	906.798462
771.853394	906.632935
770.854980	906.467407
769.856445	873.755127
768.857666	846.061035
767.858765	923.489685
766.859680	900.801025
765.860352	883.124146
764.860901	910.477234
763.861206	920.314331
762.861389	920.146240
761.861389	884.978943
760.861145	899.814209
759.860779	914.643921
758.860168	901.983948
757.859436	924.302124
756.858521	919.137878
755.857361	931.455933
754.856079	943.769409
753.854614	956.078308
752.852905	893.507751
751.851074	928.279602
750.848999	935.594666
749.846802	895.512207
748.844421	965.180603
747.841797	940.068604
746.839050	909.979492
745.836121	932.246826
744.832947	942.045044
743.829651	944.364441
742.826111	946.682922
741.822449	926.583191
740.818604	923.923279
739.814514	973.552307
738.810303	943.500793
737.805847	933.372131
736.801270	910.804443
735.796448	930.542419
734.791504	940.322571
733.786316	915.278687
732.781006	910.137695
731.775452	954.723755
730.769775	962.006348
729.763855	912.123169
728.757751	936.805054
727.751526	986.322266
726.745056	981.173645
725.738403	943.740967
724.731628	938.601929
723.724609	940.912598
722.717407	923.365051
721.710083	848.744568
720.702515	920.545410
719.694763	927.819153
718.686829	900.365295
717.678711	912.599731
716.670410	912.432434
715.661987	942.012939
714.653320	949.275818
713.644470	914.408752
712.635437	939.017273
711.626221	983.434082
710.616821	928.766113
709.607178	985.549622
708.597412	992.796265
707.587463	898.550964
706.577332	940.459351
705.567017	960.082336
704.556458	972.276123
703.545776	962.203613
702.534912	934.823181
701.523804	966.795715
700.512573	902.341919
699.501099	929.365173
698.489502	968.734741
697.477661	973.498535
696.465698	936.264526
695.453491	950.912048
694.441101	938.390198
693.428589	901.182983
692.415833	960.262512
691.402893	910.724365
690.389771	935.233459
689.376465	939.996033
688.362976	957.090515
687.349304	912.521729
686.335449	904.956604
685.321411	986.147522
684.307190	889.834595
683.292725	1015.358704
682.278137	990.531982
681.263367	997.740662
680.248352	1059.134888
679.233215	1086.029297
678.217834	1004.577148
677.202332	1029.009888
676.186584	957.443237
675.170654	969.571411
674.154541	969.393127
673.138306	954.455261
672.121826	922.306396
671.105164	1020.498047
670.088318	929.342896
669.071289	946.378845
668.054016	921.627991
667.036621	965.688477
666.019043	945.856628
665.001282	1034.109985
663.983276	972.523071
662.965149	955.156189
661.946777	932.885742
660.928223	954.804626
659.909546	934.996399
658.890625	998.618103
657.871521	949.371155
656.852234	954.101746
655.832764	953.926086
654.813110	1017.497192
653.793274	931.512634
652.773254	958.300964
651.752991	943.421753
650.732605	948.147949
649.711975	945.523804
648.691223	984.535034
647.670227	967.213196
646.649048	949.897644
645.627747	1050.079956
644.606201	976.467773
643.584473	1015.437195
642.562561	973.661499
641.540466	983.265747
640.518127	992.866455
639.495667	992.683411
638.473022	965.609985
637.450134	1068.085449
636.427063	977.472351
635.403870	928.427490
634.380432	969.783508
633.356812	998.912598
632.333008	959.658264
631.309021	974.129822
630.284851	991.036987
629.260498	959.127319
628.235901	939.429688
627.211182	1019.764038
626.186218	992.744934
625.161133	997.439209
624.135803	982.625427
623.110291	906.871460
622.084595	957.888977
621.058716	1064.936890
620.032654	923.424683
619.006409	1001.207031
617.979919	1001.022156
616.953308	1032.494019
615.926453	978.740417
614.899414	995.599243
613.872253	985.680237
612.844849	1039.031372
611.817261	1036.406616
610.789490	963.242249
609.761475	965.496277
608.733337	975.044006
607.705017	945.690857
606.676453	1030.588257
605.647705	1044.978882
604.618774	1022.918091
603.589722	981.431152
602.560425	1000.680420
601.530884	1036.921265
600.501221	1000.310486
599.471375	1041.392822
598.441284	1070.324829
597.411011	1016.741821
596.380615	1011.701538
595.349976	1072.156738
594.319153	1028.304077
593.288147	982.042664
592.256897	1018.226257
591.225525	1020.461731
590.193970	991.191528
589.162170	1032.199219
588.130188	1056.233765
587.098022	1068.148804
586.065674	1053.421143
585.033142	1009.644409
584.000427	968.304565
582.967468	1018.951904
581.934387	1038.122192
580.901062	1052.446411
579.867554	1057.089478
578.833862	1037.545654
577.799988	1071.206543
576.765930	1068.590454
575.731628	983.791321
574.697205	1029.526978
573.662537	1007.589722
572.627747	1077.462280
571.592712	1033.785645
570.557434	1043.253906
569.522034	992.356262
568.486450	1023.554932
567.450623	1033.019653
566.414673	1020.762390
565.378479	1054.351074
564.342102	1003.498230
563.305542	1044.312988
562.268799	1048.942017
561.231812	1002.940186
560.194702	1063.015869
559.157349	1098.969116
558.119812	1093.946167
557.082092	1040.742432
556.044189	1112.809814
555.006042	1059.622192
553.967773	1052.202271
552.929260	1054.414429
551.890625	1049.405029
550.851746	1066.055420
549.812683	1046.609619
548.773376	1075.281982
547.733948	1103.943726
546.694275	1021.980347
545.654419	1108.342285
544.614441	1055.253662
543.574158	1047.847900
542.533752	1083.696411
541.493164	1114.726807
540.452332	1020.842468
539.411316	1131.123535
538.370178	1145.319946
537.328735	1123.501465
536.287170	1118.492432
535.245422	1118.284546
534.203430	1149.267822
533.161255	1105.874756
532.118896	1168.028076
531.076355	1158.219238
530.033630	1167.593994
528.990723	1179.362427
527.947571	1119.227417
526.904236	1205.282104
525.860718	1219.432495
524.817017	1137.765747
523.773132	1135.159302
522.729004	1182.836426
521.684692	1175.434570
520.640198	1153.674316
519.595520	1148.673584
518.550659	1091.036987
517.505615	1090.833984
516.460327	1076.280762
515.414856	1119.123657
514.369202	1051.971802
513.323364	1032.652832
512.277283	1068.310059
511.231079	1089.616821
510.184631	1106.137573
509.138000	1017.552673
508.091187	1062.738647
507.044159	1010.010681
505.996948	1038.470093
504.949554	1045.437256
503.901947	999.901062
502.854126	1006.872742
501.806152	1114.033203
500.757965	1094.745239
499.709564	1092.156616
