#Wave		#Intensity
3200.600830	4.209852
3200.007080	37.888672
3199.413086	42.092159
3198.819092	8.417160
3198.224854	29.455606
3197.630615	29.451153
3197.036377	12.620015
3196.442139	21.030178
3195.847656	8.410800
3195.252930	0.000000
3194.658447	37.837154
3194.063721	37.831436
3193.468750	12.608572
3192.873779	50.426659
3192.278809	12.604758
3191.683838	12.602853
3191.088623	29.402208
3190.493164	46.196484
3189.897949	25.194271
3189.302490	25.190460
3188.706787	25.186649
3188.111328	0.000000
3187.515381	37.768547
3186.919678	46.154572
3186.323730	33.561882
3185.727783	29.362206
3185.131592	16.775864
3184.535400	58.706638
3183.939209	16.770788
3183.342773	16.768250
3182.746338	33.531425
3182.149902	12.572381
3181.553223	29.331116
3180.956543	8.379050
3180.359619	33.511131
3179.762695	0.000000
3179.165771	25.125738
3178.568604	37.682903
3177.971436	25.118132
3177.374268	33.485771
3176.776855	37.665791
3176.179443	37.660088
3175.581787	4.183821
3174.984131	12.549562
3174.386475	20.912767
3173.788574	16.727680
3173.190674	25.087721
3172.592773	58.529152
3171.994629	41.800205
3171.396484	8.358774
3170.798340	0.000000
3170.199951	45.959332
3169.601563	62.662323
3169.002930	20.884277
3168.404297	54.290894
3167.805664	-4.175590
3167.206787	50.099487
3166.607910	20.871622
3166.008789	50.084305
3165.409912	29.211416
3164.810547	29.206989
3164.211426	41.717949
3163.612061	16.684650
3163.012695	33.364243
3162.413086	33.359184
3161.813477	8.338532
3161.213623	33.349072
3160.614014	58.352032
3160.013916	54.175816
3159.414063	41.667385
3158.813965	29.162746
3158.213867	37.489277
3157.613525	45.813278
3157.013184	20.821060
3156.412598	49.962967
3155.812256	24.977694
3155.211426	8.324636
3154.610840	16.646746
3154.010010	16.644220
3153.409180	37.443817
3152.808105	4.159793
3152.207031	16.636648
3151.605957	45.743839
3151.004639	4.157900
3150.403320	45.729961
3149.801758	70.662857
3149.200195	16.624031
3148.598633	33.243019
3147.996826	24.928480
3147.395020	24.924696
3146.793213	16.613943
3146.191162	12.458566
3145.589111	33.217800
3144.986816	37.364353
3144.384766	29.056753
3143.782227	45.653679
3143.179932	20.748522
3142.577393	45.639820
3141.974609	58.078224
3141.371826	-8.295630
3140.769043	66.354958
3140.166260	53.905220
3139.563232	0.000000
3138.960205	37.307667
3138.356934	45.591331
3137.753662	29.008261
3137.150391	16.573631
3136.546875	62.141678
3135.943359	33.137196
3135.339600	8.283040
3134.735840	41.408909
3134.132080	45.542881
3133.528076	0.000000
3132.924072	53.807053
3132.320068	33.107002
3131.715820	28.964224
3131.111572	24.822706
3130.507080	4.136489
3129.902588	8.271721
3129.298096	12.405696
3128.693604	28.942225
3128.088867	41.339752
3127.483887	8.266693
3126.878906	20.663591
3126.273926	28.924631
3125.668945	45.446083
3125.063721	45.439175
3124.458252	28.911442
3123.853027	61.943672
3123.247559	41.289501
3122.641846	24.769936
3122.036133	33.021557
3121.430420	41.270672
3120.824707	57.770153
3120.218750	-4.125812
3119.612549	33.001476
3119.006592	24.747341
3118.400391	32.991436
3117.793945	49.479630
3117.187500	4.122675
3116.581055	4.122048
3115.974609	4.121421
3115.367920	32.966351
3114.760986	12.360501
3114.154297	24.717241
3113.547363	28.832394
3112.940186	0.000000
3112.333008	16.470640
3111.725830	32.936264
3111.118408	20.582033
3110.510986	32.926243
3109.903564	37.036385
3109.295898	28.801691
3108.688232	53.480713
3108.080566	12.339825
3107.472656	32.901188
3106.864746	24.672134
3106.256592	8.222793
3105.648438	24.664623
3105.040039	32.881157
3104.431885	24.657112
3103.823486	36.980038
3103.214844	16.433069
3102.606201	-4.107642
3101.997559	24.642096
3101.388672	24.638344
3100.779785	32.846123
3100.170898	45.156536
3099.561768	32.836117
3098.952637	8.207778
3098.343262	32.826111
3097.733887	4.102639
3097.124512	24.612083
3096.514893	53.318054
3095.905273	12.302292
3095.295410	61.502087
3094.685791	20.497572
3094.075684	20.494448
3093.465820	20.491323
3092.855713	12.292921
3092.245361	24.582094
3091.635254	36.867519
3091.024658	28.670368
3090.414307	32.761139
3089.803711	32.756145
3089.193115	53.220623
3088.582275	57.305779
3087.971436	16.370583
3087.360596	24.552130
3086.749512	28.639784
3086.138428	16.363096
3085.527100	20.450750
3084.915771	32.716209
3084.304443	4.088902
3083.692871	53.147625
3083.081299	16.350622
3082.469482	28.609224
3081.857910	57.209721
3081.245850	28.600496
3080.634033	8.170323
3080.021973	28.591770
3079.409668	16.335661
3078.797607	16.333170
3078.185059	32.661354
3077.572754	20.410231
3076.960205	61.221352
3076.347656	36.727203
3075.734863	40.801777
3075.122070	36.715996
3074.509033	28.552526
3073.895996	24.469858
3073.282959	65.242996
3072.669922	-8.154130
3072.056641	-4.076442
3071.443115	44.834023
3070.829834	16.300791
3070.216064	48.894909
3069.602539	24.443722
3068.988770	8.146663
3068.375000	28.508966
3067.760986	32.576698
3067.146973	-4.071465
3066.532715	56.991814
3065.918701	12.210666
3065.304199	20.348001
3064.689941	0.000000
3064.075439	12.205071
3063.460693	32.541885
3062.846191	8.134229
3062.231445	32.531944
3061.616455	28.461102
3061.001465	24.391502
3060.386475	4.064629
3059.771240	20.320042
3059.156006	4.063387
3058.540771	24.376596
3057.925293	32.497162
3057.309814	44.676769
3056.694092	12.182711
3056.078369	20.301414
3055.462646	4.059662
3054.846680	32.472332
3054.230713	8.116842
3053.614502	32.462406
3052.998291	-8.114361
3052.382080	32.452480
3051.765625	4.055940
3051.149170	0.000000
3050.532715	52.711094
3049.916016	24.324476
3049.299316	12.160378
3048.682373	16.211357
3048.065430	12.156659
3047.448486	8.103200
3046.831299	48.611759
3046.214111	-8.100720
3045.596680	44.547150
3044.979248	4.049121
3044.361816	24.291010
3043.744141	32.383057
3043.126465	0.000000
3042.508545	12.139931
3041.890869	40.460243
3041.272705	24.272432
3040.654785	28.313503
3040.036621	40.441673
3039.418213	40.435482
3038.799805	24.257576
3038.181396	40.423103
3037.562988	44.458607
3036.944336	28.287510
3036.325439	-12.121363
3035.706543	28.278851
3035.087646	40.392174
3034.468750	48.463184
3033.849609	32.303844
3033.230469	32.298897
3032.611084	20.183720
3031.991699	36.325130
3031.372070	-8.071015
3030.752441	28.244226
3030.132813	36.308441
3029.513184	44.370190
3028.893066	16.132143
3028.273193	16.129671
3027.653076	40.318001
3027.032959	44.343006
3026.412598	48.366779
3025.792480	28.209631
3025.171875	0.000000
3024.551270	12.086137
3023.930664	52.365234
3023.310059	56.384689
3022.689209	44.295464
3022.068115	24.157459
3021.447266	44.281887
3020.826172	0.000000
3020.204834	40.243923
3019.583496	40.237751
3018.962158	8.046317
3018.340576	44.247959
3017.718994	28.153475
3017.097412	32.170467
3016.475586	24.124151
3015.853760	16.080301
3015.231689	28.136211
3014.609619	24.113054
3013.987549	56.255165
3013.365234	12.052829
3012.742920	36.152943
3012.120361	36.147396
3011.497803	36.141853
3010.875244	20.075727
3010.252441	40.145294
3009.629639	28.097395
3009.006836	28.093084
3008.383789	28.088774
3007.760498	16.048265
3007.137451	32.091606
3006.514160	56.151691
3005.890625	40.102196
3005.267090	44.105644
3004.643555	28.062922
3004.019775	40.083736
3003.395996	36.069824
3002.772217	28.050001
3002.148193	4.006528
3001.524170	12.017738
3000.899902	32.042385
3000.275635	28.032782
2999.651367	36.036613
2999.026855	20.017267
2998.402344	56.039742
2997.777588	32.017792
2997.152832	16.006437
2996.528076	48.011940
2995.903076	40.003803
2995.278076	51.996956
2994.653076	67.985580
2994.027832	35.986835
2993.402344	71.962616
2992.777100	75.948868
2992.151367	31.973558
2991.525879	39.960808
2990.900146	35.959202
2990.274414	39.948528
2989.648438	59.913589
2989.022461	39.936253
2988.396240	31.944094
2987.770264	43.916378
2987.143799	43.909630
2986.517578	55.876392
2985.891113	59.858364
2985.264404	43.889385
2984.637695	55.850632
2984.010986	55.842045
2983.384033	55.833462
2982.757080	51.837387
2982.130127	75.750687
2981.502930	59.793976
2980.875732	39.856522
2980.248291	47.820473
2979.620850	71.719681
2978.993408	87.643906
2978.365723	83.647224
2977.738037	47.791061
2977.110107	83.621498
2976.482178	63.701817
2975.854248	39.807510
2975.226074	91.543190
2974.597900	87.549583
2973.969482	87.536110
2973.341309	103.435852
2972.712646	95.464554
2972.083984	91.472786
2971.455322	135.199844
2970.826660	119.275620
2970.197754	170.935410
2969.568604	143.086685
2968.939697	166.908783
2968.310547	162.909683
2967.681152	166.857407
2967.051758	202.581375
2966.422363	218.436478
2965.792725	182.664200
2965.163086	222.339569
2964.533203	186.577698
2963.903564	269.900635
2963.273438	257.953522
2962.643311	301.560760
2962.013184	253.906799
2961.383057	285.601166
2960.752686	309.353607
2960.122314	325.167816
2959.491699	376.660767
2958.861084	360.745789
2958.230225	368.617493
2957.599609	344.782593
2956.968506	392.278381
2956.337646	368.447144
2955.706299	320.856140
2955.075195	261.398071
2954.443848	273.237671
2953.812500	233.602020
2953.180908	257.318481
2952.549316	300.818329
2951.917725	265.154236
2951.285889	265.113373
2950.653809	269.028809
2950.021973	268.987335
2949.389893	300.586578
2948.757568	245.177567
2948.125244	280.724579
2947.492920	249.055237
2946.860352	233.206238
2946.227783	241.074356
2945.595215	205.474319
2944.962402	197.541000
2944.329590	161.958649
2943.696533	193.530472
2943.063477	146.112717
2942.430420	173.728867
2941.797119	98.694359
2941.163574	165.780945
2940.530273	165.755371
2939.896729	161.783859
2939.262939	134.141525
2938.629150	149.899750
2937.995361	118.323654
2937.361328	126.192421
2936.727295	141.944565
2936.093262	114.326591
2935.458984	137.959076
2934.824707	122.173470
2934.190186	141.856964
2933.555664	157.594528
2932.921143	145.752441
2932.286377	129.975357
2931.651367	149.645493
2931.016602	204.746414
2930.381592	145.662460
2929.746338	173.193481
2929.111084	216.458435
2928.475830	200.685013
2927.840332	200.654022
2927.204834	228.159531
2926.569336	220.257935
2925.933594	263.482208
2925.297607	283.101318
2924.661865	231.949966
2924.025879	279.083130
2923.389648	298.690704
2922.753418	267.208313
2922.117188	243.593475
2921.480713	282.839050
2920.844238	310.289337
2920.207764	270.970337
2919.571045	302.340454
2918.934082	263.034821
2918.297363	302.247009
2917.660156	274.727570
2917.023193	255.064743
2916.385986	270.719177
2915.748779	294.214508
2915.111328	274.557770
2914.473877	254.907074
2913.836182	282.314972
2913.198486	321.475677
2912.560791	286.147522
2911.922852	250.830261
2911.284912	286.059052
2910.646729	321.276917
2910.008545	289.888000
2909.370361	329.011139
2908.731934	278.049744
2908.093506	340.656158
2907.455078	324.943542
2906.816406	352.293915
2906.177490	383.549622
2905.538574	371.750793
2904.899658	387.343506
2904.260498	453.786835
2903.621338	410.691772
2902.982178	367.610046
2902.342773	426.205261
2901.703369	363.586761
2901.063721	394.801941
2900.424072	386.924194
2899.784424	390.772034
2899.144531	343.826172
2898.504639	324.240417
2897.864502	382.778809
2897.224365	355.382446
2896.583984	355.327454
2895.943848	327.943787
2895.303223	335.700012
2894.662842	366.871094
2894.021973	339.498352
2893.381348	351.150787
2892.740479	339.393219
2892.099609	386.146271
2891.458496	401.685913
2890.817383	370.429626
2890.176025	346.980347
2889.534668	358.620758
2888.893311	366.360107
2888.251709	448.137085
2887.610107	416.897736
2886.968262	401.250610
2886.326416	428.453674
2885.684570	451.753876
2885.042480	564.604858
2884.400391	506.119019
2883.758057	471.007019
2883.115723	505.962189
2882.473389	607.060547
2881.830811	536.931885
2881.188232	587.421326
2880.545410	525.096619
2879.902588	591.128296
2879.259766	563.817871
2878.616699	524.852478
2877.973633	497.560760
2877.330322	497.483643
2876.687012	528.494446
2876.043457	442.933990
2875.399902	481.713135
2874.756348	411.723175
2874.112549	450.495117
2873.468750	345.584900
2872.824707	438.708282
2872.180664	411.467834
2871.536621	438.572205
2870.892334	407.459656
2870.248047	372.476746
2869.603760	430.609436
2868.958984	383.997467
2868.314453	391.694214
2867.669678	426.531494
2867.024902	383.818787
2866.379883	403.140991
2865.734863	422.457214
2865.089844	453.392883
2864.444580	468.820709
2863.799316	445.504272
2863.153809	371.841492
2862.508301	437.620483
2861.862549	375.598206
2861.216797	360.053711
2860.571045	336.772156
2859.925049	367.682617
2859.279053	263.142487
2858.632813	236.017654
2857.986572	208.901215
2857.340332	177.925262
2856.693848	232.040390
2856.047363	204.937180
2855.400635	228.102173
2854.753906	158.487061
2854.107178	150.732574
2853.460205	181.623856
2852.813232	170.004440
2852.166016	131.346664
2851.518799	139.051331
2850.871338	142.891663
2850.223877	142.869461
2849.576416	166.011688
2848.928711	181.426437
2848.281006	150.521957
2847.633301	173.652191
2846.985352	162.050186
2846.337158	158.167267
2845.688965	169.714096
2845.040771	192.826950
2844.392578	258.347961
2843.743896	185.056335
2843.095459	258.267639
2842.446777	200.415359
2841.798096	296.722778
2841.149170	304.382507
2840.500244	261.959412
2839.851074	296.584381
2839.202148	346.603149
2838.552734	350.399811
2837.903320	346.495361
2837.253906	369.537567
2836.604492	327.143829
2835.954834	380.967102
2835.304932	357.822510
2834.655029	296.215576
2834.005127	242.320480
2833.354980	265.357330
2832.704834	234.554779
2832.054688	276.808472
2831.404297	207.574036
2830.753906	207.541748
2830.103271	165.238998
2829.452637	153.686783
2828.801758	138.296570
2828.150879	119.070183
2827.500000	126.732399
2826.848877	119.033119
2826.197754	142.049667
2825.546387	88.287399
2824.895020	72.921715
2824.243408	76.747749
2823.591797	92.082962
2822.940186	115.085785
2822.288330	88.218697
2821.636475	57.524971
2820.984619	80.522423
2820.332520	76.676079
2819.680176	68.997719
2819.028076	72.819588
2818.375488	84.304283
2817.723145	68.965485
2817.070557	49.800648
2816.417725	84.264893
2815.764893	45.955505
2815.112061	76.580574
2814.458984	30.627459
2813.805908	95.695892
2813.152832	42.099632
2812.499512	84.186142
2811.845947	65.042793
2811.192383	72.683556
2810.538818	49.723103
2809.885010	49.715351
2809.231201	72.649574
2808.577393	68.815186
2807.923340	57.337048
2807.269287	49.684361
2806.614990	68.783005
2805.960693	72.592964
2805.306152	114.602600
2804.651611	57.292362
2803.997070	57.283428
2803.342285	61.092796
2802.687500	64.900970
2802.032471	41.988197
2801.377441	53.431190
2800.722412	57.238773
2800.067139	49.599201
2799.411621	45.776733
2798.756348	38.141327
2798.100586	61.016605
2797.445068	76.258858
2796.789307	41.935825
2796.133301	34.305779
2795.477539	30.489265
2794.821289	38.105637
2794.165283	41.909657
2793.509033	57.140614
2792.852539	38.087795
2792.196045	72.355522
2791.539551	19.037954
2790.882813	79.946922
2790.226074	30.451218
2789.569092	49.475502
2788.912109	49.467777
2788.255127	53.264675
2787.597900	45.648308
2786.940430	38.034317
2786.283203	49.436890
2785.625488	57.033657
2784.968018	38.016499
2784.310303	64.617958
2783.652588	83.610176
2782.994629	72.197510
2782.336426	49.390579
2781.678467	94.967049
2781.020264	53.173237
2780.361816	83.544891
2779.703369	37.969017
2779.044922	56.944626
2778.386230	68.322876
2777.727539	34.156101
2777.068604	49.328880
2776.409668	75.878723
2775.750732	49.313461
2775.091553	49.305756
2774.432373	49.298046
2773.772949	75.831291
2773.113525	49.282635
2772.453857	34.113415
2771.794189	34.108082
2771.134521	60.627110
2770.474609	45.463223
2769.814697	45.456116
2769.154541	60.598675
2768.494385	0.000000
2767.833984	26.503630
2767.173584	49.213326
2766.513184	49.205631
2765.852539	41.629021
2765.191895	68.109558
2764.531006	52.965816
2763.870117	56.740211
2763.209229	56.731335
2762.548096	60.503956
2761.886719	41.589962
2761.225586	75.606285
2760.563965	30.237780
2759.902588	52.907837
2759.240967	52.899555
2758.579102	56.669224
2757.917236	45.328285
2757.255371	41.544426
2756.593262	45.314095
2755.931152	33.980251
2755.269043	41.524918
2754.606689	71.713631
2753.944092	90.571457
2753.281494	98.103714
2752.618896	45.271549
2751.956055	60.352612
2751.293213	71.657509
2750.630371	75.417145
2749.967285	26.391865
2749.303955	60.314816
2748.640625	56.536285
2747.977295	52.758934
2747.313721	71.590195
2746.650146	60.277035
2745.986572	86.634666
2745.322754	67.790421
2744.658691	94.138611
2743.994873	79.064041
2743.330566	60.229832
2742.666504	30.110197
2742.002197	52.684586
2741.337646	67.726707
2740.673096	90.288132
2740.008545	41.375572
2739.343750	90.259827
2738.678955	71.444496
2738.013916	82.712242
2737.348877	75.181160
2736.683594	67.652435
2736.018311	45.094551
2735.353027	82.660385
2734.687500	93.917526
2734.021973	71.366127
2733.356201	82.621506
2732.690430	75.098679
2732.024658	75.086899
2731.358643	86.336395
2730.692383	82.569687
2730.026367	86.309311
2729.359863	86.295769
2728.693604	71.276627
2728.027100	131.278458
2727.360352	120.007187
2726.693604	63.743813
2726.026855	74.980957
2725.359863	119.950706
2724.692871	78.705299
2724.025635	123.660347
2723.358398	123.640938
2722.691162	101.144890
2722.023682	112.365570
2721.355957	127.327660
2720.688477	112.330299
2720.020508	108.568909
2719.352783	160.956223
2718.684814	130.990311
2718.016602	123.485756
2717.348389	74.828102
2716.680176	89.779617
2716.011719	100.986214
2715.343262	127.147850
2714.674561	104.693550
2714.005859	104.677109
2713.337158	78.495499
2712.668213	108.381523
2711.999023	63.524017
2711.329834	85.930756
2710.660645	82.181725
2709.991455	85.903755
2709.321777	89.624619
2708.652344	67.207901
2707.982666	97.062828
2707.312988	108.245377
2706.643066	85.836288
2705.972900	74.628525
2705.302979	100.732674
2704.632813	104.447090
2703.962402	93.241676
2703.291992	78.310692
2702.621582	74.569893
2701.950928	85.741890
2701.280273	52.182510
2700.609375	59.627781
2699.938477	52.166103
2699.267334	74.511284
2698.596191	70.774590
2697.925049	67.039070
2697.253662	70.752335
2696.582031	44.678658
2695.910645	55.839539
2695.239014	29.776402
2694.567139	85.593689
2693.895264	59.534069
2693.223145	70.685585
2692.551270	55.795631
2691.878906	70.663345
2691.206543	52.059536
2690.534180	66.923157
2689.861816	55.760521
2689.189209	78.052444
2688.516357	59.459171
2687.843506	55.734200
2687.170654	63.155487
2686.497559	66.859993
2685.824463	66.849464
2685.151123	55.699120
2684.477783	74.253799
2683.804199	77.954216
2683.130615	66.807381
2682.457031	89.062477
2681.783203	85.338104
2681.109375	70.485596
2680.435303	51.928574
2679.761230	66.754799
2679.086914	55.620235
2678.412598	103.808090
2677.738281	66.723259
2677.063721	48.181431
2676.389160	62.996559
2675.714355	37.050964
2675.039551	40.749638
2674.364502	51.855003
2673.689453	70.363564
2673.014404	66.649712
2672.339111	74.043564
2671.663574	70.330307
2670.988037	29.608093
2670.312500	48.105568
2669.636719	51.797832
2668.960938	48.090405
2668.285156	44.384144
2667.609131	59.169533
2666.932861	48.067665
2666.256592	59.150879
2665.580322	70.230591
2664.903809	55.436462
2664.227295	59.122902
2663.550781	73.891975
2662.874023	48.022209
2662.197021	81.255539
2661.520020	70.164169
2660.843018	55.384029
2660.165771	62.758667
2659.488525	84.895393
2658.811035	66.429390
2658.133545	84.868607
2657.455811	66.408432
2656.778076	59.020405
2656.100342	66.387482
2655.422363	77.439835
2654.744385	47.931381
2654.066162	62.669609
2653.387939	55.287987
2652.709473	88.446815
2652.031006	73.694046
2651.352539	55.261814
2650.673828	51.569550
2649.994873	69.976196
2649.316162	33.141388
2648.636963	55.226925
2647.958008	69.943062
2647.278809	47.848225
2646.599365	77.281082
2645.919922	62.550995
2645.240479	44.146671
2644.560791	51.496315
2643.880859	47.810455
2643.201172	91.928665
2642.520996	62.501617
2641.841064	95.575607
2641.160889	77.183487
2640.480469	66.146828
2639.800049	40.416672
2639.119629	58.778603
2638.438965	40.403904
2637.758301	62.432529
2637.077393	77.110352
2636.396484	77.098167
2635.715332	62.402935
2635.034180	80.743980
2634.353027	18.348003
2633.671631	51.366291
2632.989990	47.689728
2632.308350	47.682190
2631.626709	84.347466
2630.944824	55.000519
2630.262939	87.986916
2629.581055	54.983128
2628.898926	80.629166
2628.216553	80.616417
2627.534180	69.612259
2626.851807	54.948357
2626.169189	62.264954
2625.486572	51.268913
2624.803711	76.891205
2624.120850	69.557228
2623.437988	73.206551
2622.754883	47.576729
2622.071533	54.887543
2621.388184	58.537449
2620.704834	69.502220
2620.021240	29.259462
2619.337646	54.852814
2618.653809	51.187855
2617.969971	65.802544
2617.286133	73.102364
2616.602051	80.399872
2615.917725	87.695068
2615.233398	40.187210
2614.549072	47.486458
2613.864502	69.392296
2613.179932	76.684608
2612.495117	102.229958
2611.810303	73.009834
2611.125488	72.998276
2610.440430	47.441364
2609.755127	29.190063
2609.069824	76.611778
2608.384521	91.190056
2607.698975	69.293465
2607.013428	54.696701
2606.327637	29.166954
2605.641846	61.969955
2604.956055	40.091854
2604.270020	51.017914
2603.583740	61.940506
2602.897461	72.859642
2602.211182	80.132904
2601.524658	58.269241
2600.838135	47.336254
2600.151367	80.094810
2599.464600	29.120770
2598.777832	40.034714
2598.090820	72.778847
2597.403564	32.745289
2596.716309	50.929043
2596.029053	50.920971
2595.341553	87.279251
2594.654053	39.996647
2593.966309	14.541929
2593.278564	43.618870
2592.590820	87.223907
2591.902832	65.407555
2591.214600	79.929886
2590.526367	65.386810
2589.838135	58.112389
2589.149658	47.208828
2588.461182	65.355698
2587.772461	61.715034
2587.083740	79.853844
2586.394775	47.178875
2585.705811	87.085648
2585.016846	87.071823
2584.327637	65.293510
2583.638184	61.656303
2582.948975	61.646519
2582.259277	36.256905
2581.569824	39.876263
2580.879883	32.620853
2580.190186	76.103249
2579.500244	90.584724
2578.810059	47.096577
2578.119873	76.067009
2577.429688	47.081623
2576.739258	72.421768
2576.048584	76.030777
2575.358154	90.498459
2574.667236	76.006638
2573.976563	47.044254
2573.285645	54.273209
2572.594482	61.499870
2571.903320	47.021843
2571.212158	75.946297
2570.520752	90.397888
2569.829102	93.998871
2569.137451	72.295334
2568.445801	72.283852
2567.753906	61.431511
2567.062012	43.356529
2566.370117	50.574577
2565.677979	72.237915
2564.985596	83.060402
2564.293213	43.328972
2563.600830	54.152607
2562.908203	54.144001
2562.215332	57.744419
2561.522705	79.385956
2560.829590	68.549698
2560.136719	90.182632
2559.443604	57.707706
2558.750244	50.486214
2558.056885	82.928452
2557.363525	72.100227
2556.669922	57.671009
2555.976074	61.265701
2555.282227	61.255959
2554.588379	50.438061
2553.894287	54.032181
2553.200195	50.422012
2552.505859	43.211994
2551.811523	82.809814
2551.117188	57.597660
2550.422607	46.790653
2549.727783	64.776749
2549.032959	68.364578
2548.338135	64.756134
2547.643066	71.939812
2546.947998	25.174927
2546.252686	53.937683
2545.557373	46.738552
2544.861816	53.920513
2544.166260	79.070831
2543.470703	75.464684
2542.774902	64.673721
2542.078857	75.440659
2541.382813	75.428650
2540.686768	46.686489
2539.990479	61.041840
2539.294189	53.851871
2538.597656	46.664188
2537.901123	64.601662
2537.204346	32.295685
2536.507568	57.405407
2535.810791	60.983528
2535.113770	50.213730
2534.416504	57.377975
2533.719238	86.053253
2533.021973	71.699615
2532.324463	53.766144
2531.626953	68.092934
2530.929199	64.498817
2530.231445	53.740444
2529.533447	64.478256
2528.835449	71.631088
2528.137451	60.876720
2527.439209	71.608253
2526.740723	53.697632
2526.042236	82.323242
2525.343750	89.467514
2524.645020	93.031380
2523.946289	39.353157
2523.247314	39.346882
2522.548340	71.528374
2521.849121	89.396210
2521.149902	89.381950
2520.450684	103.666527
2519.751221	96.501717
2519.051514	64.324219
2518.351807	78.605949
2517.652100	64.303696
2516.952148	71.437157
2516.252197	49.998028
2515.552002	78.555794
2514.851807	74.973114
2514.151367	57.113258
2513.450928	67.811172
2512.750244	60.663471
2512.049561	53.518047
2511.348877	82.047913
2510.647949	64.201157
2509.946777	57.058586
2509.245605	82.008629
2508.544434	64.170418
2507.843018	49.902355
2507.141602	49.894390
2506.439941	81.956268
2505.738281	99.756912
2505.036377	53.432671
2504.334473	85.478622
2503.632568	71.220810
2502.930420	56.967545
2502.228027	74.757965
2501.525635	81.864693
2500.823242	53.381485
2500.120605	71.163948
2499.417969	32.018658
2498.715088	64.027084
2498.012207	99.581779
2497.309082	78.230324
2496.605957	81.773178
2495.902588	71.095749
2495.199219	46.204853
2494.495605	71.073029
2493.791992	106.592499
2493.088379	49.735218
2492.384521	92.350639
2491.680664	42.616558
2490.976563	78.117867
2490.272461	92.306351
2489.568115	56.794830
2488.863770	67.433075
2488.159180	88.713547
2487.454590	49.671638
2486.749756	81.590355
2486.044922	53.202595
2485.339844	60.286629
2484.634766	60.276985
2483.929688	74.447899
2483.224365	77.980560
2482.519043	85.056091
2481.813477	63.781864
2481.107666	92.114616
2480.402100	63.761456
2479.696045	88.543411
2478.990234	88.529236
2478.284180	60.190250
2477.577881	81.420837
2476.871582	77.868332
2476.165039	92.011482
2475.458496	81.381744
2474.751953	74.293182
2474.045166	102.578918
2473.338379	77.806030
2472.631348	84.865723
2471.924072	38.890560
2471.217041	74.233727
2470.509521	70.687469
2469.802246	70.676147
2469.094482	70.664833
2468.386963	74.186188
2467.679199	63.577976
2466.971191	105.946327
2466.263184	95.336418
2465.554932	81.199493
2464.846680	84.716331
2464.138428	77.644196
2463.429932	95.275345
2462.721436	52.922264
2462.012695	63.496540
2461.303955	74.067429
2460.594971	59.949738
2459.885986	84.621361
2459.176758	95.183777
2458.467529	88.118996
2457.758057	98.677460
2457.048584	77.519859
2456.338867	116.261154
2455.629150	84.540009
2454.919434	73.960648
2454.209473	98.598389
2453.499512	80.978546
2452.789307	59.844112
2452.078857	84.472252
2451.368408	66.863144
2450.657959	73.889519
2449.947266	45.733795
2449.236572	66.830978
2448.525879	59.786549
2447.814697	84.390999
2447.103760	84.377457
2446.392578	91.394249
2445.681152	91.379585
2444.969727	66.766678
2444.258301	77.296379
2443.546631	45.667801
2442.834717	70.246880
2442.122803	73.747391
2441.410889	84.269203
2440.698730	84.255676
2439.986572	77.221977
2439.274170	49.133369
2438.561768	77.197189
2437.849121	80.693192
2437.136475	91.203743
2436.423584	73.652740
2435.710693	56.107361
2434.997803	56.098351
2434.284424	84.134010
2433.571289	87.625526
2432.857910	66.584702
2432.144287	42.046741
2431.430908	91.086639
2430.717041	66.552620
2430.003174	94.559586
2429.289307	98.046043
2428.575195	59.518391
2427.861084	80.511940
2427.146729	73.499092
2426.432373	69.987885
2425.717773	90.969635
2425.003174	90.955017
2424.288330	59.461029
2423.573486	69.942909
2422.858643	76.924835
2422.143555	90.896553
2421.428223	62.918266
2420.712891	69.897949
2419.997559	97.841393
2419.281982	69.875473
2418.566162	104.796356
2417.850586	97.794205
2417.134521	69.841774
2416.418457	45.389851
2415.702393	87.274139
2414.986084	90.750504
2414.269775	66.307014
2413.553223	90.721313
2412.836670	48.842083
2412.120117	55.810543
2411.403076	101.140335
2410.686279	73.227768
2409.969238	76.702461
2409.251953	52.288719
2408.534668	69.707077
2407.817383	90.604614
2407.099854	62.716175
2406.382080	55.738739
2405.664307	76.628433
2404.946533	83.581200
2404.228516	76.603767
2403.510498	104.442863
2402.792236	83.540840
2402.073975	80.047081
2401.355469	86.993690
2400.636963	104.375618
2399.918213	111.316063
2399.199463	83.473602
2398.480469	69.550133
2397.761475	93.877563
2397.042480	48.669415
2396.323242	55.613228
2395.603760	83.406403
2394.884277	79.918266
2394.164795	90.327827
2393.445068	69.471756
2392.725098	72.933586
2392.005127	79.866776
2391.285156	93.741539
2390.564941	118.025879
2389.844727	65.945007
2389.124268	79.815308
2388.403809	86.741783
2387.683105	69.382240
2386.962402	58.965401
2386.241455	83.231850
2385.520508	86.685867
2384.799316	72.804390
2384.078125	69.326332
2383.356689	86.643944
2382.635254	55.443184
2381.913818	83.151367
2381.192139	86.602036
2380.470215	83.124550
2379.748291	110.814857
2379.026367	86.560143
2378.304199	62.313251
2377.581787	62.303200
2376.859375	89.978996
2376.136963	44.982239
2375.414307	55.353825
2374.691650	76.099228
2373.968750	72.628448
2373.245850	89.906425
2372.522705	76.062393
2371.799316	89.877411
2371.076172	69.125313
2370.352783	82.936989
2369.629150	76.013298
2368.905518	110.546951
2368.181641	65.626656
2367.457764	89.790405
2366.733643	65.605469
2366.009521	75.951965
2365.285400	93.198723
2364.561035	86.281181
2363.836426	106.971382
2363.111816	51.751987
2362.387207	58.642780
2361.662354	79.327415
2360.937256	89.659988
2360.212158	79.301796
2359.487061	86.183678
2358.761719	127.531235
2358.036377	72.370903
2357.310791	55.130825
2356.584961	110.243835
2355.859375	65.446701
2355.133301	58.548111
2354.407471	92.973145
2353.681152	89.515228
2352.955078	82.616089
2352.228516	68.835609
2351.502197	86.030609
2350.775635	92.898033
2350.048828	75.682457
2349.322021	85.988892
2348.594971	82.535988
2347.867920	79.084198
2347.140869	92.822960
2346.413330	89.370621
2345.686035	58.425186
2344.958496	75.596832
2344.230713	113.376915
2343.502930	68.702164
2342.775146	85.863815
2342.047119	89.283928
2341.319092	68.668831
2340.590820	48.060406
2339.862305	85.808266
2339.133789	96.089714
2338.405273	68.624405
2337.676514	89.197289
2336.947754	72.032303
2336.218750	89.168419
2335.489746	99.440987
2334.760498	82.282669
2334.031250	106.264572
2333.301758	85.683365
2332.572266	65.108818
2331.842529	61.672050
2331.112793	68.513405
2330.382813	85.627892
2329.652832	82.189468
2328.922607	65.056122
2328.192383	85.586304
2327.462158	123.224312
2326.731689	85.558578
2326.000977	71.857567
2325.270264	71.845924
2324.539307	112.882454
2323.808350	116.284294
2323.077393	58.132729
2322.346191	82.056435
2321.614746	112.809319
2320.883301	99.119400
2320.151855	85.433914
2319.420166	68.336052
2318.688232	75.157478
2317.956299	92.223770
2317.224365	126.360245
2316.492188	88.779289
2315.760010	112.663139
2315.027588	85.337029
2314.295166	85.323196
2313.562500	109.195984
2312.829590	98.942810
2312.096924	105.749306
2311.363770	64.803581
2310.630615	81.843880
2309.897461	95.469040
2309.164063	74.999222
2308.430664	102.255081
2307.697021	95.422592
2306.963379	105.629311
2306.229492	91.984795
2305.495605	64.719543
2304.761719	98.766426
2304.027344	122.586708
2303.293213	105.543648
2302.558838	78.293869
2301.824219	71.474106
2301.089600	102.089294
2300.354736	88.463028
2299.619873	81.644928
2298.885010	91.835640
2298.149658	95.221497
2297.414551	71.404526
2296.679199	81.591927
2295.943604	129.166245
2295.208008	84.963997
2294.472412	78.154182
2293.736572	78.141495
2293.000488	84.922615
2292.264404	78.116112
2291.528320	57.728622
2290.791992	84.881241
2290.055420	105.235641
2289.318848	91.641960
2288.582275	111.988647
2287.845459	71.253922
2287.108398	67.849854
2286.371582	71.230774
2285.634277	84.784760
2284.896973	81.380142
2284.159668	118.660088
2283.422119	91.522911
2282.684570	98.286407
2281.946777	91.493156
2281.208740	77.925949
2280.470703	115.176155
2279.732666	88.061569
2278.994385	91.433685
2278.256104	94.804703
2277.517578	91.403954
2276.779053	115.082558
2276.040283	81.221535
2275.301514	77.824646
2274.562500	101.493904
2273.823486	77.799339
2273.084229	87.932770
2272.344971	91.299950
2271.605469	94.666031
2270.865967	91.270248
2270.126221	74.356255
2269.386475	94.619835
2268.646484	121.634277
2267.906494	91.210861
2267.166260	81.063133
2266.426025	128.329071
2265.685547	101.295937
2264.945068	121.535339
2264.204346	108.013824
2263.463623	111.371132
2262.722656	94.481331
2261.981689	121.456223
2261.240723	87.704102
2260.499268	74.199081
2259.758057	124.769051
2259.016602	94.404442
2258.274902	77.533882
2257.533203	104.485168
2256.791260	101.098213
2256.049316	74.126617
2255.307129	101.065285
2254.564941	84.207352
2253.822754	107.767853
2253.080322	104.383102
2252.337646	117.832687
2251.594971	134.643982
2250.852051	74.042130
2250.109131	94.220078
2249.366211	104.298088
2248.623047	90.825470
2247.879639	67.267159
2247.136230	97.521484
2246.392578	100.867851
2245.648926	94.127983
2244.905273	114.279633
2244.161377	94.097298
2243.417236	84.001747
2242.673096	90.707092
2241.928955	100.769226
2241.184570	50.376396
2240.439941	94.020607
2239.695313	77.218620
2238.950439	107.417076
2238.205566	90.618378
2237.460693	90.603600
2236.715576	104.009384
2235.970215	103.992416
2235.224854	127.453781
2234.479492	93.897987
2233.733887	90.529716
2232.988037	107.276970
2232.242188	83.796463
2231.496338	107.241966
2230.750244	80.418350
2230.003906	87.105659
2229.257568	90.441116
2228.511230	107.171974
2227.764648	80.365860
2227.017822	87.048798
2226.270996	97.077042
2225.523926	66.938751
2224.776855	93.698952
2224.029785	113.758728
2223.282471	123.776047
2222.534912	90.308311
2221.787354	90.293564
2221.039795	103.653458
2220.291992	93.607185
2219.543945	116.989868
2218.795898	133.680862
2218.047852	103.585747
2217.299561	90.205109
2216.551025	100.211517
2215.802490	116.894341
2215.053955	76.803726
2214.305176	116.856140
2213.556152	123.513443
2212.807129	106.804985
2212.058105	113.461746
2211.308838	90.087250
2210.559326	100.080582
2209.809814	86.722328
2209.060303	110.052650
2208.310547	86.693977
2207.560547	90.013641
2206.810547	79.999039
2206.060303	73.320465
2205.310059	66.644066
2204.559814	113.276390
2203.809326	86.608955
2203.058594	89.925354
2202.307861	106.560768
2201.557129	99.884377
2200.806152	99.868042
2200.054932	86.538139
2199.303711	99.835365
2198.552246	103.146332
2197.800781	103.129456
2197.049316	113.091217
2196.297607	99.770042
2195.545654	59.852230
2194.793701	116.360291
2194.041504	49.860531
2193.289307	109.675217
2192.537109	93.042526
2191.784668	139.540939
2191.031982	102.977646
2190.279297	79.711578
2189.526367	86.340073
2188.773438	92.966393
2188.020508	106.229904
2187.267090	79.659386
2186.513916	102.876518
2185.760498	92.905510
2185.006836	96.207802
2184.253174	89.558113
2183.499268	112.758408
2182.745361	129.319336
2181.991211	92.829445
2181.237061	82.869850
2180.482666	112.684532
2179.728271	109.352364
2178.973877	86.142288
2178.218994	115.941772
2177.464355	99.362373
2176.709229	109.280693
2175.954346	162.238678
2175.198975	79.450821
2174.443848	112.536880
2173.688232	112.518425
2172.932861	112.499985
2172.177002	59.549049
2171.421387	125.694046
2170.665283	122.366241
2169.909424	122.346176
2169.153076	102.489449
2168.396729	112.389343
2167.640381	99.150803
2166.883789	99.134544
2166.127197	135.461655
2165.370361	122.225830
2164.613525	102.388626
2163.856445	82.557922
2163.099365	99.053253
2162.342041	108.940704
2161.584473	92.419365
2160.826904	105.604805
2160.069336	102.287865
2159.311523	115.467346
2158.553711	115.448395
2157.795654	128.621384
2157.037354	85.733513
2156.279053	102.203949
2155.520752	92.298088
2154.762207	92.282936
2154.003662	118.630005
2153.244873	102.136841
2152.485840	112.002655
2151.726807	135.039856
2150.967773	118.552101
2150.208252	79.021759
2149.448975	125.097229
2148.689453	128.368179
2147.929688	105.310432
2147.169922	118.454773
2146.410156	125.015053
2145.650146	92.101219
2144.889893	92.086090
2144.129639	105.223953
2143.369141	118.357491
2142.608643	111.763702
2141.847900	121.605217
2141.087158	88.724358
2140.326416	114.994156
2139.565186	128.115280
2138.804199	118.240822
2138.042725	124.789238
2137.281494	121.485336
2136.519775	111.616821
2135.758301	118.163086
2134.996338	111.580116
2134.234619	104.999313
2133.472412	127.946869
2132.710449	108.244926
2131.947998	91.829079
2131.185547	114.767464
2130.423096	118.027115
2129.660400	111.451721
2128.897705	104.878479
2128.134766	147.461090
2127.371826	127.778587
2126.608643	127.757561
2125.845215	124.461243
2125.081787	153.913574
2124.318359	111.323410
2123.554688	111.305092
2122.790771	140.745041
2122.026855	124.358864
2121.262939	121.066330
2120.498779	101.417252
2119.734375	140.652390
2118.969971	127.547440
2118.205322	98.097260
2117.440674	104.619850
2116.676025	107.871452
2115.911133	111.121979
2115.145996	114.371437
2114.380859	101.283730
2113.615479	117.600441
2112.850098	153.508621
2112.084473	124.092911
2111.318848	120.807404
2110.552979	104.464859
2109.787109	120.767593
2109.020996	107.693893
2108.254883	114.201973
2107.488525	107.658401
2106.722168	130.473526
2105.955566	127.190727
2105.188965	127.169762
2104.422119	110.847672
2103.655029	146.685974
2102.887939	117.329430
2102.120850	110.792862
2101.353516	156.387665
2100.585938	133.559113
2099.818359	169.364105
2099.050781	113.976273
2098.282959	100.933769
2097.514893	107.427902
2096.746826	123.684456
2095.978760	120.409737
2095.210449	117.136093
2094.441895	123.623260
2093.673340	113.844749
2092.904541	139.843323
2092.135742	130.065353
2091.366699	149.550476
2090.597656	123.521317
2089.828369	126.750954
2089.059082	136.478500
2088.289551	107.215408
2087.520020	110.446129
2086.750244	116.923660
2085.980469	126.646393
2085.210449	100.651024
2084.440186	120.112038
2083.670166	116.846474
2082.899658	136.298370
2082.129150	152.499191
2081.358643	155.718140
2080.587891	152.448822
2079.816895	100.534744
2079.045898	126.458313
2078.274902	100.501541
2077.503662	126.416534
2076.732178	116.672913
2075.960693	145.817047
2075.188965	119.874207
2074.417236	90.700630
2073.645264	113.357056
2072.873291	129.529510
2072.101074	132.745819
2071.328857	110.063698
2070.556396	129.465302
2069.783936	119.735619
2069.011230	145.600327
2068.238525	132.636154
2067.465576	155.255676
2066.692627	132.592300
2065.919434	126.103531
2065.145996	132.548462
2064.372559	158.385376
2063.599121	138.968262
2062.825439	142.176575
2062.051514	187.383575
2061.277588	155.050415
2060.503662	116.268578
2059.729248	151.769989
2058.955078	135.601807
2058.180664	138.807449
2057.406006	122.646759
2056.631348	148.442566
2055.856445	180.682785
2055.081543	167.749115
2054.306396	154.819702
2053.531250	125.770195
2052.755859	141.871094
2051.980225	151.519043
2051.204590	154.717239
2050.428955	128.909698
2049.653076	138.554977
2048.877197	128.867020
2048.101074	132.066818
2047.324707	122.383125
2046.548340	99.822334
2045.771851	141.659851
2044.995239	128.760361
2044.218506	135.175995
2043.441528	102.974174
2042.664551	148.000854
2041.887329	147.976334
2041.110107	141.519135
2040.332642	164.006378
2039.555176	151.118088
2038.777466	131.804581
2037.999634	144.639587
2037.221802	134.974579
2036.443726	163.870544
2035.665527	128.504623
2034.887207	141.331650
2034.108765	144.519775
2033.330200	144.495819
2032.551514	154.103333
2031.772705	138.028015
2030.993774	160.471085
2030.214600	157.235596
2029.435425	147.584442
2028.656128	176.430405
2027.876587	157.157394
2027.097046	131.477234
2026.317261	131.455429
2025.537476	163.490601
2024.757446	173.078995
2023.977295	163.436371
2023.197021	166.613373
2022.416626	150.567871
2021.636230	140.933762
2020.855591	160.125443
2020.074707	176.108749
2019.293823	134.460739
2018.512817	153.643906
2017.731689	131.215729
2016.950439	163.192474
2016.168945	134.371490
2015.387451	153.541931
2014.605713	150.318192
2013.823975	175.875061
2013.041992	166.254272
2012.260010	166.226669
2011.477783	127.845436
2010.695435	140.606628
2009.912964	194.899551
2009.130371	156.532654
2008.347656	150.118622
2007.564819	159.674149
2006.781860	153.261719
2005.998779	159.621109
2005.215576	162.786484
2004.432129	149.993988
2003.648682	159.541565
2002.864990	162.705353
2002.081299	130.780609
2001.297363	124.380402
2000.513428	178.567810
1999.729248	168.973602
1998.944946	159.382553
1998.160522	152.981827
1997.375977	194.382080
1996.591309	159.303101
1995.806519	168.833206
1995.021606	191.100159
1994.236572	159.223648
1993.451416	191.036621
1992.666016	171.904358
1991.880615	194.155975
1991.094971	168.664841
1990.309326	146.363998
1989.523438	143.158356
1988.737549	174.942230
1987.951416	139.930496
1987.165161	155.805771
1986.378784	130.346405
1985.592285	178.004501
1984.805664	139.837402
1984.018921	162.057297
1983.232056	158.853256
1982.444946	152.473755
1981.657837	177.856445
1980.870605	168.300400
1980.083130	149.222687
1979.295654	168.244385
1978.507935	142.825226
1977.720093	168.188370
1976.932129	177.678879
1976.144165	158.615448
1975.355957	193.478622
1974.567627	171.247635
1973.779053	174.389832
1972.990479	196.552170
1972.201782	193.349762
1971.412964	167.964432
1970.623901	145.756180
1969.834839	155.236145
1969.045532	180.550735
1968.256226	190.021744
1967.466675	177.324081
1966.677002	202.622330
1965.887207	174.099548
1965.097290	177.235458
1964.307251	208.849838
1963.517090	167.684784
1962.726807	196.126877
1961.936401	177.117325
1961.145874	208.710617
1960.355103	211.837585
1959.564331	199.157364
1958.773315	173.838547
1957.982178	192.770599
1957.191040	180.099869
1956.399658	189.547195
1955.608154	202.149963
1954.816528	195.800110
1954.024780	195.767456
1953.232910	186.263763
1952.440918	167.293777
1951.648682	192.513550
1950.856445	164.082535
1950.063965	154.590439
1949.271484	208.189117
1948.478760	205.000519
1947.685913	230.192932
1946.893066	186.015289
1946.099976	173.375153
1945.306763	179.649704
1944.513428	163.863602
1943.719971	204.795319
1942.926270	195.310623
1942.132568	207.876602
1941.338745	192.096298
1940.544678	226.698746
1939.750610	182.587952
1938.956299	201.442703
1938.161865	204.556091
1937.367310	235.986832
1936.572632	207.633728
1935.777832	242.198898
1934.982910	210.709290
1934.187866	220.107254
1933.392700	179.200256
1932.597290	213.747040
1931.801880	191.711639
1931.006226	197.964188
1930.210571	172.796997
1929.414673	204.180496
1928.618652	226.131378
1927.822510	222.953400
1927.026245	185.240158
1926.229858	207.183167
1925.433350	229.118835
1924.636719	219.666275
1923.839844	207.079285
1923.042969	235.278030
1922.245850	232.102173
1921.448730	238.335342
1920.651367	206.940811
1919.853882	216.311035
1919.056274	222.543701
1918.258545	213.104797
1917.460693	247.536224
1916.662720	225.564896
1915.864624	209.865555
1915.066284	247.412018
1914.267944	209.795334
1913.469360	225.413986
1912.670776	256.678528
1911.871948	206.560333
1911.072998	240.946732
1910.273926	250.292374
1909.474731	231.481689
1908.675415	215.804901
1907.875977	237.658371
1907.076294	212.606110
1906.276611	221.948624
1905.476807	228.162491
1904.676758	243.749237
1903.876587	171.845688
1903.076294	240.543671
1902.275879	187.405243
1901.475342	209.234131
1900.674683	240.422836
1899.873901	237.260712
1899.072998	290.283569
1898.271851	259.026886
1897.470703	265.224060
1896.669312	205.904175
1895.867920	218.346619
1895.066284	205.835175
1894.264526	236.982605
1893.462646	208.883865
1892.660645	280.543243
1891.858521	249.329971
1891.056152	233.707672
1890.253784	221.206177
1889.451172	242.974503
1888.648560	246.048309
1887.845703	264.691132
1887.042725	255.306274
1886.239624	255.263474
1885.436401	202.309067
1884.633057	245.842087
1883.829590	242.689453
1883.025879	251.981400
1882.222168	270.601288
1881.418213	261.226379
1880.614258	295.385040
1879.810059	258.029968
1879.005737	245.553574
1878.201294	270.374390
1877.396729	279.650726
1876.592041	276.497070
1875.787231	239.176437
1874.982178	217.396637
1874.177124	267.042450
1873.371826	260.788391
1872.566406	248.328217
1871.760986	232.768616
1870.955322	238.935669
1870.149536	245.100632
1869.343506	251.263519
1868.537476	254.322815
1867.731323	275.986969
1866.924927	248.036499
1866.118530	251.094788
1865.311890	260.350861
1864.505127	257.208221
1863.698242	275.755280
1862.891235	297.393921
1862.084106	266.370636
1861.276855	288.003571
1860.469482	287.955200
1859.661865	269.332184
1858.854126	272.382172
1858.046387	241.389084
1857.238403	269.196411
1856.430298	281.525940
1855.622070	241.267395
1854.813721	269.060699
1854.005249	278.291870
1853.196533	272.061859
1852.387817	256.560669
1851.578857	271.970398
1850.769775	284.284882
1849.960693	302.774261
1849.151367	281.100250
1848.341919	302.672455
1847.532227	296.445587
1846.722534	253.171356
1845.912720	290.171997
1845.102661	253.086197
1844.292603	256.129517
1843.482300	277.684082
1842.671875	259.128204
1841.861328	280.674988
1841.050659	289.879211
1840.239868	277.497223
1839.428833	277.450531
1838.617798	261.992493
1837.806519	320.501587
1836.995117	289.635376
1836.183716	249.537399
1835.372070	311.099182
1834.560303	283.329773
1833.748291	298.677826
1832.936279	270.919830
1832.124146	292.421021
1831.311768	304.682190
1830.499390	255.397598
1829.686768	264.584259
1828.874023	227.627182
1828.061157	298.325928
1827.248169	316.725708
1826.434937	328.970306
1825.621704	331.988861
1824.808228	310.418762
1823.994751	310.366455
1823.181030	313.386566
1822.367188	325.621368
1821.553223	310.209564
1820.739136	331.653351
1819.924927	276.331207
1819.110474	260.935486
1818.296021	282.376678
1817.481323	300.741852
1816.666626	303.759430
1815.851685	309.843719
1815.036621	285.253540
1814.221436	300.539063
1813.406006	282.091125
1812.590576	272.846497
1811.774902	337.169128
1810.959229	312.595001
1810.143311	312.542267
1809.327271	284.916962
1808.511108	294.058197
1807.694824	303.196350
1806.878418	336.828003
1806.061768	318.401855
1805.245117	272.432526
1804.428223	312.173340
1803.611206	284.580597
1802.794067	284.532593
1801.976807	333.428131
1801.159424	302.787292
1800.341919	314.967926
1799.524170	333.259308
1798.706421	351.544495
1797.888428	268.962555
1797.070313	311.699402
1796.252075	333.034302
1795.433716	305.484467
1794.615234	299.324219
1793.796509	305.381287
1792.977783	293.116516
1792.158813	305.278137
1791.339844	357.115082
1790.520630	302.123260
1789.701294	329.533325
1788.881714	372.187714
1788.062134	271.468109
1787.242432	320.217255
1786.422485	335.408997
1785.602417	320.109039
1784.782349	301.766083
1783.962036	292.572205
1783.141479	350.417877
1782.320923	280.286896
1781.500244	310.700348
1780.679321	359.376892
1779.858398	310.595276
1779.037231	331.854523
1778.215942	322.666351
1777.394531	298.263733
1776.572998	331.686218
1775.751221	334.672577
1774.929443	301.154388
1774.107422	307.186340
1773.285278	301.052521
1772.463013	328.365356
1771.640625	331.349701
1770.818115	300.899750
1769.995483	325.159851
1769.172607	358.526825
1768.349731	309.860565
1767.526611	318.920135
1766.703369	367.455292
1765.880005	330.957397
1765.056519	324.829803
1764.232910	342.986481
1763.409058	342.928436
1762.585083	379.281372
1761.761108	367.082214
1760.936890	339.721039
1760.112549	360.892487
1759.288086	366.895752
1758.463379	342.580170
1757.638672	330.397461
1756.813721	348.525452
1755.988647	357.556824
1755.163574	324.170349
1754.338257	339.261017
1753.512695	369.489563
1752.687134	390.623596
1751.861328	366.336792
1751.035522	348.112335
1750.209473	369.239197
1749.383301	360.098511
1748.557007	344.909851
1747.730591	341.826385
1746.903931	332.694946
1746.077271	356.830414
1745.250366	393.051636
1744.423340	377.870178
1743.596313	377.806122
1742.768921	350.544617
1741.941528	362.570862
1741.114014	407.823059
1740.286255	338.284729
1739.458374	383.525635
1738.630493	398.557465
1737.802368	386.414398
1736.973999	365.220398
1736.145630	319.890869
1735.317139	365.096497
1734.488403	362.017731
1733.659546	377.037811
1732.830566	392.052795
1732.001465	398.016815
1731.172241	358.757294
1730.342896	358.696411
1729.513306	334.525574
1728.683594	376.654053
1727.853882	346.462891
1727.023926	355.440704
1726.193726	382.485626
1725.363525	382.420685
1724.533203	373.323730
1723.702637	385.300995
1722.871948	385.235565
1722.041138	394.197571
1721.210205	412.182404
1720.379150	406.096130
1719.547974	372.943451
1718.716553	327.773651
1717.885010	360.790405
1717.053467	387.783813
1716.221558	366.678955
1715.389648	378.636871
1714.557617	372.563446
1713.725342	342.459778
1712.893066	366.429779
1712.060547	348.349426
1711.227905	363.302704
1710.395142	408.270813
1709.562256	441.217712
1708.729126	402.130066
1707.895874	372.057098
1707.062622	398.993408
1706.229126	398.925537
1705.395508	353.873749
1704.561646	368.805664
1703.727783	374.738770
1702.893677	395.656830
1702.059570	398.586426
1701.225220	395.522247
1700.390747	407.438446
1699.556030	395.387665
1698.721313	401.310120
1697.886353	398.247467
1697.051392	401.173553
1696.216187	383.145325
1695.380859	448.922028
1694.545410	436.876404
1693.709717	362.007172
1692.874023	364.936829
1692.038086	415.717926
1691.202026	379.763947
1690.365845	376.709534
1689.529541	409.527130
1688.692993	403.479919
1687.856445	391.458282
1687.019653	403.342499
1686.182739	442.107605
1685.345703	439.045593
1684.508545	435.984619
1683.671143	400.082092
1682.833740	394.043579
1681.996094	408.899811
1681.158325	405.845978
1680.320435	390.858551
1679.482422	387.808807
1678.644287	411.603821
1677.805908	399.605164
1676.967407	432.334869
1676.128784	426.298950
1675.290039	375.556030
1674.451172	354.631348
1673.612183	420.121826
1672.772949	390.259399
1671.933594	428.914307
1671.094116	393.104401
1670.254517	407.925140
1669.414795	389.993286
1668.574829	440.527985
1667.734863	458.309052
1666.894653	392.769318
1666.054321	407.577393
1665.213867	431.303955
1664.373169	452.048401
1663.532471	428.183319
1662.691528	472.705078
1661.850464	475.596893
1661.009277	398.244446
1660.167969	451.662872
1659.326538	380.282776
1658.484863	427.745087
1657.643066	424.702148
1656.801147	409.782471
1655.959106	439.401825
1655.116943	403.705719
1654.274658	451.123474
1653.432129	412.470093
1652.589478	439.101807
1651.746704	421.228455
1650.903809	382.599915
1650.060791	394.396118
1649.217529	421.012665
1648.374146	426.869476
1647.530640	450.507477
1646.687012	435.613739
1645.843262	423.687897
1644.999390	441.389587
1644.155273	447.237854
1643.311035	423.470764
1642.466675	426.359222
1641.622192	426.286377
1640.777588	452.851868
1639.932739	384.710327
1639.087769	399.438568
1638.242798	467.411163
1637.397461	414.091003
1636.552124	446.550354
1635.706665	443.517212
1634.860962	455.266479
1634.015137	419.719391
1633.169189	404.871307
1632.323120	416.621094
1631.476929	401.778564
1630.630493	431.247345
1629.783936	401.641144
1628.937256	422.241608
1628.090454	398.551483
1627.243530	430.952332
1626.396484	433.829803
1625.549194	424.903412
1624.701782	451.382629
1623.854248	427.707703
1623.006592	442.380524
1622.158691	451.150909
1621.310791	409.798981
1620.462646	465.734924
1619.614380	406.711517
1618.765991	418.428589
1617.917358	424.249298
1617.068726	456.579041
1616.219849	468.281525
1615.370850	485.869324
1614.521729	438.679596
1613.672363	462.153687
1612.822998	423.813568
1611.973389	400.199829
1611.123657	435.436951
1610.273804	429.479095
1609.423828	449.993439
1608.573608	414.628784
1607.723389	449.839264
1606.872925	446.822540
1606.022339	502.589233
1605.171509	420.221893
1604.320679	434.840424
1603.469604	455.329132
1602.618408	425.880066
1601.767090	440.490051
1600.915649	440.414520
1600.064087	443.274628
1599.212280	466.679321
1598.360352	425.515106
1597.508301	487.057892
1596.656128	422.435577
1595.803833	451.693909
1594.951294	451.616455
1594.098633	425.150330
1593.245850	407.488007
1592.392944	381.038513
1591.539795	451.306641
1590.686646	427.788727
1589.833252	468.729126
1588.979736	436.429108
1588.126099	448.068420
1587.272217	424.567108
1586.418335	444.987091
1585.564209	444.910706
1584.709961	433.128174
1583.855591	471.092316
1583.000977	432.979462
1582.146362	424.130035
1581.291504	465.000671
1580.436523	456.148712
1579.581421	491.152740
1578.726074	453.069061
1577.870605	455.913757
1577.015137	505.509827
1576.159424	420.698914
1575.303467	455.678864
1574.447510	478.964722
1573.591309	432.162201
1572.734985	432.087952
1571.878540	396.985565
1571.021973	455.287567
1570.165161	423.111237
1569.308350	510.563721
1568.451294	446.301849
1567.594116	449.141663
1566.736694	481.140472
1565.879272	498.550781
1565.021606	504.295074
1564.163818	448.832886
1563.305908	492.465698
1562.447876	504.035004
1561.589600	518.513306
1560.731201	477.649200
1559.872681	463.007080
1559.014038	462.927460
1558.155273	486.135773
1557.296265	555.903931
1556.437134	477.238556
1555.577881	482.975433
1554.718506	468.347412
1553.859009	465.358337
1552.999268	474.002228
1552.139404	523.347961
1551.279419	488.374023
1550.419312	456.318604
1549.558960	476.581970
1548.698608	491.027374
1547.838013	441.558075
1546.977173	461.813477
1546.116333	482.061890
1545.255249	508.110260
1544.394165	493.507843
1543.532837	505.032806
1542.671265	475.925964
1541.809692	458.435059
1540.947876	498.969940
1540.085938	478.580597
1539.223877	484.298126
1538.361694	455.219818
1537.499268	472.535309
1536.636841	515.931274
1535.774170	501.352417
1534.911377	489.676056
1534.048340	486.694672
1533.185303	495.300293
1532.322021	492.318939
1531.458618	544.352966
1530.594971	547.154114
1529.731323	503.642365
1528.867432	500.661560
1528.003418	520.829712
1527.139282	486.023926
1526.275024	503.295135
1525.410522	442.476318
1524.545898	520.470581
1523.681152	456.778717
1522.816284	523.181580
1521.951172	551.991394
1521.086060	488.326996
1520.220703	476.686737
1519.355225	537.263245
1518.489502	467.858215
1517.623779	493.765137
1516.757813	482.131866
1515.891724	493.594757
1515.025513	450.219238
1514.159058	453.027069
1513.292480	452.948883
1512.425781	475.946899
1511.558960	498.936981
1510.692017	507.501434
1509.824829	472.817413
1508.957520	510.208740
1508.090088	518.766785
1507.222534	475.454071
1506.354736	484.015106
1505.486938	481.050964
1504.618896	478.087830
1503.750610	434.812012
1502.882324	498.076050
1502.013794	503.747131
1501.145142	497.903992
1500.276367	512.205750
1499.407471	448.821869
1498.538330	494.769379
1497.669067	471.675323
1496.799683	500.349518
1495.930176	491.637817
1495.060547	500.176575
1494.190674	471.349304
1493.320679	491.382935
1492.450562	462.567108
1491.580200	473.977509
1490.709717	562.930481
1489.839233	491.043182
1488.968384	482.344971
1488.097534	513.838196
1487.226440	473.567841
1486.355347	507.921265
1485.483887	553.739258
1484.612427	490.533844
1483.740845	501.921478
1482.869019	536.246155
1481.997070	516.083496
1481.124878	564.726990
1480.252686	530.235596
1479.380249	507.218689
1478.507690	541.512695
1477.635010	544.283569
1476.762207	509.819519
1475.889160	495.412994
1475.015991	523.958862
1474.142700	555.357483
1473.269165	578.158752
1472.395630	583.781982
1471.521851	586.542053
1470.647949	617.908020
1469.773804	603.500061
1468.899658	683.466980
1468.025269	680.489441
1467.150757	717.534729
1466.276001	820.305969
1465.401245	823.021545
1464.526245	920.024414
1463.651123	974.142761
1462.775879	988.255066
1461.900391	1133.726318
1461.024780	1227.752686
1460.149048	1244.668335
1459.273193	1301.537598
1458.397217	1284.189453
1457.520996	1286.820190
1456.644653	1269.480469
1455.768188	1206.510498
1454.891479	1189.190674
1454.014648	1134.810059
1453.137695	1054.791260
1452.260620	1071.710083
1451.383423	929.034302
1450.505981	926.023926
1449.628418	885.979919
1448.750732	885.826233
1447.872803	825.868347
1446.994873	748.847229
1446.116699	708.861633
1445.238403	731.509338
1444.359863	708.615662
1443.481201	708.492676
1442.602417	699.835144
1441.723511	676.958801
1440.844482	631.339355
1439.965210	702.314209
1439.085815	696.506531
1438.206299	716.282349
1437.326538	724.683655
1436.446777	809.799988
1435.566772	832.386658
1434.686646	849.284607
1433.806274	857.656860
1432.925781	780.843323
1432.045166	763.674072
1431.164429	661.357483
1430.283569	630.025085
1429.402466	615.728394
1428.521240	621.295349
1427.639893	524.747314
1426.758301	496.296387
1425.876709	510.387573
1424.994873	558.493774
1424.112793	558.396729
1423.230713	527.125549
1422.348389	478.864197
1421.465942	504.278168
1420.583374	481.530243
1419.700562	504.102844
1418.817627	535.162231
1417.934570	537.900208
1417.051392	501.009399
1416.167969	498.092194
1415.284546	540.449219
1414.400757	529.038879
1413.516968	452.574890
1412.633057	494.917664
1411.748901	480.693542
1410.864624	486.264160
1409.980103	542.712036
1409.095459	539.791504
1408.210815	477.533447
1407.325806	519.827637
1406.440796	468.893311
1405.555542	502.701691
1404.670166	528.027283
1403.784668	485.587616
1402.899048	508.084625
1402.013184	522.107178
1401.127197	505.086029
1400.241089	507.819336
1399.354736	507.730896
1398.468262	555.586487
1397.581665	414.502502
1396.694946	524.381226
1395.807983	504.558563
1394.920898	487.561035
1394.033691	524.107300
1393.146362	509.929535
1392.258789	552.092651
1391.371094	526.649719
1390.483276	526.557922
1389.595337	532.096863
1388.707153	529.189270
1387.818848	537.540100
1386.930420	548.701843
1386.041748	534.539368
1385.152954	590.703735
1384.264038	554.039734
1383.375000	539.883667
1382.485718	528.543945
1381.596313	553.750000
1380.706787	587.378540
1379.817139	587.276123
1378.927246	587.173706
1378.037231	643.250366
1377.147095	612.245117
1376.256714	598.098450
1375.366333	651.336304
1374.475586	654.029663
1373.584839	637.076538
1372.693970	628.547363
1371.802856	544.271912
1370.911499	603.082703
1370.020142	625.413818
1369.128540	656.149292
1368.236816	611.177673
1367.344971	655.920288
1366.453003	624.977295
1365.560791	610.857727
1364.668457	641.568787
1363.775879	705.882568
1362.883301	716.961853
1361.990479	728.037231
1361.097534	817.499023
1360.204346	741.778809
1359.311035	836.804199
1358.417603	845.052612
1357.524048	791.748779
1356.630249	772.029968
1355.736450	777.488525
1354.842285	721.428040
1353.948120	679.365845
1353.053711	682.042358
1352.159180	617.643555
1351.264526	628.712708
1350.369751	600.664978
1349.474731	567.040344
1348.579590	547.391541
1347.684204	550.088196
1346.788818	656.081848
1345.893188	586.183411
1344.997314	552.590576
1344.101440	597.139893
1343.205322	636.093872
1342.309082	605.299255
1341.412720	591.248901
1340.516113	627.394958
1339.619385	641.224854
1338.722534	660.624817
1337.825439	685.591919
1336.928223	682.685486
1336.030884	738.285706
1335.133423	693.588623
1334.235718	726.887329
1333.337891	765.743408
1332.439941	907.595154
1331.541870	951.973083
1330.643555	999.118469
1329.745117	1107.463867
1328.846436	1129.526733
1327.947754	1212.776978
1327.048828	1137.474609
1326.149780	1090.004761
1325.250488	950.807068
1324.351074	867.251038
1323.451538	850.424194
1322.551880	800.259033
1321.651978	722.329529
1320.751953	713.869873
1319.851807	635.982788
1318.951416	660.861938
1318.050903	616.326233
1317.150269	521.842468
1316.249512	552.278992
1315.348511	516.110046
1314.447388	602.022827
1313.546021	543.667297
1312.644653	579.625244
1311.743042	576.750793
1310.841309	521.202576
1309.939331	579.320435
1309.037231	543.190918
1308.135010	601.284485
1307.232666	598.408630
1306.330078	653.702209
1305.427368	656.356995
1304.524536	678.393555
1303.621460	620.136719
1302.718262	658.779663
1301.814941	619.919189
1300.911499	630.878479
1300.007813	575.437256
1299.104004	605.762756
1298.199951	561.407593
1297.295898	541.953613
1296.391602	572.268921
1295.487061	572.168457
1294.582520	538.904663
1293.677734	497.363159
1292.772827	511.089081
1291.867676	552.431702
1290.962402	494.339600
1290.057007	516.342285
1289.151489	496.926727
1288.245728	507.880341
1287.339844	438.797791
1286.433838	471.831726
1285.527588	460.713776
1284.621216	383.401001
1283.714722	471.583130
1282.808105	441.169861
1281.901245	402.496765
1280.994263	493.385376
1280.087036	443.693237
1279.179810	465.658264
1278.272217	454.556854
1277.364624	429.687317
1276.456787	424.103943
1275.548828	388.234711
1274.640747	412.943054
1273.732544	437.642700
1272.824097	456.829651
1271.915405	415.476807
1271.006714	420.905792
1270.097778	451.087646
1269.188721	434.508026
1268.279541	371.191559
1267.370117	417.860687
1266.460571	340.826385
1265.550781	409.469360
1264.640991	423.135498
1263.730957	434.049652
1262.820679	442.213287
1261.910400	420.166016
1260.999878	428.329163
1260.089233	469.432037
1259.178345	439.157379
1258.267334	461.034088
1257.356201	518.572021
1256.444824	515.737488
1255.533447	603.416321
1254.621704	595.083130
1253.709961	562.076355
1252.797974	518.115723
1251.885864	518.024475
1250.973633	531.635193
1250.061157	454.824249
1249.148560	471.180664
1248.235840	413.579956
1247.322876	443.630127
1246.409790	465.455780
1245.496582	418.836395
1244.583130	443.395691
1243.669556	426.898407
1242.755859	440.503418
1241.841919	418.541260
1240.927856	396.586853
1240.013672	429.332153
1239.099365	412.851776
1238.184814	426.447174
1237.270142	396.307312
1236.355225	418.098816
1235.440186	415.292908
1234.525024	407.024567
1233.609741	423.340149
1232.694214	395.958069
1231.778564	423.190857
1230.862671	442.224701
1229.946777	414.853699
1229.030640	417.509338
1228.114258	368.325592
1227.197876	474.647034
1226.281128	447.289520
1225.364380	496.294708
1224.447388	477.122253
1223.530273	474.312103
1222.613037	517.835632
1221.695557	572.243591
1220.777954	618.458923
1219.860229	582.937683
1218.942261	724.458130
1218.024170	675.315430
1217.105957	656.138245
1216.187500	626.079468
1215.268921	593.309631
1214.350220	536.061279
1213.431274	527.804688
1212.512207	519.550964
1211.593018	473.224640
1210.673706	484.017853
1209.754150	459.463867
1208.834351	437.636749
1207.914551	491.914642
1206.994507	440.199402
1206.074219	431.971222
1205.153931	383.001129
1204.233398	404.660156
1203.312744	399.157928
1202.391846	412.661774
1201.470825	431.589630
1200.549683	428.799408
1199.628296	415.156403
1198.706787	398.805237
1197.785156	401.447205
1196.863281	425.784241
1195.941284	436.555023
1195.019165	403.945313
1194.096802	420.137268
1193.174438	411.932678
1192.251709	398.311798
1191.328979	406.368713
1190.406006	427.966003
1189.482788	438.722931
1188.559570	441.352997
1187.636108	395.252380
1186.712402	392.475708
1185.788696	443.824982
1184.864746	419.394501
1183.940552	357.098541
1183.016357	427.360474
1182.091919	448.919495
1181.167236	424.505341
1180.242554	408.209900
1179.317505	391.920258
1178.392456	443.196808
1177.467163	510.666870
1176.541748	448.442780
1175.616211	542.897827
1174.690430	586.009766
1173.764526	634.506409
1172.838501	653.290894
1171.912231	739.545410
1170.985840	890.535583
1170.059204	974.019348
1169.132446	1081.752197
1168.205566	1146.292236
1167.278564	1167.662598
1166.351318	1135.101196
1165.423828	1067.506958
1164.496338	927.164856
1163.568604	897.358032
1162.640747	819.064514
1161.712646	727.329651
1160.784424	708.347290
1159.856079	745.921753
1158.927490	713.480896
1157.998779	656.824402
1157.069946	689.005005
1156.140869	691.573730
1155.211670	734.498596
1154.282349	715.538330
1153.352783	777.270264
1152.423096	863.181641
1151.493164	881.848389
1150.563232	879.003845
1149.632935	776.718750
1148.702637	822.262146
1147.772095	720.023315
1146.841431	655.427307
1145.910522	604.282654
1144.979492	593.434448
1144.048340	488.623962
1143.116943	488.537231
1142.185425	442.825989
1141.253784	448.113983
1140.321899	442.668732
1139.389893	437.225372
1138.457764	418.374512
1137.525391	370.034790
1136.592896	391.416534
1135.660278	364.542419
1134.727417	412.717346
1133.794434	415.323517
1132.861206	383.101349
1131.927856	380.354736
1130.994385	412.424072
1130.060669	404.317963
1129.126831	414.954620
1128.192871	406.850922
1127.258667	382.693024
1126.324341	422.760468
1125.389893	401.283508
1124.455200	363.765717
1123.520386	339.632568
1122.585327	360.962555
1121.650146	382.284943
1120.714844	382.216949
1119.779297	368.787109
1118.843628	363.377716
1117.907837	360.641663
1116.971802	403.312622
1116.035645	373.865692
1115.099365	363.119202
1114.162842	336.359406
1113.226196	344.306671
1112.289307	344.245422
1111.352417	365.528900
1110.415161	354.793365
1109.477905	349.395935
1108.540405	357.333740
1107.602661	383.932068
1106.664917	421.183807
1105.726807	397.121613
1104.788696	391.721344
1103.850342	466.251892
1102.911865	418.220062
1101.973145	370.205322
1101.034302	436.711212
1100.095337	391.372650
1099.156128	393.964844
1098.216797	393.894653
1097.277344	369.875702
1096.337646	383.112305
1095.397827	391.024139
1094.457764	417.549988
1093.517700	372.271210
1092.577271	364.229034
1091.636841	390.745453
1090.696167	411.937073
1089.755249	395.920532
1088.814209	398.506653
1087.873047	382.498169
1086.931763	501.939362
1085.990234	525.747437
1085.048584	613.262634
1084.106689	467.164398
1083.164673	419.311432
1082.222412	379.435699
1081.280151	358.144623
1080.337524	355.428284
1079.394897	389.840576
1078.452026	413.634552
1077.509033	392.352509
1076.565796	394.933044
1075.622437	363.061554
1074.678955	336.500641
1073.735229	362.931976
1072.791382	376.110535
1071.847290	341.616882
1070.903076	378.623993
1069.958740	367.967407
1069.014160	359.961365
1068.069458	328.141479
1067.124512	349.249512
1066.179565	346.541779
1065.234253	367.638977
1064.288940	362.284485
1063.343384	417.742523
1062.397583	364.798553
1061.451660	348.875397
1060.505615	362.025696
1059.559448	367.245117
1058.613037	372.462646
1057.666382	396.166046
1056.719727	369.688904
1055.772827	359.062195
1054.825684	390.674316
1053.878418	385.326019
1052.931030	411.644623
1051.983398	393.103119
1051.035645	432.599884
1050.087769	387.687897
1049.139648	424.534607
1048.191406	406.003967
1047.242920	432.290558
1046.294312	437.484131
1045.345581	524.360046
1044.396606	468.941681
1043.447510	539.976685
1042.498291	513.544495
1041.548828	542.416565
1040.599121	534.421692
1039.649414	497.475983
1038.699341	571.073914
1037.749268	578.865295
1036.798950	549.823608
1035.848511	591.809448
1034.897827	554.886414
1033.947021	565.304382
1032.996094	544.172363
1032.044922	528.304626
1031.093506	478.279724
1030.142090	446.664795
1029.190430	472.854523
1028.238525	441.251831
1027.286499	378.148132
1026.334351	412.212646
1025.381958	370.137390
1024.429443	385.818787
1023.476807	406.742859
1022.523926	406.669983
1021.570923	372.495422
1020.617737	380.296875
1019.664368	351.383789
1018.710815	361.808014
1017.757080	429.897675
1016.803223	366.920044
1015.849121	387.817352
1014.894897	392.987671
1013.940491	377.200531
1012.985962	400.703705
1012.031189	363.972717
1011.076294	348.199219
1010.121216	424.046295
1009.165955	395.182159
1008.210510	345.395294
1007.254944	381.959595
1006.299133	400.200928
1005.343201	434.127014
1004.387085	405.286835
1003.430786	365.999847
1002.474365	433.893372
1001.517700	493.922485
1000.560913	499.059601
999.603943	527.706543
998.646790	540.671509
997.689514	501.402405
996.731995	509.145386
995.774353	542.990906
994.816528	498.522339
993.858521	461.898468
992.900330	448.769897
991.942017	438.254669
990.983459	391.228546
990.024780	391.158264
989.065918	404.124268
988.106873	401.444916
987.147705	422.223328
986.188293	414.329926
985.228760	390.807037
984.269043	455.859619
983.309143	440.151062
982.349060	447.883881
981.388794	442.596375
980.428406	458.135071
979.467834	484.078430
978.507019	554.248230
977.546082	634.799316
976.585022	699.714417
975.623718	886.839111
974.662292	923.082886
973.700623	1081.502686
972.738831	1146.290649
971.776855	1081.113647
970.814758	1031.550293
969.852417	875.490967
968.889954	745.462036
967.927246	623.270752
966.964417	607.579651
966.001404	503.629242
965.038208	495.751953
964.074890	454.141235
963.111328	477.411133
962.147644	433.224518
961.183777	453.896088
960.219727	391.576965
959.255493	420.026825
958.291077	427.728058
957.326538	409.508301
956.361755	456.079010
955.396851	411.951721
954.431763	411.877533
953.466492	357.414215
952.501038	367.707825
951.535461	375.408661
950.569641	367.575348
949.603699	463.268555
948.637573	414.020203
947.671265	444.991516
946.704773	455.258118
945.738098	450.003632
944.771240	475.780151
943.804260	486.035583
942.837097	467.854156
941.869751	534.963257
940.902222	527.115173
939.934509	506.352661
938.966614	557.920715
937.998535	557.820129
937.030334	518.989014
936.061951	485.334991
935.093323	443.949829
934.124573	454.192291
933.155640	423.148315
932.186584	412.753143
931.217285	428.154144
930.247864	394.552795
929.278198	415.108093
928.308411	415.033203
927.338440	345.369019
926.368286	396.845001
925.397949	383.891144
924.427429	399.277771
923.456787	414.658813
922.485901	414.583954
921.514893	368.166473
920.543701	404.137787
919.572327	404.064789
918.600769	440.016602
917.629028	409.064362
916.657104	378.123260
915.685059	388.342194
914.712769	395.986053
913.740356	331.642700
912.767761	390.702179
911.794983	434.320679
910.822021	367.435699
909.848877	423.887665
908.875549	375.008575
907.902039	423.734497
906.928406	400.549286
905.954590	436.417114
904.980530	390.137726
904.006348	400.332123
903.031982	423.351654
902.057434	484.842407
901.082703	459.106354
900.107849	461.587708
899.132751	487.143372
898.157532	510.126312
897.182068	512.597046
896.206482	466.378937
895.230713	461.170441
894.254761	409.855133
893.278625	427.708893
892.302307	437.874207
891.325806	391.711273
890.349182	437.715759
889.372314	414.603027
888.395325	424.763275
887.418091	355.610901
886.440735	416.935852
885.463196	406.630676
884.485474	404.000092
883.507568	383.474945
882.529480	449.862488
881.551270	460.003326
880.572815	434.368896
879.594238	390.861237
878.615417	416.332306
877.636475	411.149445
876.657349	416.181488
875.677979	449.292480
874.698486	416.030701
873.718811	418.507202
872.739014	477.113831
871.758972	499.985901
870.778748	520.299194
869.798401	446.254211
868.817810	430.875946
867.837097	395.110474
866.856140	412.879303
865.875061	412.804443
864.893799	420.372772
863.912354	417.749298
862.930725	430.407501
861.948914	430.329437
860.966919	491.352203
859.984741	442.900391
859.002441	460.634674
858.019897	458.006622
857.037231	503.715912
856.054321	457.840485
855.071289	457.757416
854.088074	442.418549
853.104614	457.591309
852.121033	477.841980
851.137268	513.332764
850.153320	480.209320
849.169189	538.549744
848.184937	530.832397
847.200439	609.457642
846.215759	586.496460
845.230896	616.851807
844.245911	741.102966
843.260681	888.147034
842.275330	999.618225
841.289795	1088.219116
840.304016	1110.847046
839.318115	1009.216553
838.332031	900.017029
837.345764	803.531189
836.359314	699.477356
835.372681	646.138794
834.385864	648.554810
833.398865	610.442627
832.411743	579.941711
831.424377	600.092590
830.436829	637.957153
829.449158	559.376648
828.461243	640.255920
827.473206	584.475220
826.484924	581.839233
825.496521	624.731079
824.507935	601.858154
823.519104	518.312988
822.530151	551.081360
821.541016	583.837769
820.551697	566.042725
819.562195	535.621582
818.572510	583.519226
817.582642	631.399414
816.592590	618.658875
815.602356	719.533447
814.611938	744.644653
813.621399	870.697144
812.630615	1042.123169
811.639648	1243.760742
810.648560	1611.802124
809.657227	2015.016357
808.665771	2211.323730
807.674072	2115.122803
806.682251	1782.025757
805.690186	1466.690430
804.697998	1191.783936
803.705566	932.092468
802.713013	788.356201
801.720276	682.446045
800.727356	659.661621
799.734253	614.229431
798.740906	644.320007
797.747437	583.808655
796.753784	613.893738
795.759949	528.254883
794.765930	533.188721
793.771729	507.945709
792.777344	515.395508
791.782776	537.924561
790.788025	532.800049
789.793091	512.600952
788.798035	489.896851
787.802734	502.366699
786.807251	507.297821
785.811584	494.650726
784.815796	411.715363
783.819763	479.410309
782.823547	456.736969
781.827148	431.562775
780.830627	449.044464
779.833862	418.864471
778.836975	391.203217
777.839844	433.755157
776.842529	483.811981
775.845093	451.141235
774.847412	448.553040
773.849609	448.471161
772.851563	405.804840
771.853394	500.902161
770.854980	415.672882
769.856445	388.057434
768.857666	433.043091
767.858765	445.477417
766.859680	457.907196
765.860352	512.862427
764.860901	500.262238
763.861206	467.659729
762.861389	457.572723
761.861389	422.489960
760.861145	479.900909
759.860779	449.824890
758.860168	409.765564
757.859436	442.166168
756.858521	439.587708
755.857361	449.496155
754.856079	461.897705
753.854614	464.309570
752.852905	431.778870
751.851074	456.653687
750.848999	496.488892
749.846802	503.881500
748.844421	511.271393
747.841797	531.126282
746.839050	416.346802
745.836121	456.152863
744.832947	428.655426
743.829651	468.444611
742.826111	548.079590
741.822449	460.800781
740.818604	475.658630
739.814514	468.101868
738.810303	475.484558
737.805847	418.150696
736.801270	475.310516
735.796448	470.247345
734.791504	492.549896
733.786316	465.100861
732.781006	524.696899
731.775452	487.306915
730.769775	457.388031
729.763855	482.157745
728.757751	467.160095
727.751526	501.856659
726.745056	459.537018
725.738403	474.354004
724.731628	471.784058
723.724609	464.249756
722.717407	431.896545
721.710083	471.524780
720.702515	466.475861
719.694763	481.275177
718.686829	510.951111
717.678711	471.179199
716.670410	446.298462
715.661987	490.838318
714.653320	508.098022
713.644470	465.877655
712.635437	488.090790
711.626221	478.092621
710.616821	502.772034
709.607178	475.441040
708.597412	480.305420
707.587463	457.939209
706.577332	465.279877
705.567017	457.771210
704.556458	457.687225
703.545776	427.920868
702.534912	487.196198
701.523804	427.763855
700.512573	487.017395
699.501099	494.343170
698.489502	484.367371
697.477661	506.515747
696.465698	471.837799
695.453491	548.318115
694.441101	464.256226
693.428589	486.391907
692.415833	515.925110
691.402893	508.426086
690.389771	454.044739
689.376465	478.633179
688.362976	483.478699
687.349304	540.114197
686.335449	470.971985
685.321411	493.073761
684.307190	492.983154
683.292725	460.854553
682.278137	450.913818
681.263367	514.883423
680.248352	472.916046
679.233215	563.947205
678.217834	549.070374
677.202332	526.813721
676.186584	438.110260
675.170654	484.785706
674.154541	482.236176
673.138306	514.126648
672.121826	469.761414
671.105164	464.756927
670.088318	496.632996
669.071289	543.246033
668.054016	476.788879
667.036621	493.901733
666.019043	535.575928
665.001282	498.632629
663.983276	483.805664
662.965149	483.716644
661.946777	473.807770
660.928223	481.084076
659.909546	485.903656
658.890625	473.546173
657.871521	510.256317
656.852234	492.993439
655.832764	512.520691
654.813110	490.360107
653.793274	480.464417
652.773254	490.179504
651.752991	436.179413
650.732605	499.798920
649.711975	480.110504
648.691223	470.225708
647.670227	509.317322
646.649048	479.845215
645.627747	531.159302
644.606201	516.377686
643.584473	482.026794
642.562561	523.526550
641.540466	535.659729
640.518127	498.878693
639.495667	481.671509
638.473022	520.696045
637.450134	520.600037
636.427063	540.053467
635.403870	515.521545
634.380432	525.197632
633.356812	520.216125
632.333008	507.910736
631.309021	495.609924
630.284851	556.542908
629.260498	522.272888
628.235901	549.017395
627.211182	548.916077
626.186218	558.571472
625.161133	536.519836
624.135803	507.161530
623.110291	565.575745
622.084595	524.035950
621.058716	526.376160
620.032654	550.643738
619.006409	577.338379
617.979919	601.587524
616.953308	577.125183
615.926453	584.322632
614.899414	540.398621
613.872253	584.106812
612.844849	601.032227
611.817261	608.219849
610.789490	583.783142
609.761475	612.859070
608.733337	578.704407
607.705017	539.700134
606.676453	542.031067
605.647705	571.093079
604.618774	539.401001
603.589722	575.740540
602.560425	599.922485
601.530884	580.384521
600.501221	572.993408
599.471375	585.024902
598.441284	599.478943
597.411011	545.983093
596.380615	574.995850
595.349976	550.632568
594.319153	550.530701
593.288147	564.977661
592.256897	530.932251
591.225525	530.834045
590.193970	569.511047
589.162170	574.251648
588.130188	588.680725
587.098022	547.395996
586.065674	520.656433
585.033142	600.459961
584.000427	505.939117
582.967468	556.672058
581.934387	493.652496
580.901062	532.271790
579.867554	532.173218
578.833862	636.071106
577.799988	568.247253
576.765930	594.735901
575.731628	565.619568
574.697205	587.265381
573.662537	509.835571
572.627747	560.473633
571.592712	594.185242
570.557434	584.415405
569.522034	548.089722
568.486450	535.917908
567.450623	543.059387
566.414673	591.221741
565.378479	545.270813
564.342102	542.757446
563.305542	545.068665
562.268799	672.769714
561.231812	609.961243
560.194702	626.721375
559.157349	624.195129
558.119812	633.717651
557.082092	643.236633
556.044189	652.752075
555.006042	611.691040
553.967773	647.694336
552.929260	637.944824
551.890625	584.874817
550.851746	608.830750
549.812683	587.063782
548.773376	644.688110
547.733948	589.250977
546.694275	644.448792
545.654419	608.265991
544.614441	605.749268
543.574158	610.443481
542.533752	653.581848
541.493164	641.448364
540.452332	684.564941
539.411316	682.036255
538.370178	684.310669
537.328735	700.988098
536.287170	664.854919
535.245422	664.731384
534.203430	705.396118
533.161255	734.051392
532.118896	700.337158
531.076355	724.186768
530.033630	779.195190
528.990723	762.270813
527.947571	788.492126
526.904236	797.930298
525.860718	740.284180
524.817017	783.261902
523.773132	761.562622
522.729004	759.026611
521.684692	773.249207
520.640198	698.906433
519.595520	744.244812
518.550659	717.787476
517.505615	698.516541
516.460327	719.912231
515.414856	719.778259
514.369202	662.264099
513.323364	654.969666
512.277283	671.577454
511.231079	685.789551
510.184631	652.215027
509.138000	656.870850
508.091187	630.478638
507.044159	618.422607
505.996948	594.434631
504.949554	670.702942
503.901947	687.282837
502.854126	601.260498
501.806152	665.557312
500.757965	632.042419
499.709564	672.463257
