#Wave		#Intensity
3200.600830	96.826599
3200.007080	37.888672
3199.413086	63.138241
3198.819092	29.460058
3198.224854	58.911213
3197.630615	54.695000
3197.036377	67.306747
3196.442139	58.884502
3195.847656	33.643200
3195.252930	67.276230
3194.658447	42.041283
3194.063721	54.645405
3193.468750	42.028572
3192.873779	63.033325
3192.278809	4.201586
3191.683838	21.004755
3191.088623	50.403786
3190.493164	75.594246
3189.897949	58.786633
3189.302490	75.571381
3188.706787	67.164398
3188.111328	37.774258
3187.515381	71.340584
3186.919678	104.896751
3186.323730	71.319000
3185.727783	33.556805
3185.131592	54.521557
3184.535400	58.706638
3183.939209	54.505058
3183.342773	50.304749
3182.746338	33.531425
3182.149902	25.144762
3181.553223	71.232712
3180.956543	58.653355
3180.359619	54.455585
3179.762695	71.200371
3179.165771	29.313362
3178.568604	79.552795
3177.971436	83.727104
3177.374268	66.971542
3176.776855	50.221054
3176.179443	46.028996
3175.581787	92.044052
3174.984131	46.015057
3174.386475	75.285965
3173.788574	71.092644
3173.190674	16.725147
3172.592773	75.251762
3171.994629	62.700306
3171.396484	33.435097
3170.798340	58.502560
3170.199951	96.096786
3169.601563	75.194786
3169.002930	87.713966
3168.404297	29.233559
3167.805664	58.458260
3167.206787	29.224701
3166.607910	41.743244
3166.008789	70.952766
3165.409912	58.422832
3164.810547	62.586407
3164.211426	62.576923
3163.612061	50.053951
3163.012695	37.534775
3162.413086	41.698982
3161.813477	29.184862
3161.213623	41.686340
3160.614014	45.848022
3160.013916	25.004221
3159.414063	41.667385
3158.813965	54.159389
3158.213867	79.144028
3157.613525	41.648434
3157.013184	62.463181
3156.412598	58.290127
3155.812256	45.792439
3155.211426	58.272446
3154.610840	45.778549
3154.010010	95.704269
3153.409180	54.085514
3152.808105	79.036064
3152.207031	66.546593
3151.605957	62.377964
3151.004639	49.894802
3150.403320	62.359039
3149.801758	58.192940
3149.200195	74.808144
3148.598633	70.641411
3147.996826	74.785439
3147.395020	45.695278
3146.793213	87.223198
3146.191162	29.069988
3145.589111	41.522251
3144.986816	24.909569
3144.384766	49.811577
3143.782227	53.954350
3143.179932	45.646751
3142.577393	58.087044
3141.974609	66.375114
3141.371826	53.921593
3140.769043	41.471851
3140.166260	41.465553
3139.563232	41.459255
3138.960205	53.888851
3138.356934	82.893333
3137.753662	29.008261
3137.150391	82.868156
3136.546875	66.284454
3135.943359	82.842987
3135.339600	33.132160
3134.735840	57.972473
3134.132080	70.384453
3133.528076	74.513390
3132.924072	74.502075
3132.320068	49.660503
3131.715820	86.892677
3131.111572	57.919647
3130.507080	86.866272
3129.902588	49.630325
3129.298096	70.298943
3128.693604	70.288261
3128.088867	45.473724
3127.483887	82.666931
3126.878906	86.787086
3126.273926	95.038078
3125.668945	111.549477
3125.063721	90.878349
3124.458252	66.083298
3123.853027	45.425358
3123.247559	53.676353
3122.641846	99.079742
3122.036133	61.915421
3121.430420	99.049606
3120.824707	111.413864
3120.218750	107.271111
3119.612549	74.253319
3119.006592	65.992912
3118.400391	70.106804
3117.793945	70.096138
3117.187500	53.594776
3116.581055	74.196861
3115.974609	53.578472
3115.367920	49.449528
3114.760986	94.763840
3114.154297	90.629883
3113.547363	82.378265
3112.940186	65.892586
3112.333008	41.176598
3111.725830	69.989563
3111.118408	74.095322
3110.510986	74.084045
3109.903564	65.842461
3109.295898	61.717911
3108.688232	78.164124
3108.080566	90.492043
3107.472656	94.590919
3106.864746	49.344269
3106.256592	37.002567
3105.648438	41.107704
3105.040039	45.211590
3104.431885	98.628448
3103.823486	45.197823
3103.214844	45.190941
3102.606201	65.722267
3101.997559	78.033302
3101.388672	65.702248
3100.779785	65.692245
3100.170898	82.102798
3099.561768	57.463203
3098.952637	61.558338
3098.343262	53.342430
3097.733887	57.436943
3097.124512	65.632217
3096.514893	82.027779
3095.905273	57.410694
3095.295410	82.002777
3094.685791	90.189316
3094.075684	65.582230
3093.465820	49.179176
3092.855713	69.659882
3092.245361	77.843300
3091.635254	61.445869
3091.024658	77.819572
3090.414307	53.236851
3089.803711	102.362953
3089.193115	77.783989
3088.582275	49.119236
3087.971436	90.038208
3087.360596	57.288303
3086.749512	73.645157
3086.138428	61.361607
3085.527100	85.893150
3084.915771	57.253368
3084.304443	57.244637
3083.692871	53.147625
3083.081299	53.139519
3082.469482	77.653603
3081.857910	93.987396
3081.245850	85.801491
3080.634033	69.447754
3080.021973	93.944389
3079.409668	57.174816
3078.797607	48.999508
3078.185059	77.570717
3077.572754	73.476830
3076.960205	110.198433
3076.347656	102.020012
3075.734863	102.004440
3075.122070	81.591103
3074.509033	85.657578
3073.895996	65.252960
3073.282959	69.320686
3072.669922	69.310104
3072.056641	77.452408
3071.443115	77.440582
3070.829834	65.203163
3070.216064	97.789818
3069.602539	57.035347
3068.988770	57.026638
3068.375000	69.236061
3067.760986	32.576698
3067.146973	61.071983
3066.532715	85.487717
3065.918701	77.334221
3065.304199	69.183205
3064.689941	48.827744
3064.075439	73.230431
3063.460693	93.557922
3062.846191	65.073830
3062.231445	24.398958
3061.616455	60.988075
3061.001465	77.239761
3060.386475	56.904808
3059.771240	65.024132
3059.156006	97.521294
3058.540771	89.380852
3057.925293	85.305054
3057.309814	56.861343
3056.694092	93.400787
3056.078369	32.482262
3055.462646	81.193245
3054.846680	56.826584
3054.230713	73.051582
3053.614502	64.924812
3052.998291	48.686165
3052.382080	68.961517
3051.765625	105.454437
3051.149170	93.272354
3050.532715	109.476883
3049.916016	89.189743
3049.299316	85.122650
3048.682373	68.898270
3048.065430	40.522198
3047.448486	101.289993
3046.831299	56.713722
3046.214111	85.057571
3045.596680	76.945076
3044.979248	80.982422
3044.361816	76.921532
3043.744141	89.053413
3043.126465	93.087051
3042.508545	101.166092
3041.890869	89.012535
3041.272705	76.862701
3040.654785	93.030083
3040.036621	109.192513
3039.418213	165.785477
3038.799805	97.030304
3038.181396	52.550037
3037.562988	76.792145
3036.944336	80.821457
3036.325439	101.011360
3035.706543	109.075569
3035.087646	100.980431
3034.468750	100.964973
3033.849609	109.025475
3033.230469	96.896690
3032.611084	88.808365
3031.991699	68.614136
3031.372070	108.958702
3030.752441	80.697792
3030.132813	145.233765
3029.513184	133.110565
3028.893066	84.693748
3028.273193	92.745613
3027.653076	76.604202
3027.032959	80.623650
3026.412598	88.672424
3025.792480	92.688789
3025.171875	56.410618
3024.551270	88.631668
3023.930664	72.505707
3023.310059	92.631989
3022.689209	92.617790
3022.068115	68.446136
3021.447266	116.743156
3020.826172	108.675247
3020.204834	136.829330
3019.583496	68.404182
3018.962158	128.741074
3018.340576	112.631165
3017.718994	100.548126
3017.097412	120.639252
3016.475586	80.413834
3015.853760	108.542030
3015.231689	116.564301
3014.609619	116.546425
3013.987549	80.364517
3013.365234	60.264145
3012.742920	72.305885
3012.120361	96.393059
3011.497803	84.330986
3010.875244	84.318054
3010.252441	100.363235
3009.629639	96.333923
3009.006836	108.359039
3008.383789	92.291687
3007.760498	140.422318
3007.137451	80.229012
3006.514160	116.314217
3005.890625	144.367905
3005.267090	104.249710
3004.643555	136.305618
3004.019775	112.234459
3003.395996	116.224991
3002.772217	144.257156
3002.148193	120.195839
3001.524170	128.189209
3000.899902	116.153641
3000.275635	136.159225
2999.651367	168.170868
2999.026855	112.096695
2998.402344	116.082321
2997.777588	92.051155
2997.152832	112.045059
2996.528076	116.028847
2995.903076	104.009888
2995.278076	127.992508
2994.653076	91.980484
2994.027832	119.956123
2993.402344	143.925232
2992.777100	155.895050
2992.151367	147.877716
2991.525879	127.874588
2990.900146	131.850403
2990.274414	95.876472
2989.648438	127.815651
2989.022461	139.776886
2988.396240	107.811317
2987.770264	155.703522
2987.143799	115.761749
2986.517578	119.735130
2985.891113	135.678955
2985.264404	115.708382
2984.637695	147.605240
2984.010986	119.661530
2983.384033	103.690712
2982.757080	139.562195
2982.130127	159.475128
2981.502930	163.436874
2980.875732	135.512177
2980.248291	159.401581
2979.620850	167.345917
2978.993408	171.304001
2978.365723	179.244049
2977.738037	187.181656
2977.110107	191.134842
2976.482178	230.919083
2975.854248	179.133804
2975.226074	222.887772
2974.597900	191.017273
2973.969482	218.840271
2973.341309	190.958496
2972.712646	210.817566
2972.083984	270.441284
2971.455322	290.282013
2970.826660	282.285614
2970.197754	266.341217
2969.568604	317.970428
2968.939697	290.103363
2968.310547	317.872559
2967.681152	317.823608
2967.051758	325.719055
2966.422363	401.128784
2965.792725	405.037994
2965.163086	404.975647
2964.533203	393.004089
2963.903564	381.036194
2963.273438	424.631195
2962.643311	444.405334
2962.013184	464.173370
2961.383057	416.501678
2960.752686	464.030396
2960.122314	507.579010
2959.491699	420.274139
2958.861084	507.422668
2958.230225	507.344513
2957.599609	566.711609
2956.968506	427.940033
2956.337646	507.110077
2955.706299	475.342438
2955.075195	459.426880
2954.443848	522.715576
2953.812500	463.244659
2953.180908	498.802002
2952.549316	546.222778
2951.917725	482.818176
2951.285889	569.795898
2950.653809	593.445923
2950.021973	537.974670
2949.389893	522.071411
2948.757568	470.582733
2948.125244	514.002747
2947.492920	502.063721
2946.860352	501.986328
2946.227783	478.196686
2945.595215	466.268646
2944.962402	493.852509
2944.329590	387.120667
2943.696533	438.405762
2943.063477	359.358307
2942.430420	367.199646
2941.797119	319.769714
2941.163574	315.773224
2940.530273	311.777985
2939.896729	351.189362
2939.262939	370.861877
2938.629150	331.357361
2937.995361	331.306213
2937.361328	295.763489
2936.727295	323.318176
2936.093262	323.268311
2935.458984	394.168793
2934.824707	354.697174
2934.190186	311.297241
2933.555664	393.986328
2932.921143	382.107758
2932.286377	429.312531
2931.651367	413.494110
2931.016602	354.368805
2930.381592	456.671509
2929.746338	432.983704
2929.111084	491.950958
2928.475830	495.810028
2927.840332	531.143005
2927.204834	534.994751
2926.569336	593.909790
2925.933594	585.952942
2925.297607	530.814941
2924.661865	672.261780
2924.025879	601.404480
2923.389648	562.010193
2922.753418	569.782410
2922.117188	577.552246
2921.480713	632.459534
2920.844238	648.072632
2920.207764	616.555664
2919.571045	643.945923
2918.934082	588.883911
2918.297363	596.643494
2917.660156	635.798096
2917.023193	576.838745
2916.385986	612.060791
2915.748779	627.657593
2915.111328	674.627625
2914.473877	639.228516
2913.836182	564.629944
2913.198486	662.553528
2912.560791	576.214844
2911.922852	619.237244
2911.284912	666.164856
2910.646729	615.127747
2910.008545	685.545898
2909.370361	720.691101
2908.731934	669.669128
2908.093506	693.059082
2907.455078	739.931702
2906.816406	731.988525
2906.177490	786.668091
2905.538574	829.591248
2904.899658	766.861938
2904.260498	821.510681
2903.621338	825.294922
2902.982178	903.382141
2902.342773	875.871399
2901.703369	899.193054
2901.063721	863.873535
2900.424072	801.206665
2899.784424	890.960266
2899.144531	836.122742
2898.504639	820.367310
2897.864502	785.087158
2897.224365	784.965637
2896.583984	812.177002
2895.943848	788.626709
2895.303223	815.829041
2894.662842	776.673889
2894.021973	753.140015
2893.381348	733.515015
2892.740479	764.609985
2892.099609	822.998596
2891.458496	842.370483
2890.817383	850.038513
2890.176025	779.731079
2889.534668	892.653809
2888.893311	935.387512
2888.251709	923.552063
2887.610107	958.475159
2886.968262	938.848511
2886.326416	958.178223
2885.684570	1012.551819
2885.042480	1101.952881
2884.400391	1097.889038
2883.758057	1082.148438
2883.115723	1093.656738
2882.473389	1112.944336
2881.830811	1136.116699
2881.188232	1174.842651
2880.545410	1205.777466
2879.902588	1151.144531
2879.259766	1154.854492
2878.616699	1150.787720
2877.973633	1177.819702
2877.330322	1165.977295
2876.687012	1123.050659
2876.043457	1076.251831
2875.399902	1021.698059
2874.756348	998.234497
2874.112549	943.709595
2873.468750	939.680298
2872.824707	939.534546
2872.180664	908.334656
2871.536621	919.837280
2870.892334	900.291809
2870.248047	942.831787
2869.603760	880.615662
2868.958984	895.994141
2868.314453	888.098755
2867.669678	911.226379
2867.024902	872.315369
2866.379883	934.201721
2865.734863	945.684021
2865.089844	864.159058
2864.444580	902.770508
2863.799316	968.487549
2863.153809	952.843811
2862.508301	855.877258
2861.862549	813.150757
2861.216797	816.896118
2860.571045	750.963196
2859.925049	746.976318
2859.279053	750.730042
2858.632813	615.193542
2857.986572	603.492432
2857.340332	502.832245
2856.693848	502.754150
2856.047363	494.942596
2855.400635	518.062561
2854.753906	541.175354
2854.107178	459.927612
2853.460205	506.228210
2852.813232	479.103424
2852.166016	459.713318
2851.518799	444.191742
2850.871338	498.189850
2850.223877	420.885712
2849.576416	486.452850
2848.928711	482.517120
2848.281006	451.565857
2847.633301	509.379730
2846.985352	443.708832
2846.337158	605.664856
2845.688965	574.713623
2845.040771	628.615845
2844.392578	559.111267
2843.743896	624.565125
2843.095459	663.015442
2842.446777	639.787537
2841.798096	697.491150
2841.149170	666.559204
2840.500244	701.126648
2839.851074	758.793823
2839.202148	743.271240
2838.552734	754.707275
2837.903320	785.389526
2837.253906	758.321899
2836.604492	681.228943
2835.954834	815.808289
2835.304932	715.645020
2834.655029	723.227600
2834.005127	661.573364
2833.354980	615.321350
2832.704834	561.393372
2832.054688	576.684265
2831.404297	518.935120
2830.753906	515.010986
2830.103271	426.547180
2829.452637	464.902496
2828.801758	376.473999
2828.150879	353.369568
2827.500000	345.633820
2826.848877	353.259583
2826.197754	326.330322
2825.546387	322.440948
2824.895020	310.876801
2824.243408	318.503174
2823.591797	299.269623
2822.940186	234.007751
2822.288330	306.847626
2821.636475	291.459869
2820.984619	264.573669
2820.332520	272.200073
2819.680176	256.824860
2819.028076	226.123978
2818.375488	249.080826
2817.723145	226.053528
2817.070557	291.142242
2816.417725	252.794662
2815.764893	229.777527
2815.112061	271.861053
2814.458984	256.504974
2813.805908	214.358810
2813.152832	248.770554
2812.499512	214.292007
2811.845947	202.780472
2811.192383	210.399765
2810.538818	240.965805
2809.885010	206.509933
2809.231201	229.419708
2808.577393	248.499283
2807.923340	225.525726
2807.269287	221.668686
2806.614990	259.846924
2805.960693	191.034119
2805.306152	248.305634
2804.651611	194.794037
2803.997070	198.582550
2803.342285	210.006485
2802.687500	202.338333
2802.032471	267.197632
2801.377441	190.825684
2800.722412	198.427750
2800.067139	202.212128
2799.411621	247.957306
2798.756348	202.149033
2798.100586	240.252884
2797.445068	232.589508
2796.789307	190.617386
2796.133301	194.399399
2795.477539	213.424866
2794.821289	217.202118
2794.165283	190.498444
2793.509033	239.990570
2792.852539	239.953125
2792.196045	217.066559
2791.539551	197.994720
2790.882813	224.612793
2790.226074	239.803329
2789.569092	224.542664
2788.912109	216.897186
2788.255127	235.886414
2787.597900	197.809326
2786.940430	220.599030
2786.283203	224.367416
2785.625488	220.530136
2784.968018	235.702301
2784.310303	273.676056
2783.652588	258.431458
2782.994629	227.992142
2782.336426	243.153625
2781.678467	239.316956
2781.020264	224.087219
2780.361816	224.052216
2779.703369	269.580017
2779.044922	197.408035
2778.386230	208.764343
2777.727539	235.297577
2777.068604	231.466278
2776.409668	212.460419
2775.750732	216.220566
2775.091553	235.150513
2774.432373	223.737289
2773.772949	216.119186
2773.113525	269.159027
2772.453857	231.213150
2771.794189	189.489349
2771.134521	257.665222
2770.474609	257.624939
2769.814697	208.340515
2769.154541	238.607285
2768.494385	212.062195
2767.833984	219.601501
2767.173584	204.424591
2766.513184	257.383301
2765.852539	215.714020
2765.191895	192.977097
2764.531006	242.129440
2763.870117	291.266418
2763.209229	204.232803
2762.548096	234.452835
2761.886719	207.949814
2761.225586	260.841675
2760.563965	234.342804
2759.902588	249.422653
2759.240967	211.598221
2758.579102	264.456390
2757.917236	256.860291
2757.255371	237.936249
2756.593262	264.332214
2755.931152	249.188522
2755.269043	283.124451
2754.606689	207.592087
2753.944092	256.619141
2753.281494	282.991486
2752.618896	256.538788
2751.956055	279.130829
2751.293213	256.458435
2750.630371	252.647415
2749.967285	245.067322
2749.303955	222.410889
2748.640625	267.605072
2747.977295	305.248108
2747.313721	282.592865
2746.650146	244.875458
2745.986572	267.437439
2745.322754	256.097137
2744.658691	327.602356
2743.994873	278.606628
2743.330566	293.620422
2742.666504	301.101959
2742.002197	270.949310
2741.337646	323.583160
2740.673096	316.008453
2740.008545	270.821930
2739.343750	263.257843
2738.678955	282.017761
2738.013916	266.934967
2737.348877	327.038025
2736.683594	319.469818
2736.018311	319.419739
2735.353027	293.068634
2734.687500	330.589691
2734.021973	277.952271
2733.356201	330.486023
2732.690430	319.169373
2732.024658	304.101959
2731.358643	296.546753
2730.692383	409.095245
2730.026367	348.989838
2729.359863	300.159210
2728.693604	326.371918
2728.027100	330.071533
2727.360352	333.769989
2726.693604	322.468719
2726.026855	348.661438
2725.359863	348.606750
2724.692871	363.543518
2724.025635	393.464722
2723.358398	382.162903
2722.691162	404.579559
2722.023682	382.042938
2721.355957	381.982971
2720.688477	411.877777
2720.020508	434.275635
2719.352783	419.234802
2718.684814	392.970917
2718.016602	385.425232
2717.348389	389.106110
2716.680176	437.675659
2716.011719	362.802307
2715.343262	340.307495
2714.674561	358.949310
2714.005859	336.462128
2713.337158	370.050232
2712.668213	355.042908
2711.999023	313.883362
2711.329834	328.778534
2710.660645	324.991364
2709.991455	310.000519
2709.321777	354.764130
2708.652344	332.305756
2707.982666	332.253540
2707.312988	335.933929
2706.643066	347.077179
2705.972900	324.634064
2705.302979	309.659698
2704.632813	354.374054
2703.962402	324.481018
2703.291992	328.159088
2702.621582	283.365570
2701.950928	350.423370
2701.280273	339.186310
2700.609375	339.132996
2699.938477	279.461273
2699.267334	324.124084
2698.596191	264.473480
2697.925049	316.573395
2697.253662	312.799805
2696.582031	335.089935
2695.910645	297.810852
2695.239014	334.984528
2694.567139	279.109863
2693.895264	290.228577
2693.223145	308.784393
2692.551270	308.735840
2691.878906	316.125488
2691.206543	293.764526
2690.534180	304.872162
2689.861816	278.802612
2689.189209	308.493011
2688.516357	319.593048
2687.843506	289.817841
2687.170654	300.917328
2686.497559	345.443268
2685.824463	285.967163
2685.151123	308.201782
2684.477783	337.854797
2683.804199	296.968445
2683.130615	322.902344
2682.457031	319.140564
2681.783203	352.483490
2681.109375	307.910767
2680.435303	315.280640
2679.761230	281.853577
2679.086914	274.393158
2678.412598	337.376282
2677.738281	322.495758
2677.063721	352.095062
2676.389160	355.745270
2675.714355	307.522980
2675.039551	329.701630
2674.364502	325.945740
2673.689453	311.080994
2673.014404	344.356842
2672.339111	348.004761
2671.663574	325.740356
2670.988037	347.895081
2670.312500	307.135559
2669.636719	321.886505
2668.960938	314.437256
2668.285156	362.470520
2667.609131	306.941956
2666.932861	343.868683
2666.256592	292.057465
2665.580322	332.671234
2664.903809	277.182312
2664.227295	332.566315
2663.550781	310.346283
2662.874023	317.685394
2662.197021	347.182770
2661.520020	336.049438
2660.843018	365.534607
2660.165771	295.334900
2659.488525	339.581573
2658.811035	346.909027
2658.133545	328.404602
2657.455811	380.003815
2656.778076	350.433655
2656.100342	394.636688
2655.422363	354.010681
2654.744385	324.458588
2654.066162	350.212524
2653.387939	339.099640
2652.709473	331.675568
2652.031006	353.731445
2651.352539	353.675598
2650.673828	331.518555
2649.994873	313.051422
2649.316162	346.143372
2648.636963	323.997955
2647.958008	346.034088
2647.278809	360.701996
2646.599365	345.924835
2645.919922	290.678162
2645.240479	345.815582
2644.560791	331.047729
2643.880859	319.962280
2643.201172	378.746094
2642.520996	341.920593
2641.841064	371.274475
2641.160889	327.110992
2640.480469	341.758606
2639.800049	312.310669
2639.119629	301.240326
2638.438965	341.596649
2637.758301	319.507660
2637.077393	367.192139
2636.396484	359.791443
2635.715332	330.368469
2635.034180	363.347900
2634.353027	352.281677
2633.671631	344.887939
2632.989990	352.170319
2632.308350	330.107483
2631.626709	333.722565
2630.944824	359.336731
2630.262939	340.949310
2629.581055	362.888641
2628.898926	311.521790
2628.216553	311.472534
2627.534180	304.095673
2626.851807	340.679810
2626.169189	362.601807
2625.486572	366.206512
2624.803711	351.502655
2624.120850	377.073395
2623.437988	347.731110
2622.754883	351.335846
2622.071533	343.961945
2621.388184	300.004425
2620.704834	340.195099
2620.021240	387.687897
2619.337646	340.087433
2618.653809	365.627533
2617.969971	391.159546
2617.286133	350.891357
2616.602051	343.526733
2615.917725	369.050079
2615.233398	412.832275
2614.549072	350.669220
2613.864502	368.874847
2613.179932	343.254913
2612.495117	405.268768
2611.810303	310.291809
2611.125488	317.542480
2610.440430	368.582916
2609.755127	353.929504
2609.069824	394.003448
2608.384521	346.522217
2607.698975	375.643524
2607.013428	324.533752
2606.327637	346.357574
2605.641846	390.046204
2604.956055	368.116119
2604.270020	364.413666
2603.583740	360.712372
2602.897461	342.440308
2602.211182	320.531616
2601.524658	389.675537
2600.838135	404.178802
2600.151367	320.379242
2599.464600	342.169037
2598.777832	342.114807
2598.090820	374.811066
2597.403564	342.006378
2596.716309	363.778870
2596.029053	360.083984
2595.341553	334.570465
2594.654053	399.966461
2593.966309	349.006287
2593.278564	396.204742
2592.590820	367.067261
2591.902832	363.375305
2591.214600	359.684509
2590.526367	330.566650
2589.838135	345.042297
2589.149658	406.722198
2588.461182	410.288544
2587.772461	410.223480
2587.083740	359.342316
2586.394775	381.060150
2585.705811	388.256836
2585.016846	359.171295
2584.327637	322.840118
2583.638184	330.042572
2582.948975	355.374054
2582.259277	351.691956
2581.569824	384.262177
2580.879883	395.074799
2580.190186	398.636047
2579.500244	394.949371
2578.810059	409.377930
2578.119873	376.712799
2577.429688	387.517975
2576.739258	387.456451
2576.048584	380.153900
2575.358154	361.993835
2574.667236	340.220184
2573.976563	408.923126
2573.285645	336.493896
2572.594482	405.175598
2571.903320	434.047760
2571.212158	390.580933
2570.520752	394.134796
2569.829102	394.072205
2569.137451	368.706207
2568.445801	397.561188
2567.753906	411.952484
2567.062012	375.756592
2566.370117	415.434021
2565.677979	372.025269
2564.985596	350.298218
2564.293213	382.739258
2563.600830	426.000519
2562.908203	379.007996
2562.215332	422.256073
2561.522705	400.538239
2560.829590	418.513947
2560.136719	411.232788
2559.443604	411.167419
2558.750244	400.283569
2558.056885	421.853424
2557.363525	407.366302
2556.669922	396.488190
2555.976074	374.801941
2555.282227	374.742340
2554.588379	381.888153
2553.894287	392.633850
2553.200195	399.774536
2552.505859	381.705933
2551.811523	388.846069
2551.117188	424.782745
2550.422607	377.924500
2549.727783	410.252747
2549.032959	377.804230
2548.338135	370.548981
2547.643066	348.908081
2546.947998	435.166565
2546.252686	341.605316
2545.557373	409.861145
2544.861816	409.795898
2544.166260	431.295441
2543.470703	406.071899
2542.774902	395.228271
2542.078857	423.904663
2541.382813	405.877960
2540.686768	409.404602
2539.990479	434.474274
2539.294189	402.093964
2538.597656	398.440369
2537.901123	427.088776
2537.204346	434.197571
2536.507568	401.837860
2535.810791	401.773834
2535.113770	387.363068
2534.416504	394.473602
2533.719238	351.384125
2533.021973	494.727356
2532.324463	376.363007
2531.626953	483.818207
2530.929199	408.492493
2530.231445	426.340881
2529.533447	422.690796
2528.835449	386.807892
2528.137451	379.584259
2527.439209	375.943329
2526.740723	443.900421
2526.042236	436.671112
2525.343750	447.337585
2524.645020	425.797485
2523.946289	468.660309
2523.247314	400.622772
2522.548340	414.864563
2521.849121	414.798401
2521.149902	489.813110
2520.450684	439.689056
2519.751221	393.155151
2519.051514	450.269531
2518.351807	443.051697
2517.652100	467.988007
2516.952148	439.338501
2516.252197	428.554535
2515.552002	489.188354
2514.851807	410.567047
2514.151367	435.488586
2513.450928	467.540161
2512.750244	431.781158
2512.049561	424.576508
2511.348877	460.181763
2510.647949	417.307526
2509.946777	417.240906
2509.245605	449.264648
2508.544434	459.888000
2507.843018	413.476685
2507.141602	456.177277
2506.439941	438.287872
2505.738281	452.468872
2505.036377	423.899200
2504.334473	441.639526
2503.632568	484.301483
2502.930420	441.498474
2502.228027	427.188354
2501.525635	466.272797
2500.823242	466.198303
2500.120605	437.658264
2499.417969	437.588348
2498.715088	444.632568
2498.012207	391.214142
2497.309082	444.490479
2496.605957	433.753387
2495.902588	451.458008
2495.199219	490.482269
2494.495605	486.850250
2493.791992	493.878601
2493.088379	458.274506
2492.384521	443.993439
2491.680664	458.127991
2490.976563	443.851501
2490.272461	500.584473
2489.568115	511.153442
2488.863770	489.777069
2488.159180	429.373535
2487.454590	468.332611
2486.749756	510.826599
2486.044922	443.354950
2485.339844	475.200500
2484.634766	460.941650
2483.929688	436.051971
2483.224365	425.348511
2482.519043	414.648438
2481.813477	488.994293
2481.107666	481.830322
2480.402100	474.668610
2479.696045	474.592682
2478.990234	478.057892
2478.284180	485.062592
2477.577881	534.545471
2476.871582	442.433716
2476.165039	452.979614
2475.458496	498.905487
2474.751953	442.221313
2474.045166	473.985352
2473.338379	480.982758
2472.631348	456.153229
2471.924072	512.648315
2471.217041	452.472229
2470.509521	491.277893
2469.802246	434.658325
2469.094482	459.321381
2468.386963	519.303345
2467.679199	473.302734
2466.971191	462.632294
2466.263184	459.027191
2465.554932	508.379456
2464.846680	472.999542
2464.138428	448.218781
2463.429932	508.135162
2462.721436	486.884827
2462.012695	490.334412
2461.303955	486.728821
2460.594971	518.388916
2459.885986	483.046936
2459.176758	507.646790
2458.467529	489.941620
2457.758057	521.580872
2457.048584	489.784576
2456.338867	510.844452
2455.629150	482.582550
2454.919434	478.983246
2454.209473	489.470581
2453.499512	503.475311
2452.789307	489.313599
2452.078857	471.636749
2451.368408	577.134521
2450.657959	513.708069
2449.947266	506.589722
2449.236572	531.130432
2448.525879	485.326080
2447.814697	488.764526
2447.103760	516.811951
2446.392578	544.850342
2445.681152	499.073120
2444.969727	541.161499
2444.258301	474.318665
2443.546631	505.858734
2442.834717	519.826965
2442.122803	547.837769
2441.410889	540.727417
2440.698730	519.576660
2439.986572	572.144653
2439.274170	522.919434
2438.561768	512.308594
2437.849121	547.310364
2437.136475	596.332214
2436.423584	526.091003
2435.710693	490.939392
2434.997803	529.428162
2434.284424	536.354309
2433.571289	515.238098
2432.857910	529.173157
2432.144287	497.553101
2431.430908	557.029846
2430.717041	500.896057
2430.003174	462.291321
2429.289307	539.253235
2428.575195	560.173096
2427.861084	479.571136
2427.146729	517.993591
2426.432373	528.408569
2425.717773	517.827148
2425.003174	510.747375
2424.288330	503.669891
2423.573486	563.040405
2422.858643	531.480652
2422.143555	496.435028
2421.428223	531.309814
2420.712891	520.739685
2419.997559	548.610657
2419.281982	565.991333
2418.566162	527.475037
2417.850586	565.809326
2417.134521	572.702515
2416.418457	527.220581
2415.702393	481.753235
2414.986084	509.598999
2414.269775	526.966248
2413.553223	586.199280
2412.836670	495.398254
2412.120117	554.617249
2411.403076	571.966003
2410.686279	484.698090
2409.969238	491.593048
2409.251953	554.260437
2408.534668	543.715149
2407.817383	526.203735
2407.099854	512.182129
2406.382080	539.969055
2405.664307	494.601685
2404.946533	560.690552
2404.228516	595.420166
2403.510498	529.177185
2402.792236	497.764160
2402.073975	529.006836
2401.355469	581.117859
2400.636963	560.149170
2399.918213	594.845215
2399.199463	546.056519
2398.480469	525.103516
2397.761475	559.788452
2397.042480	580.556580
2396.323242	566.559753
2395.603760	576.894287
2394.884277	507.307251
2394.164795	583.656738
2393.445068	580.089111
2392.725098	604.306885
2392.005127	576.429749
2391.285156	562.449219
2390.564941	597.072083
2389.844727	593.505066
2389.124268	513.594116
2388.403809	617.601501
2387.683105	558.527039
2386.962402	572.311218
2386.241455	568.750977
2385.520508	585.996460
2384.799316	599.769531
2384.078125	582.341248
2383.356689	547.589722
2382.635254	571.757874
2381.913818	588.988831
2381.192139	623.534668
2380.470215	606.116516
2379.748291	595.629883
2379.026367	630.157837
2378.304199	526.200806
2377.581787	564.190063
2376.859375	529.491760
2376.136963	564.008057
2375.414307	601.972839
2374.691650	601.875671
2373.968750	570.652100
2373.245850	608.597351
2372.522705	567.010559
2371.799316	594.573669
2371.076172	601.390198
2370.352783	608.204590
2369.629150	566.644592
2368.905518	649.463379
2368.181641	628.634277
2367.457764	604.358459
2366.733643	593.902161
2366.009521	611.068054
2365.285400	559.192322
2364.561035	538.394531
2363.836426	596.969360
2363.111816	586.522522
2362.387207	607.125244
2361.662354	631.170349
2360.937256	596.583801
2360.212158	603.383240
2359.487061	620.522461
2358.761719	654.890137
2358.036377	596.198364
2357.310791	627.113159
2356.584961	613.231323
2355.859375	626.910461
2355.133301	599.257141
2354.407471	619.820984
2353.681152	636.935303
2352.955078	650.601685
2352.228516	640.171204
2351.502197	598.773010
2350.775635	667.489563
2350.048828	622.660217
2349.322021	681.031982
2348.594971	639.653931
2347.867920	642.988892
2347.140869	639.447083
2346.413330	659.967651
2345.686035	611.746033
2344.958496	632.264465
2344.230713	604.676880
2343.502930	611.449280
2342.775146	655.999573
2342.047119	690.233398
2341.319092	642.053589
2340.590820	648.815491
2339.862305	641.845825
2339.133789	610.856018
2338.405273	645.069397
2337.676514	641.534302
2336.947754	655.150940
2336.218750	685.910889
2335.489746	675.512878
2334.760498	641.119141
2334.031250	723.284668
2333.301758	630.629578
2332.572266	657.941711
2331.842529	654.408997
2331.112793	606.343628
2330.382813	685.023132
2329.652832	660.940308
2328.922607	653.985229
2328.192383	694.960754
2327.462158	633.236084
2326.731689	735.803772
2326.000977	656.983459
2325.270264	639.770874
2324.539307	643.087952
2323.808350	660.084351
2323.077393	653.138306
2322.346191	605.166199
2321.614746	632.415894
2320.883301	693.835815
2320.151855	724.479553
2319.420166	686.777344
2318.688232	652.503540
2317.956299	645.566406
2317.224365	683.028320
2316.492188	682.917603
2315.760010	658.908691
2315.027588	669.042297
2314.295166	665.520935
2313.562500	672.237732
2312.829590	719.894287
2312.096924	685.664856
2311.363770	692.375122
2310.630615	712.723816
2309.897461	698.969788
2309.164063	705.674500
2308.430664	702.151550
2307.697021	661.142273
2306.963379	712.145996
2306.229492	677.962036
2305.495605	698.289795
2304.761719	698.176453
2304.027344	674.226868
2303.293213	704.759216
2302.558838	653.583618
2301.824219	711.337524
2301.089600	690.804260
2300.354736	697.496948
2299.619873	714.393127
2298.885010	687.066589
2298.149658	625.741272
2297.414551	703.844666
2296.679199	693.531372
2295.943604	713.813477
2295.208008	676.313416
2294.472412	699.989624
2293.736572	696.478516
2293.000488	679.380920
2292.264404	679.270569
2291.528320	706.326660
2290.791992	716.397705
2290.055420	736.649475
2289.318848	746.712280
2288.582275	617.634338
2287.845459	671.822693
2287.108398	749.740906
2286.371582	654.644714
2285.634277	718.974792
2284.896973	739.203003
2284.159668	762.814880
2283.422119	755.911438
2282.684570	738.842651
2281.946777	701.447571
2281.208740	755.542908
2280.470703	779.132813
2279.732666	741.749329
2278.994385	731.469482
2278.256104	731.350525
2277.517578	636.442322
2276.779053	670.186646
2276.040283	724.225403
2275.301514	669.968750
2274.562500	784.886169
2273.823486	710.341797
2273.084229	642.585632
2272.344971	754.069946
2271.605469	723.518921
2270.865967	723.401245
2270.126221	730.043213
2269.386475	696.131592
2268.646484	743.320557
2267.906494	756.712341
2267.166260	759.966858
2266.426025	665.284912
2265.685547	783.355225
2264.945068	827.115479
2264.204346	695.338989
2263.463623	749.223938
2262.722656	776.096680
2261.981689	752.353821
2261.240723	772.470764
2260.499268	755.481567
2259.758057	832.917725
2259.016602	745.120789
2258.274902	805.678162
2257.533203	707.802734
2256.791260	768.346436
2256.049316	714.311035
2255.307129	683.875061
2254.564941	778.075928
2253.822754	744.271729
2253.080322	747.517700
2252.337646	764.229126
2251.594971	764.104614
2250.852051	767.345703
2250.109131	767.220642
2249.366211	730.086609
2248.623047	756.878906
2247.879639	729.848694
2247.136230	773.446228
2246.392578	800.218262
2245.648926	746.300415
2244.905273	739.456421
2244.161377	739.335876
2243.417236	742.575439
2242.673096	813.004333
2241.928955	749.051270
2241.184570	748.929077
2240.439941	815.964539
2239.695313	785.615540
2238.950439	741.849182
2238.205566	771.934326
2237.460693	808.721008
2236.715576	798.523682
2235.970215	778.265808
2235.224854	804.971252
2234.479492	767.951416
2233.733887	798.002686
2232.988037	838.101379
2232.242188	821.205322
2231.496338	821.071289
2230.750244	733.817444
2230.003906	763.849609
2229.257568	740.277283
2228.511230	740.156433
2227.764648	740.035583
2227.017822	810.223450
2226.270996	753.183960
2225.523926	746.367126
2224.776855	789.748352
2224.029785	869.919678
2223.282471	819.598145
2222.534912	786.016785
2221.787354	789.232605
2221.039795	812.509338
2220.291992	772.259277
2219.543945	805.558777
2218.795898	845.531494
2218.047852	791.929749
2217.299561	818.527832
2216.551025	795.011414
2215.802490	781.522156
2215.053955	768.037292
2214.305176	824.670471
2213.556152	791.153687
2212.807129	774.336121
2212.058105	770.872437
2211.308838	777.419617
2210.559326	827.332825
2209.809814	793.842834
2209.060303	753.693909
2208.310547	796.917664
2207.560547	820.124268
2206.810547	819.990173
2206.060303	806.525085
2205.310059	786.399963
2204.559814	796.266357
2203.809326	819.453918
2203.058594	869.278442
2202.307861	842.496094
2201.557129	839.028809
2200.806152	885.496643
2200.054932	878.695007
2199.303711	785.371582
2198.552246	808.534180
2197.800781	795.094849
2197.049316	851.510376
2196.297607	894.604736
2195.545654	804.679993
2194.793701	864.390686
2194.041504	844.304993
2193.289307	834.196350
2192.537109	827.413879
2191.784668	883.759338
2191.031982	850.396057
2190.279297	820.364990
2189.526367	836.834534
2188.773438	843.337952
2188.020508	800.043945
2187.267090	853.019226
2186.513916	842.923706
2185.760498	793.014893
2185.006836	832.695129
2184.253174	809.339966
2183.499268	812.523804
2182.745361	858.813049
2181.991211	838.780334
2181.237061	822.068909
2180.482666	888.219238
2179.728271	805.231018
2178.973877	824.978088
2178.218994	897.720581
2177.464355	864.452637
2176.709229	884.180176
2175.954346	900.590210
2175.198975	936.857605
2174.443848	847.336487
2173.688232	830.650757
2172.932861	870.220459
2172.177002	853.536377
2171.421387	873.242859
2170.665283	840.027710
2169.909424	892.796448
2169.153076	899.262207
2168.396729	846.225647
2167.640381	832.866760
2166.883789	855.861572
2166.127197	868.936951
2165.370361	878.704590
2164.613525	848.834717
2163.856445	802.463013
2163.099365	845.254456
2162.342041	818.705872
2161.584473	891.186768
2160.826904	841.538269
2160.069336	864.497437
2159.311523	897.346191
2158.553711	900.497437
2157.795654	903.647644
2157.037354	893.606995
2156.279053	995.664246
2155.520752	873.535461
2154.762207	912.941895
2154.003662	975.402283
2153.244873	965.357910
2152.485840	915.786438
2151.726807	918.929688
2150.967773	951.709961
2150.208252	839.606140
2149.448975	862.512451
2148.689453	852.496338
2147.929688	914.884338
2147.169922	891.701172
2146.410156	898.134460
2145.650146	881.540222
2144.889893	910.994507
2144.129639	910.844788
2143.369141	904.119751
2142.608643	943.417175
2141.847900	920.255737
2141.087158	867.527100
2140.326416	926.524353
2139.565186	909.947021
2138.804199	883.521667
2138.042725	942.487122
2137.281494	899.648132
2136.519775	981.571411
2135.758301	863.246948
2134.996338	974.685120
2134.234619	853.119385
2133.472412	905.470154
2132.710449	859.399109
2131.947998	888.774292
2131.185547	898.465271
2130.423096	852.418091
2129.660400	937.505615
2128.897705	901.299438
2128.134766	910.981873
2127.371826	884.620972
2126.608643	874.647949
2125.845215	989.139343
2125.081787	985.701843
2124.318359	978.991211
2123.554688	959.187988
2122.790771	959.030090
2122.026855	926.146240
2121.262939	971.802673
2120.498779	935.655945
2119.734375	942.043884
2118.969971	961.511475
2118.205322	931.923950
2117.440674	954.656128
2116.676025	925.079407
2115.911133	875.902649
2115.145996	901.900452
2114.380859	895.217468
2113.615479	895.070007
2112.850098	953.713135
2112.084473	1015.602478
2111.318848	1005.639954
2110.552979	1002.209778
2109.787109	894.333008
2109.020996	855.024231
2108.254883	920.141602
2107.488525	978.712769
2106.722168	923.100220
2105.955566	939.254578
2105.188965	1017.358093
2104.422119	929.164307
2103.655029	958.348328
2102.887939	922.339722
2102.120850	958.032410
2101.353516	1039.326416
2100.585938	928.398682
2099.818359	990.128601
2099.050781	986.708862
2098.282959	1038.640991
2097.514893	973.361938
2096.746826	937.397949
2095.978760	992.566772
2095.210449	966.372803
2094.441895	969.466614
2093.673340	940.032349
2092.904541	1008.172852
2092.135742	994.999939
2091.366699	1020.844543
2090.597656	981.669373
2089.828369	1040.007813
2089.059082	981.345398
2088.289551	997.428223
2087.520020	974.524658
2086.750244	1010.090515
2085.980469	1022.913147
2085.210449	983.782593
2084.440186	947.911194
2083.670166	1032.143799
2082.899658	967.069397
2082.129150	983.133057
2081.358643	1054.341553
2080.587891	969.834045
2079.816895	998.861389
2079.045898	933.846008
2078.274902	940.175720
2077.503662	988.642151
2076.732178	998.201599
2075.960693	959.152161
2075.188965	1020.550720
2074.417236	984.749695
2073.645264	1004.019653
2072.873291	994.139038
2072.101074	1061.966553
2071.328857	980.861816
2070.556396	1026.012573
2069.783936	1025.843018
2069.011230	996.553345
2068.238525	999.623657
2067.465576	1051.210327
2066.692627	1021.930908
2065.919434	970.027161
2065.145996	1031.291626
2064.372559	1086.071167
2063.599121	1021.255188
2062.825439	979.079590
2062.051514	1104.916992
2061.277588	1059.511230
2060.503662	936.607971
2059.729248	1065.619019
2058.955078	968.584290
2058.180664	981.336426
2057.406006	971.491394
2056.631348	1084.276123
2055.856445	1116.361450
2055.081543	1061.335693
2054.306396	1016.004333
2053.531250	986.812317
2052.755859	1067.257568
2051.980225	1070.304688
2051.204590	1037.894775
2050.428955	979.713623
2049.653076	982.773682
2048.877197	1059.931152
2048.101074	1072.640259
2047.324707	1027.374146
2046.548340	972.462769
2045.771851	1072.107544
2044.995239	1030.082886
2044.218506	1036.349243
2043.441528	1071.574951
2042.664551	1003.831848
2041.887329	1064.786255
2041.110107	1048.528198
2040.332642	1054.786133
2039.555176	1083.548828
2038.777466	1038.362915
2037.999634	1131.402954
2037.221802	1034.805176
2036.443726	1082.830811
2035.665527	1060.163086
2034.887207	1072.835693
2034.108765	1111.196533
2033.330200	1014.681763
2032.551514	1072.302368
2031.772705	1059.284790
2030.993774	1065.527954
2030.214600	1094.231323
2029.435425	1042.716187
2028.656128	1039.335449
2027.876587	1100.101685
2027.097046	1048.611084
2026.317261	1135.005371
2025.537476	1061.086060
2024.757446	1118.603149
2023.977295	1140.849976
2023.197021	1108.619751
2022.416626	1079.603638
2021.636230	1105.048828
2020.855591	1034.410278
2020.074707	1063.056519
2019.293823	1104.498901
2018.512817	1129.922852
2017.731689	1084.930054
2016.950439	1119.948364
2016.168945	1087.769287
2015.387451	1132.371704
2014.605713	1176.959351
2013.823975	1122.402588
2013.041992	1138.202271
2012.260010	1102.849976
2011.477783	1153.805054
2010.695435	1025.789307
2009.912964	1182.177612
2009.130371	1089.339478
2008.347656	1146.650757
2007.564819	1136.879883
2006.781860	1175.006470
2005.998779	1101.385620
2005.215576	1126.737793
2004.432129	1113.785156
2003.648682	1075.310181
2002.864990	1078.321777
2002.081299	1084.522095
2001.297363	1170.451416
2000.513428	1096.916626
1999.729248	1112.675171
1998.944946	1144.366821
1998.160522	1089.995483
1997.375977	1115.307007
1996.591309	1137.424072
1995.806519	1223.244385
1995.021606	1203.931030
1994.236572	1120.934570
1993.451416	1206.714600
1992.666016	1146.029053
1991.880615	1155.387207
1991.094971	1206.112671
1990.309326	1139.093750
1989.523438	1145.266846
1988.737549	1125.991821
1987.951416	1119.443970
1987.165161	1112.898438
1986.378784	1134.967529
1985.592285	1179.279785
1984.805664	1058.314941
1984.018921	1102.625122
1983.232056	1185.045288
1982.444946	1210.260376
1981.657837	1152.890869
1980.870605	1159.049927
1980.083130	1184.256592
1979.295654	1212.629272
1978.507935	1117.210571
1977.720093	1113.851318
1976.932129	1186.641113
1976.144165	1192.788086
1975.355957	1205.276611
1974.567627	1103.595825
1973.779053	1233.411743
1972.990479	1233.206299
1972.201782	1198.134644
1971.412964	1188.427612
1970.623901	1229.421631
1969.834839	1229.216797
1969.045532	1200.504028
1968.256226	1244.642456
1967.466675	1196.937500
1966.677002	1222.065918
1965.887207	1155.387939
1965.097290	1281.792114
1964.307251	1199.304321
1963.517090	1252.890137
1962.726807	1259.007935
1961.936401	1208.193237
1961.145874	1195.342651
1960.355103	1242.569702
1959.564331	1207.588989
1958.773315	1286.405273
1957.982178	1222.987305
1957.191040	1241.741211
1956.399658	1279.443604
1955.608154	1190.789673
1954.816528	1231.645874
1954.024780	1240.913086
1953.232910	1250.177124
1952.440918	1275.220459
1951.648682	1224.512451
1950.856445	1224.308105
1950.063965	1255.652954
1949.271484	1271.215332
1948.478760	1182.695313
1947.685913	1248.717773
1946.893066	1239.051025
1946.099976	1241.996460
1945.306763	1210.271729
1944.513428	1304.606445
1943.719971	1219.319824
1942.926270	1209.665771
1942.132568	1240.960327
1941.338745	1262.796997
1940.544678	1205.911377
1939.750610	1202.562012
1938.956299	1303.082520
1938.161865	1255.659668
1937.367310	1302.647339
1936.572632	1236.364502
1935.777832	1258.176025
1934.982910	1292.559937
1934.187866	1270.333374
1933.392700	1178.949097
1932.597290	1304.485596
1931.801880	1253.982666
1931.006226	1288.338379
1930.210571	1237.854858
1929.414673	1272.201538
1928.618652	1290.833252
1927.822510	1274.916626
1927.026245	1268.424194
1926.229858	1230.542480
1925.433350	1224.059570
1924.636719	1311.721436
1923.839844	1295.814331
1923.042969	1289.323608
1922.245850	1295.380981
1921.448730	1329.660278
1920.651367	1332.573486
1919.853882	1275.921631
1919.056274	1316.455688
1918.258545	1281.762695
1917.460693	1243.947876
1916.662720	1296.998169
1915.864624	1337.501343
1915.066284	1390.518188
1914.267944	1327.660034
1913.469360	1365.006836
1912.670776	1361.648193
1911.871948	1380.198608
1911.072998	1342.417480
1910.273926	1235.818604
1909.474731	1313.814941
1908.675415	1313.595093
1907.875977	1363.408569
1907.076294	1350.674072
1906.276611	1406.716675
1905.476807	1353.347412
1904.676758	1390.620605
1903.876587	1334.147461
1903.076294	1337.047974
1902.275879	1299.343018
1901.475342	1345.968872
1900.674683	1336.376343
1899.873901	1333.030640
1899.072998	1314.079346
1898.271851	1267.047119
1897.470703	1366.683960
1896.669312	1369.574707
1895.867920	1322.556641
1895.066284	1415.896484
1894.264526	1244.158691
1893.462646	1318.774292
1892.660645	1337.256104
1891.858521	1327.682129
1891.056152	1355.504517
1890.253784	1392.664307
1889.451172	1261.598389
1888.648560	1326.792114
1887.845703	1395.078003
1887.042725	1348.141724
1886.239624	1313.672974
1885.436401	1338.352295
1884.633057	1387.918701
1883.829590	1369.017456
1883.025879	1337.679077
1882.222168	1374.779053
1881.418213	1458.514038
1880.614258	1420.957520
1879.810059	1377.196045
1879.005737	1404.939453
1878.201294	1376.734009
1877.396729	1345.430664
1876.592041	1416.659180
1875.787231	1394.678223
1874.982178	1493.825439
1874.177124	1387.999756
1873.371826	1372.243652
1872.566406	1344.076416
1871.760986	1458.683350
1870.955322	1390.171143
1870.149536	1393.040283
1869.343506	1380.398315
1868.537476	1349.151611
1867.731323	1401.641602
1866.924927	1410.707642
1866.118530	1444.569946
1865.311890	1379.239624
1864.505127	1379.008057
1863.698242	1499.612915
1862.891235	1428.110474
1862.084106	1483.622559
1861.276855	1381.178467
1860.469482	1449.064819
1859.661865	1436.438232
1858.854126	1448.577881
1858.046387	1392.629272
1857.238403	1491.410034
1856.430298	1429.285522
1855.622070	1490.908691
1854.813721	1527.770020
1854.005249	1555.342285
1853.196533	1372.675781
1852.387817	1394.082642
1851.578857	1486.565430
1850.769775	1470.865234
1849.960693	1421.185303
1849.151367	1442.569458
1848.341919	1473.211792
1847.532227	1438.996338
1846.722534	1466.541382
1845.912720	1447.773071
1845.102661	1453.702393
1844.292603	1459.629639
1843.482300	1410.018066
1842.671875	1409.780762
1841.861328	1391.037476
1841.050659	1464.815186
1840.239868	1492.318359
1839.428833	1532.143433
1838.617798	1538.050171
1837.806519	1516.218994
1836.995117	1448.176880
1836.183716	1537.273560
1835.372070	1496.972290
1834.560303	1487.481323
1833.748291	1545.734741
1832.936279	1530.081299
1832.124146	1535.979980
1831.311768	1501.867676
1830.499390	1544.693848
1829.686768	1464.443115
1828.874023	1458.044434
1828.061157	1503.931641
1827.248169	1429.878174
1826.434937	1488.052612
1825.621704	1503.171753
1824.808228	1533.653076
1823.994751	1499.592407
1823.181030	1468.615479
1822.367188	1496.015137
1821.553223	1560.261963
1820.739136	1483.227417
1819.924927	1458.414673
1819.110474	1534.914551
1818.296021	1522.378662
1817.481323	1509.846802
1816.666626	1574.026123
1815.851685	1512.405518
1815.036621	1447.738403
1814.221436	1576.296753
1813.406006	1477.912231
1812.590576	1517.516968
1811.774902	1557.108398
1810.959229	1541.522461
1810.143311	1553.518921
1809.327271	1531.811523
1808.511108	1454.975464
1807.694824	1598.671753
1806.878418	1521.850220
1806.061768	1490.977905
1805.245117	1527.458740
1804.428223	1536.382568
1803.611206	1578.963379
1802.794067	1551.161499
1801.976807	1492.779175
1801.159424	1532.287109
1800.341919	1580.955566
1799.524170	1617.377808
1798.706421	1586.535645
1797.888428	1519.027100
1797.070313	1549.329468
1796.252075	1518.514160
1795.433716	1515.202881
1794.615234	1600.468262
1793.796509	1655.166626
1792.977783	1511.382080
1792.158813	1550.812866
1791.339844	1596.334961
1790.520630	1547.237305
1789.701294	1562.232056
1788.881714	1568.069580
1788.062134	1543.402954
1787.242432	1591.937134
1786.422485	1533.733887
1785.602417	1591.399170
1784.782349	1502.734131
1783.962036	1548.194458
1783.141479	1520.508789
1782.320923	1553.764404
1781.500244	1602.239014
1780.679321	1571.512451
1779.858398	1632.147827
1779.037231	1507.045776
1778.215942	1619.419800
1777.394531	1576.536865
1776.572998	1603.657104
1775.751221	1630.768188
1774.929443	1633.534424
1774.107422	1590.677734
1773.285278	1578.244995
1772.463013	1559.735474
1771.640625	1526.032593
1770.818115	1607.838013
1769.995483	1574.138306
1769.172607	1564.756836
1768.349731	1597.908325
1767.526611	1661.421997
1766.703369	1667.214478
1765.880005	1566.734131
1765.056519	1560.397339
1764.232910	1605.662354
1763.409058	1647.877319
1762.585083	1641.529785
1761.761108	1665.521729
1760.936890	1665.239746
1760.112549	1686.186768
1759.288086	1716.223145
1758.463379	1591.633545
1757.638672	1697.454834
1756.813721	1694.136719
1755.988647	1584.764648
1755.163574	1639.029541
1754.338257	1653.897461
1753.512695	1668.760254
1752.687134	1617.000000
1751.861328	1604.615723
1751.035522	1698.182739
1750.209473	1710.001221
1749.383301	1670.372925
1748.557007	1739.676880
1747.730591	1636.531616
1746.903931	1642.303101
1746.077271	1666.216675
1745.250366	1671.981079
1744.423340	1762.386475
1743.596313	1662.346924
1742.768921	1619.757935
1741.941528	1749.404419
1741.114014	1673.584961
1740.286255	1682.362427
1739.458374	1612.619629
1738.630493	1588.191162
1737.802368	1726.789429
1736.973999	1723.478149
1736.145630	1683.953857
1735.317139	1650.477539
1734.488403	1641.147095
1733.659546	1734.374023
1732.830566	1634.558594
1732.001465	1673.479858
1731.172241	1612.900513
1730.342896	1760.325195
1729.513306	1645.504150
1728.683594	1663.304199
1727.853882	1705.199951
1727.023926	1725.995972
1726.193726	1650.410522
1725.363525	1698.309204
1724.533203	1652.860718
1723.702637	1631.508911
1722.871948	1763.656616
1722.041138	1685.119385
1721.210205	1729.962646
1720.379150	1723.652466
1719.547974	1684.260864
1718.716553	1677.960449
1717.885010	1695.714966
1717.053467	1719.475464
1716.221558	1644.044189
1715.389648	1727.906372
1714.557617	1694.562744
1713.725342	1631.190063
1712.893066	1724.021973
1712.060547	1693.698853
1711.227905	1696.413452
1710.395142	1747.158936
1709.562256	1773.875244
1708.729126	1782.576660
1707.895874	1752.268921
1707.062622	1751.970947
1706.229126	1733.676392
1705.395508	1748.376221
1704.561646	1748.078979
1703.727783	1825.727295
1702.893677	1756.476563
1702.059570	1735.199585
1701.225220	1782.846436
1700.390747	1797.522583
1699.556030	1764.267700
1698.721313	1859.802856
1697.886353	1772.650391
1697.051392	1784.324097
1696.216187	1703.200806
1695.380859	1840.580322
1694.545410	1765.459473
1693.709717	1759.175415
1692.874023	1755.884644
1692.038086	1725.677979
1691.202026	1722.393921
1690.365845	1665.295288
1689.529541	1799.527954
1688.692993	1781.289063
1687.856445	1772.021118
1687.019653	1738.854370
1686.182739	1720.634888
1685.345703	1759.169067
1684.508545	1734.979858
1683.671143	1776.483887
1682.833740	1662.744507
1681.996094	1749.016724
1681.158325	1718.877075
1680.320435	1790.191895
1679.482422	1831.650879
1678.644287	1941.696289
1677.805908	1819.098145
1676.967407	1744.247559
1676.128784	1755.874756
1675.290039	1850.954834
1674.451172	1767.196533
1673.612183	1749.017822
1672.772949	1841.071045
1671.933594	1757.357178
1671.094116	1840.443359
1670.254517	1804.398804
1669.414795	1804.091187
1668.574829	1732.346436
1667.734863	1809.427856
1666.894653	1910.287109
1666.054321	1799.885620
1665.213867	1835.272705
1664.373169	1858.751587
1663.532471	1938.718872
1662.691528	1881.901367
1661.850464	1834.020508
1661.009277	2000.138062
1660.167969	1904.709839
1659.326538	1836.052734
1658.484863	1832.768921
1657.643066	1862.155518
1656.801147	1766.815674
1655.959106	1983.245972
1655.116943	1864.170532
1654.274658	1789.654297
1653.432129	1833.859863
1652.589478	1777.175537
1651.746704	1824.334473
1650.903809	1806.227539
1650.060791	1832.607544
1649.217529	1817.470093
1648.374146	1814.195313
1647.530640	1855.379517
1646.687012	1840.245850
1645.843262	1816.228638
1644.999390	1762.596069
1644.155273	1788.951416
1643.311035	1850.833740
1642.466675	1838.674194
1641.622192	1835.399658
1640.777588	1767.010132
1639.932739	1811.097778
1639.087769	1757.529785
1638.242798	1840.061646
1637.397461	1887.071777
1636.552124	1883.791870
1635.706665	1853.901978
1634.860962	1770.809326
1634.015137	1853.268066
1633.169189	1852.951172
1632.323120	1843.770020
1631.476929	1890.722656
1630.630493	1801.786865
1629.783936	1839.870850
1628.937256	1922.232788
1628.090454	1836.289063
1627.243530	1897.961304
1626.396484	1826.807129
1625.549194	1861.903198
1624.701782	1876.335693
1623.854248	1884.863647
1623.006592	1934.677490
1622.158691	1854.731567
1621.310791	1836.724976
1620.462646	1812.828979
1619.614380	1856.726440
1618.765991	1862.301880
1617.917358	1838.413696
1617.068726	1929.414673
1616.219849	1917.303711
1615.370850	1964.089966
1614.521729	1845.987183
1613.672363	1860.389404
1612.822998	1868.900146
1611.973389	1900.949097
1611.123657	1912.392090
1610.273804	1938.539185
1609.423828	1938.207031
1608.573608	1858.478027
1607.723389	1961.063965
1606.872925	1916.633545
1606.022339	1983.904907
1605.171509	1883.651978
1604.320679	1877.452881
1603.469604	1935.883301
1602.618408	1953.174072
1601.767090	1955.775757
1600.915649	1896.718628
1600.064087	2057.851074
1599.212280	2001.731445
1598.360352	1898.677734
1597.508301	2027.451782
1596.656128	2162.048828
1595.803833	2141.146484
1594.951294	2041.071655
1594.098633	2266.491211
1593.245850	2122.455566
1592.392944	2253.989258
1591.539795	2136.380127
1590.686646	2179.964355
1589.833252	2173.731201
1588.979736	2032.763672
1588.126099	2000.200806
1587.272217	1950.080688
1586.418335	1987.804077
1585.564209	2040.149658
1584.709961	1975.415649
1583.855591	2021.893188
1583.000977	2003.992798
1582.146362	2024.124023
1581.291504	2088.116211
1580.436523	2029.276978
1579.581421	2183.875488
1578.726074	2125.040039
1577.870605	2183.125488
1577.015137	2179.828613
1576.159424	2109.337646
1575.303467	2240.421143
1574.447510	2207.910645
1573.591309	2184.171143
1572.734985	2151.681152
1571.878540	2189.258789
1571.021973	2080.897705
1570.165161	2077.622070
1569.308350	2083.100098
1568.451294	2030.235840
1567.594116	2085.300537
1566.736694	2096.605957
1565.879272	2084.583740
1565.021606	1955.965332
1564.163818	1967.286987
1563.305908	1964.034790
1562.447876	1908.340576
1561.589600	2050.749268
1560.731201	2012.534180
1559.872681	2064.604004
1559.014038	1971.081055
1558.155273	2046.427856
1557.296265	1984.955444
1556.437134	2069.003662
1555.577881	2065.738281
1554.718506	2068.291992
1553.859009	2073.752930
1552.999268	2140.280029
1552.139404	2200.968994
1551.279419	2223.845947
1550.419312	2046.167480
1549.558960	2135.900879
1548.698608	2083.234619
1547.838013	2053.826172
1546.977173	2076.708496
1546.116333	2111.198730
1545.255249	2023.730591
1544.394165	2151.113525
1543.532837	2086.888428
1542.671265	1973.351563
1541.809692	1990.420654
1540.947876	1981.374878
1540.085938	2033.242310
1539.223877	2044.492065
1538.361694	1983.250610
1537.499268	2061.181641
1536.636841	2031.841675
1535.774170	2057.573486
1534.911377	2045.628906
1534.048340	1981.542603
1533.185303	2042.027466
1532.322021	1989.547729
1531.458618	2081.860596
1530.594971	2078.606689
1529.731323	1962.468628
1528.867432	2005.540161
1528.003418	2025.448975
1527.139282	2065.601807
1526.275024	1978.470581
1525.410522	2044.645386
1524.545898	1983.571289
1523.681152	2035.267212
1522.816284	2040.697266
1521.951172	2077.915283
1521.086060	1953.307983
1520.220703	2080.087646
1519.355225	2039.289551
1518.489502	2001.393555
1517.623779	2038.585815
1516.757813	2075.765381
1515.891724	2026.336304
1515.025513	1965.380127
1514.159058	2005.438354
1513.292480	2010.862183
1512.425781	2056.667480
1511.558960	1966.907593
1510.692017	1943.499878
1509.824829	2021.006226
1508.957520	2049.482666
1508.090088	1965.549683
1507.222534	2057.419434
1506.354736	2077.231445
1505.486938	2114.319824
1504.618896	2050.593506
1503.750610	1981.130249
1502.882324	1951.997437
1502.013794	2101.345215
1501.145142	2026.152588
1500.276367	2086.231445
1499.407471	2088.747803
1498.538330	2117.152588
1497.669067	2073.645752
1496.799683	2113.545410
1495.930176	2087.304443
1495.060547	2164.557373
1494.190674	2129.694092
1493.320679	2137.946777
1492.450562	2103.100098
1491.580200	2079.755859
1490.709717	2139.710205
1489.839233	2122.110596
1488.968384	2055.708252
1488.097534	2055.352783
1487.226440	2086.568604
1486.355347	2123.512695
1485.483887	2174.789307
1484.612427	2079.748779
1483.740845	2156.828369
1482.869019	2079.029297
1481.997070	2095.872314
1481.124878	2187.241943
1480.252686	2072.218018
1479.380249	2152.097412
1478.507690	2037.119019
1477.635010	2076.871582
1476.762207	2153.844238
1475.889160	2147.744141
1475.015991	2227.541016
1474.142700	2238.605957
1473.269165	2281.150879
1472.395630	2317.957764
1471.521851	2297.528320
1470.647949	2277.105469
1469.773804	2479.784668
1468.899658	2476.495605
1468.025269	2433.178711
1467.150757	2492.790039
1466.276001	2666.708740
1465.401245	2786.270752
1464.526245	2914.363037
1463.651123	3050.980713
1462.775879	3084.726807
1461.900391	3244.113525
1461.024780	3434.852295
1460.149048	3542.737305
1459.273193	3644.876221
1458.397217	3652.805664
1457.520996	3635.052979
1456.644653	3588.778564
1455.768188	3522.554199
1454.891479	3430.686523
1454.014648	3250.460938
1453.137695	3141.567383
1452.260620	3135.322021
1451.383423	3029.335938
1450.505981	3034.509033
1449.628418	2917.181641
1448.750732	2836.922607
1447.872803	2813.647949
1446.994873	2690.724854
1446.116699	2747.194580
1445.238403	2595.862061
1444.359863	2700.707764
1443.481201	2631.950684
1442.602417	2645.718262
1441.723511	2537.173340
1440.844482	2579.390869
1439.965210	2644.341064
1439.085815	2689.368164
1438.206299	2791.227295
1437.326538	2702.643799
1436.446777	2815.830811
1435.566772	2934.660156
1434.686646	2834.735840
1433.806274	2828.563721
1432.925781	2759.926270
1432.045166	2750.930176
1431.164429	2494.992188
1430.283569	2437.799805
1429.402466	2301.178467
1428.521240	2366.028809
1427.639893	2274.850586
1426.758301	2251.767578
1425.876709	2211.679443
1424.994873	2336.034912
1424.112793	2210.910889
1423.230713	2182.186523
1422.348389	2133.637451
1421.465942	2172.928955
1420.583374	2101.738037
1419.700562	2175.005615
1418.817627	2248.247559
1417.934570	2148.769775
1417.051392	2063.479248
1416.167969	2133.872314
1415.284546	2164.626465
1414.400757	2184.053711
1413.516968	2169.530762
1412.633057	2044.717041
1411.748901	2081.120361
1410.864624	2199.497070
1409.980103	2145.408691
1409.095459	2128.078613
1408.210815	2090.974854
1407.325806	2192.316406
1406.440796	2078.948730
1405.555542	2149.190918
1404.670166	2157.287842
1403.784668	2176.674805
1402.899048	2153.714355
1402.013184	2204.138916
1401.127197	2203.755371
1400.241089	2138.483643
1399.354736	2262.223145
1398.468262	2129.278320
1397.581665	2193.761475
1396.694946	2105.982666
1395.807983	2184.541260
1394.920898	2127.795410
1394.033691	2186.598145
1393.146362	2146.775146
1392.258789	2115.416260
1391.371094	2115.047852
1390.483276	2173.811523
1389.595337	2181.878662
1388.707153	2204.017090
1387.818848	2138.903076
1386.930420	2186.365967
1386.041748	2205.678223
1385.152954	2213.732422
1384.264038	2204.909424
1383.375000	2243.891602
1382.485718	2229.443359
1381.596313	2198.134521
1380.706787	2214.613770
1379.817139	2205.797852
1378.927246	2219.460449
1378.037231	2216.264404
1377.147095	2246.770996
1376.256714	2322.194336
1375.366333	2313.366943
1374.475586	2217.525391
1373.584839	2287.301270
1372.693970	2390.724609
1371.802856	2337.002686
1370.911499	2415.135742
1370.020142	2338.991699
1369.128540	2335.779297
1368.236816	2411.068115
1367.344971	2329.357910
1366.453003	2354.174561
1365.560791	2426.618164
1364.668457	2381.368896
1363.775879	2417.367676
1362.883301	2470.157471
1361.990479	2500.527832
1361.097534	2561.683594
1360.204346	2589.227783
1359.311035	2667.138672
1358.417603	2764.609375
1357.524048	2646.623047
1356.630249	2634.971924
1355.736450	2584.170654
1354.842285	2648.032471
1353.948120	2502.191162
1353.053711	2375.967285
1352.159180	2439.831787
1351.264526	2363.959961
1350.369751	2408.247314
1349.474731	2368.720215
1348.579590	2424.162598
1347.684204	2420.946289
1346.788818	2507.070068
1345.893188	2436.848145
1344.997314	2464.330566
1344.101440	2466.690186
1343.205322	2577.854248
1342.309082	2569.035156
1341.412720	2487.707520
1340.516113	2568.136719
1339.619385	2492.413330
1338.722534	2408.353760
1337.825439	2575.150146
1336.928223	2585.845459
1336.030884	2565.891113
1335.133423	2579.369629
1334.235718	2684.748535
1333.337891	2631.372803
1332.439941	2912.099854
1331.541870	2914.373779
1330.643555	3136.508301
1329.745117	3230.566895
1328.846436	3305.117676
1327.947754	3287.849365
1327.048828	3295.617188
1326.149780	3144.886230
1325.250488	3022.009521
1324.351074	2810.226807
1323.451538	2690.230713
1322.551880	2689.759521
1321.651978	2653.171875
1320.751953	2627.707764
1319.851807	2496.718262
1318.951416	2421.309326
1318.050903	2493.067383
1317.150269	2345.515381
1316.249512	2331.228027
1315.348511	2397.414307
1314.447388	2266.602051
1313.546021	2388.252686
1312.644653	2335.140869
1311.743042	2229.363525
1310.841309	2389.769287
1309.939331	2411.525391
1309.037231	2449.901855
1308.135010	2416.221680
1307.232666	2401.945801
1306.330078	2379.365234
1305.427368	2473.108887
1304.524536	2508.671631
1303.621460	2513.768555
1302.718262	2372.160400
1301.814941	2407.721924
1300.911499	2396.231445
1300.007813	2359.846191
1299.104004	2400.922607
1298.199951	2472.405762
1297.295898	2289.477539
1296.391602	2438.363281
1295.487061	2363.304688
1294.582520	2387.762207
1293.677734	2315.501953
1292.772827	2240.503906
1291.867676	2264.970215
1290.962402	2325.329346
1290.057007	2255.891357
1289.151489	2321.751953
1288.245728	2255.099121
1287.339844	2216.066895
1286.433838	2290.177246
1285.527588	2287.016357
1284.621216	2104.568115
1283.714722	2186.932373
1282.808105	2109.343506
1281.901245	2031.781616
1280.994263	2136.165771
1280.087036	2122.010986
1279.179810	2088.573730
1278.272217	2217.686523
1277.364624	2049.278076
1276.456787	2057.179688
1275.548828	2067.831787
1274.640747	2070.221191
1273.732544	2152.431396
1272.824097	2179.572754
1271.915405	2102.147461
1271.006714	2041.255493
1270.097778	2065.651367
1269.188721	2059.788086
1268.279541	1985.187500
1267.370117	1962.845703
1266.460571	2086.187500
1265.550781	2135.286621
1264.640991	2071.715332
1263.730957	2065.856689
1262.820679	2051.759766
1261.910400	2106.322510
1260.999878	2180.085693
1260.089233	2058.912598
1259.178345	2217.744629
1258.267334	2239.308350
1257.356201	2170.320068
1256.444824	2178.167969
1255.533447	2221.669189
1254.621704	2287.093750
1253.709961	2267.498291
1252.797974	2335.632813
1251.885864	2189.955322
1250.973633	2129.281250
1250.061157	2189.184082
1249.148560	2081.961182
1248.235840	2141.851074
1247.322876	2138.735352
1246.409790	2091.812988
1245.496582	2105.131836
1244.583130	2044.546875
1243.669556	2068.815430
1242.755859	2068.450684
1241.841919	2007.903931
1240.927856	2073.191895
1240.013672	2132.987793
1239.099365	2017.778931
1238.184814	2170.506836
1237.270142	2047.132324
1236.355225	2087.761475
1235.440186	2092.857666
1234.525024	2108.878906
1233.609741	2021.107910
1232.694214	2039.866699
1231.778564	2080.460938
1230.862671	2085.553467
1229.946777	2139.771729
1229.030640	2158.496094
1228.114258	2215.410400
1227.197876	2043.164551
1226.281128	2162.808594
1225.364380	2219.691650
1224.447388	2175.677490
1223.530273	2150.760010
1222.613037	2297.554932
1221.695557	2335.299072
1220.777954	2323.988770
1219.860229	2408.022705
1218.942261	2366.744873
1218.024170	2388.111328
1217.105957	2404.025146
1216.187500	2351.881104
1215.268921	2277.982422
1214.350220	2258.532227
1213.431274	2241.809570
1212.512207	2178.849854
1211.593018	2221.979980
1210.673706	2140.011475
1209.754150	2074.384033
1208.834351	2171.874268
1207.914551	2223.128174
1206.994507	2097.740479
1206.074219	2143.555420
1205.153931	2124.162354
1204.233398	2031.448364
1203.312744	2123.411621
1202.391846	2133.895752
1201.470825	2057.515381
1200.549683	2135.855225
1199.628296	2083.922363
1198.706787	2140.526123
1197.785156	2159.135010
1196.863281	2115.361084
1195.941284	2060.756592
1195.019165	2011.593506
1194.096802	2116.949707
1193.174438	2094.894531
1192.251709	2007.816650
1191.328979	2023.716187
1190.406006	1993.563110
1189.482788	2044.665527
1188.559570	2036.180664
1187.636108	2084.550049
1186.712402	2032.753418
1185.788696	2067.574951
1184.864746	2045.562866
1183.940552	2077.664307
1183.016357	2074.591797
1182.091919	2041.772461
1181.167236	2130.638184
1180.242554	2122.150879
1179.317505	2048.796875
1178.392456	2118.697021
1177.467163	2145.341309
1176.541748	2101.737793
1175.616211	2147.282471
1174.690430	2192.810547
1173.764526	2308.523438
1172.838501	2407.997803
1171.912231	2402.173096
1170.985840	2569.060059
1170.059204	2582.095459
1169.132446	2605.916748
1168.205566	2753.798584
1167.278564	2791.064209
1166.351318	2798.657959
1165.423828	2684.941650
1164.496338	2619.779785
1163.568604	2535.777588
1162.640747	2621.545166
1161.712646	2599.530029
1160.784424	2512.882324
1159.856079	2412.801025
1158.927490	2458.143555
1157.998779	2581.535156
1157.069946	2589.151611
1156.140869	2607.529053
1155.211670	2609.756836
1154.282349	2649.643799
1153.352783	2673.379395
1152.423096	2836.936523
1151.493164	2927.844238
1150.563232	2854.746338
1149.632935	2792.424805
1148.702637	2732.812500
1147.772095	2737.700684
1146.841431	2473.969482
1145.910522	2341.930908
1144.979492	2381.793457
1144.048340	2306.197754
1143.116943	2260.155762
1142.185425	2216.813721
1141.253784	2111.770752
1140.321899	2119.444092
1139.389893	2242.456543
1138.457764	2099.918213
1137.525391	2153.173340
1136.592896	2115.257813
1135.660278	2149.728027
1134.727417	2111.826416
1133.794434	2065.899658
1132.861206	2033.384155
1131.927856	2078.558350
1130.994385	2113.003906
1130.060669	2117.983643
1129.126831	2160.441162
1128.192871	2117.230713
1127.258667	2108.825928
1126.324341	2148.586426
1125.389893	2177.631836
1124.455200	2064.905273
1123.520386	2056.515381
1122.585327	2098.930420
1121.650146	2213.510010
1120.714844	2047.399902
1119.779297	2103.155518
1118.843628	2081.406250
1117.907837	2011.579102
1116.971802	2008.550293
1116.035645	2072.284180
1115.099365	1975.795654
1114.162842	2034.173584
1113.226196	2023.135376
1112.289307	2126.849609
1111.352417	2043.760132
1110.415161	2064.737305
1109.477905	2027.029785
1108.540405	2061.335693
1107.602661	2060.968750
1106.664917	2041.941650
1105.726807	2140.192139
1104.788696	2035.885132
1103.850342	2091.472656
1102.911865	2125.729980
1101.973145	2141.331543
1101.034302	2178.230225
1100.095337	2089.983154
1099.156128	2068.315430
1098.216797	2121.176025
1097.277344	2009.037109
1096.337646	2083.173096
1095.397827	2061.521729
1094.457764	2045.197021
1093.517700	2098.014160
1092.577271	2126.885010
1091.636841	2036.129395
1090.696167	2067.658203
1089.755249	2075.261230
1088.814209	2109.428467
1087.873047	2109.052490
1086.931763	2058.217041
1085.990234	2190.614502
1085.048584	2131.817871
1084.106689	2075.696533
1083.164673	2046.133667
1082.222412	1960.859985
1081.280151	2114.379883
1080.337524	2063.605957
1079.394897	2015.502319
1078.452026	2020.445679
1077.509033	1990.923828
1076.565796	2062.133789
1075.622437	2035.264771
1074.678955	1984.558960
1073.735229	2042.485840
1072.791382	2071.256592
1071.847290	2044.404907
1070.903076	2067.869385
1069.958740	2091.325439
1069.014160	2104.186035
1068.069458	2048.238037
1067.124512	2119.309570
1066.179565	2129.512451
1065.234253	2020.692017
1064.288940	2075.863770
1063.343384	2144.235352
1062.397583	2120.061035
1061.451660	2072.108398
1060.505615	2087.593506
1059.559448	2121.567139
1058.613037	2150.245361
1057.666382	2128.732178
1056.719727	2120.429932
1055.772827	2257.339355
1054.825684	2227.899414
1053.878418	2380.575928
1052.931030	2369.595459
1051.983398	2374.448242
1051.035645	2355.559082
1050.087769	2252.281982
1049.139648	2294.069092
1048.191406	2296.295166
1047.242920	2280.069092
1046.294312	2274.390381
1045.345581	2216.014160
1044.396606	2315.729004
1043.447510	2344.289063
1042.498291	2233.260010
1041.548828	2301.320801
1040.599121	2287.745850
1039.649414	2337.347412
1038.699341	2289.558838
1037.749268	2341.773438
1036.798950	2433.429932
1035.848511	2411.952148
1034.897827	2366.813965
1033.947021	2342.726563
1032.996094	2297.616455
1032.044922	2305.090332
1031.093506	2228.468262
1030.142090	2149.245850
1029.190430	2193.519531
1028.238525	2116.958252
1027.286499	2071.936523
1026.334351	2192.341064
1025.381958	2097.445313
1024.429443	2123.315674
1023.476807	2083.572998
1022.523926	2112.060303
1021.570923	2137.913818
1020.617737	2127.039795
1019.664368	2100.436035
1018.710815	2155.117188
1017.757080	2104.925781
1016.803223	2135.998779
1015.849121	2143.477051
1014.894897	2022.576538
1013.940491	2024.833374
1012.985962	2123.991455
1012.031189	2134.084717
1011.076294	2091.813477
1010.121216	2112.378906
1009.165955	2091.063232
1008.210510	2137.787354
1007.254944	2116.474609
1006.299133	2155.330322
1005.343201	2110.484863
1004.387085	2115.335938
1003.430786	2107.113525
1002.474365	2206.060303
1001.517700	2210.891113
1000.560913	2270.590576
999.603943	2301.531982
998.646790	2290.671143
997.689514	2441.725098
996.731995	2368.178711
995.774353	2386.027344
994.816528	2296.856689
993.858521	2236.423584
992.900330	2217.758301
991.942017	2212.142578
990.983459	2123.066895
990.024780	2177.447754
989.065918	2132.733398
988.106873	2140.170654
987.147705	2051.171387
986.188293	2149.824951
985.228760	2079.093506
984.269043	2133.423096
983.309143	2143.457520
982.349060	2208.171631
981.388794	2108.841553
980.428406	2100.653320
979.467834	2199.173584
978.507019	2167.552979
977.546082	2206.187744
976.585022	2424.289307
975.623718	2473.266846
974.662292	2634.036621
973.700623	2737.553467
972.738831	2916.412842
971.776855	2718.377197
970.814758	2574.978271
969.852417	2574.515137
968.889954	2413.011230
967.927246	2415.174072
966.964417	2329.055420
966.001404	2240.371338
965.038208	2302.261719
964.074890	2244.755371
963.111328	2130.187744
962.147644	2142.775146
961.183777	2036.048096
960.219727	2188.681885
959.255493	2149.396484
958.291077	2097.163818
957.326538	2146.030762
956.361755	2065.312256
955.396851	2049.395020
954.431763	2137.100342
953.466492	2053.836914
952.501038	2128.562256
951.535461	2076.398193
950.569641	2081.201416
949.603699	2073.062012
948.637573	2202.070068
947.671265	2131.819824
946.704773	2167.649414
945.738098	2146.569092
944.771240	2203.068848
943.804260	2132.868896
942.837097	2235.877686
941.869751	2209.630859
940.902222	2307.420654
939.934509	2330.255615
938.966614	2242.014648
937.998535	2381.065430
937.030334	2282.518799
936.061951	2253.709961
935.093323	2268.790039
934.124573	2092.897461
933.155640	2089.939697
932.186584	2094.722168
931.217285	2117.557617
930.247864	2212.590088
929.278198	2137.419922
928.308411	2180.857666
927.338440	2159.845215
926.368286	2185.224365
925.397949	2200.288818
924.427429	2207.619629
923.456787	2199.494629
922.485901	2090.945068
921.514893	2237.319336
920.543701	2118.505615
919.572327	2120.696777
918.600769	2102.301514
917.629028	2096.776367
916.657104	2083.536377
915.685059	2008.577759
914.712769	2049.356445
913.740356	2108.116211
912.767761	2115.446777
911.794983	2043.106079
910.822021	2076.140137
909.848877	2042.367920
908.875549	2049.704346
907.902039	2069.878662
906.928406	1984.773071
905.954590	2112.772217
904.980530	2184.257813
904.006348	2153.068359
903.031982	2111.626709
902.057434	2172.812256
901.082703	2223.716309
900.107849	2215.621094
899.132751	2302.393311
898.157532	2212.256348
897.182068	2250.301025
896.206482	2252.456543
895.230713	2203.369873
894.254761	2095.384277
893.278625	2133.422363
892.302307	2071.580322
891.325806	2089.126953
890.349182	2111.786621
889.372314	2139.556396
888.395325	2057.287109
887.418091	2097.848389
886.440735	2097.468750
885.463196	2048.497803
884.485474	2106.937256
883.507568	2111.668701
882.529480	2055.053711
881.551270	2121.126465
880.572815	2113.076904
879.594238	2089.702393
878.615417	2160.841309
877.636475	2086.391846
876.657349	2134.525879
875.677979	2185.195313
874.698486	2118.438477
873.718811	2161.436523
872.739014	2237.587402
871.758972	2173.408203
870.778748	2226.574463
869.798401	2200.670654
868.817810	2146.731201
867.837097	2146.342041
866.856140	2163.793457
865.875061	2137.919434
864.893799	2185.938232
863.912354	2165.164063
862.930725	2259.002686
861.948914	2205.120117
860.966919	2225.087158
859.984741	2194.138672
859.002441	2333.712646
858.019897	2203.520752
857.037231	2208.208984
856.054321	2179.829346
855.071289	2199.778564
854.088074	2189.208984
853.104614	2229.486572
852.121033	2201.123047
851.137268	2231.218750
850.153320	2261.303223
849.169189	2400.610840
848.184937	2354.457520
847.200439	2463.224609
846.215759	2427.232178
845.230896	2485.176514
844.245911	2662.386963
843.260681	2984.174072
842.275330	3214.508301
841.289795	3323.000244
840.304016	3395.945801
839.318115	3141.757080
838.332031	2897.801270
837.345764	2740.117432
836.359314	2607.833984
835.372681	2561.750488
834.385864	2601.819580
833.398865	2527.891113
832.411743	2547.691650
831.424377	2534.568359
830.436829	2501.197266
829.449158	2391.904541
828.461243	2571.146240
827.473206	2461.880371
826.484924	2423.486816
825.496521	2367.402100
824.507935	2407.432617
823.519104	2303.332275
822.530151	2391.389648
821.541016	2378.317627
820.551697	2489.072021
819.562195	2402.717529
818.572510	2407.332520
817.582642	2495.290527
816.592590	2454.434326
815.602356	2620.616455
814.611938	2640.333252
813.621399	2811.468506
812.630615	2982.541260
811.639648	3183.825684
810.648560	3569.170654
809.657227	3972.028564
808.665771	4034.342041
807.674072	4028.565430
806.682251	3740.489746
805.690186	3354.235352
804.697998	3018.513916
803.705566	2773.604736
802.713013	2599.308594
801.720276	2493.068604
800.727356	2469.954346
799.734253	2406.571045
798.740906	2471.571289
797.747437	2433.374756
796.753784	2437.963379
795.759949	2359.538574
794.765930	2235.871582
793.771729	2243.007813
792.777344	2214.943604
791.782776	2317.600098
790.788025	2256.860596
789.793091	2279.063965
788.798035	2273.623779
787.802734	2233.020020
786.807251	2127.135010
785.811584	2217.140137
784.815796	2251.882080
783.819763	2171.151367
782.823547	2175.774414
781.827148	2137.741211
780.830627	2142.368408
779.833862	2144.485840
778.836975	2096.447998
777.839844	2106.094482
776.842529	2203.475342
775.845093	2120.363770
774.847412	2049.812256
773.849609	2144.644287
772.851563	2049.063965
771.853394	2181.428955
770.854980	2143.469727
769.856445	2067.970703
768.857666	2122.662109
767.858765	2087.236816
766.859680	2154.415771
765.860352	2144.015137
764.860901	2191.148438
763.861206	2190.748291
762.861389	2160.343262
761.861389	2162.448730
760.861145	2217.042236
759.860779	2121.674072
758.860168	2116.289307
757.859436	2098.415771
756.858521	2175.459473
755.857361	2107.637451
754.856079	2139.709961
753.854614	2149.303955
752.852905	2118.961182
751.851074	2163.490479
750.848999	2262.891602
749.846802	2319.850586
748.844421	2227.147949
747.841797	2136.972900
746.839050	2164.006104
745.836121	2068.890137
744.832947	2135.800537
743.829651	2105.509033
742.826111	2202.283447
741.822449	2112.211182
740.818604	2121.786133
739.814514	2233.443604
738.810303	2061.262939
737.805847	2225.159180
736.801270	2257.102783
735.796448	2144.726074
734.791504	2204.036377
733.786316	2151.402344
732.781006	2208.202881
731.775452	2260.010010
730.769775	2182.536377
729.763855	2254.211670
728.757751	2184.221924
727.751526	2146.555176
726.745056	2173.485840
725.738403	2272.428955
724.731628	2212.418945
723.724609	2204.565674
722.717407	2137.143311
721.710083	2193.831055
720.702515	2143.803955
719.694763	2170.699951
718.686829	2239.751709
717.678711	2194.703125
716.670410	2266.204590
715.661987	2161.671875
714.653320	2176.146729
713.644470	2163.357422
712.635437	2056.423096
711.626221	2093.203369
710.616821	2070.529297
709.607178	2082.530762
708.597412	2181.180908
707.587463	2222.861572
706.577332	2103.658936
705.567017	2239.367188
704.556458	2184.528809
703.545776	2206.389648
702.534912	2146.631104
701.523804	2099.257324
700.512573	2175.509277
699.501099	2155.336182
698.489502	2182.124512
697.477661	2228.669189
696.465698	2186.264160
695.453491	2171.043457
694.441101	2178.052979
693.428589	2291.226807
692.415833	2105.665527
691.402893	2139.832031
690.389771	2248.015137
689.376465	2158.783691
688.362976	2150.986816
687.349304	2256.641602
686.335449	2258.692871
685.321411	2307.585205
684.307190	2270.187500
683.292725	2291.950439
682.278137	2215.145020
681.263367	2155.612549
680.248352	2253.740479
679.233215	2167.133301
678.217834	2206.130127
677.202332	2277.115234
676.186584	2227.470703
675.170654	2170.461914
674.154541	2064.266113
673.138306	2125.384766
672.121826	2193.859619
671.105164	2220.505371
670.088318	2114.377930
669.071289	2101.698486
668.054016	2194.703369
667.036621	2209.042969
666.019043	2255.315186
665.001282	2043.656860
663.983276	2205.367920
662.965149	2138.666016
661.946777	2057.258545
660.928223	2275.331299
659.909546	2208.652832
658.890625	2156.720703
657.871521	2207.839844
656.852234	2151.021240
655.832764	2160.434082
654.813110	2169.843506
653.793274	2140.027588
652.773254	2240.120361
651.752991	2168.644775
650.732605	2185.395264
649.711975	2106.607422
648.691223	2142.955566
647.670227	2164.598633
646.649048	2193.578125
645.627747	2207.860352
644.606201	2187.875244
643.584473	2204.599854
642.562561	2292.263428
641.540466	2213.570801
640.518127	2203.380859
639.495667	2249.430420
638.473022	2170.789063
637.450134	2192.385986
636.427063	2287.285156
635.403870	2201.350342
634.380432	2105.676025
633.356812	2207.865479
632.333008	2175.713867
631.309021	2167.988281
630.284851	2172.470215
629.260498	2242.844727
628.235901	2208.269775
627.211182	2315.206055
626.186218	2156.232178
625.161133	2109.498535
624.135803	2257.843994
623.110291	2306.183838
622.084595	2310.632813
621.058716	2256.593994
620.032654	2265.923340
619.006409	2129.087402
617.979919	2226.117432
616.953308	2225.706299
615.926453	2232.599365
614.899414	2193.239502
613.872253	2258.546387
612.844849	2219.195801
611.817261	2260.144775
610.789490	2310.808350
609.761475	2222.830078
608.733337	2076.527588
607.705017	2185.542480
606.676453	2160.832275
605.647705	2119.119873
604.618774	2133.306641
603.589722	2256.805908
602.560425	2227.242676
601.530884	2136.980469
600.501221	2194.855957
599.471375	2221.152588
598.441284	2242.585205
597.411011	2120.841064
596.380615	2210.216064
595.349976	2187.976074
594.319153	2177.870361
593.288147	2172.617920
592.256897	2186.761963
591.225525	2133.031738
590.193970	2205.340576
589.162170	2321.236572
588.130188	2303.849121
587.098022	2233.181885
586.065674	2283.623291
585.033142	2258.988525
584.000427	2176.264404
582.967468	2204.905273
581.934387	2252.894531
580.901062	2242.799805
579.867554	2203.680908
578.833862	2241.969238
577.799988	2270.570801
576.765930	2219.380371
575.731628	2279.398682
574.697205	2247.558838
573.662537	2249.558838
572.627747	2316.785400
571.592712	2214.909912
570.557434	2241.063965
569.522034	2139.239990
568.486450	2175.054199
567.450623	2268.781494
566.414673	2241.816162
565.378479	2226.924561
564.342102	2178.266602
563.305542	2177.862793
562.268799	2283.558838
561.231812	2350.641113
560.194702	2306.816895
559.157349	2354.589355
558.119812	2342.104980
557.082092	2271.805908
556.044189	2355.688232
555.006042	2307.086670
553.967773	2311.474121
552.929260	2286.971924
551.890625	2344.312988
550.851746	2247.620117
549.812683	2259.233154
548.773376	2263.625000
547.733948	2251.179199
546.694275	2282.021973
545.654419	2284.002686
544.614441	2197.042969
543.574158	2271.138184
542.533752	2263.507813
541.493164	2311.135986
540.452332	2334.726807
539.411316	2334.293213
538.370178	2271.431152
537.328735	2350.230713
536.287170	2421.800049
535.245422	2447.747314
534.203430	2490.480225
533.161255	2434.843750
532.118896	2369.634033
531.076355	2373.989746
530.033630	2375.946045
528.990723	2382.695557
527.947571	2355.889893
526.904236	2326.697754
525.860718	2417.303223
524.817017	2505.479980
523.773132	2342.164307
522.729004	2348.911865
521.684692	2389.172363
520.640198	2340.857910
519.595520	2321.277832
518.550659	2414.158691
517.505615	2385.003418
516.460327	2406.085205
515.414856	2467.811279
514.369202	2338.246582
513.323364	2208.729736
512.277283	2356.496094
511.231079	2308.267334
510.184631	2209.885986
509.138000	2149.759033
508.091187	2146.970703
507.044159	2096.428711
505.996948	2136.622314
504.949554	2243.632568
503.901947	2178.781982
502.854126	2180.762207
501.806152	2163.657715
500.757965	2261.042236
499.709564	2308.313721
