#Wave		#Intensity
3200.600830	88.406898
3200.007080	92.616753
3199.413086	37.882946
3198.819092	88.380180
3198.224854	122.030365
3197.630615	84.146156
3197.036377	63.100075
3196.442139	71.502609
3195.847656	67.286400
3195.252930	121.938164
3194.658447	79.878441
3194.063721	71.459381
3193.468750	71.448570
3192.873779	67.235550
3192.278809	50.419033
3191.683838	79.818069
3191.088623	75.605682
3190.493164	58.795525
3189.897949	71.383766
3189.302490	33.587280
3188.706787	62.966625
3188.111328	50.365681
3187.515381	50.358059
3186.919678	83.917404
3186.323730	62.928532
3185.727783	58.724411
3185.131592	58.715523
3184.535400	67.093300
3183.939209	58.697758
3183.342773	50.304749
3182.746338	83.828560
3182.149902	46.098732
3181.553223	67.042549
3180.956543	58.653355
3180.359619	33.511131
3179.762695	71.200371
3179.165771	62.814346
3178.568604	79.552795
3177.971436	75.354393
3177.374268	54.414379
3176.776855	58.591228
3176.179443	66.951263
3175.581787	83.676414
3174.984131	71.114182
3174.386475	50.190643
3173.788574	71.092644
3173.190674	66.900589
3172.592773	66.890457
3171.994629	58.520287
3171.396484	54.332035
3170.798340	96.111343
3170.199951	58.493698
3169.601563	75.194786
3169.002930	75.183395
3168.404297	70.995781
3167.805664	66.809441
3167.206787	58.449402
3166.607910	79.312164
3166.008789	66.779076
3165.409912	75.115074
3164.810547	41.724270
3164.211426	50.061539
3163.612061	75.080925
3163.012695	58.387424
3162.413086	45.868881
3161.813477	70.877525
3161.213623	37.517708
3160.614014	33.344017
3160.013916	54.175816
3159.414063	70.834557
3158.813965	116.650986
3158.213867	91.640450
3157.613525	45.813278
3157.013184	62.463181
3156.412598	66.617287
3155.812256	79.096031
3155.211426	58.272446
3154.610840	62.425297
3154.010010	74.898994
3153.409180	83.208481
3152.808105	58.237103
3152.207031	8.318324
3151.605957	37.426777
3151.004639	70.684303
3150.403320	66.516312
3149.801758	54.036301
3149.200195	66.496124
3148.598633	62.330658
3147.996826	62.321198
3147.395020	41.541161
3146.793213	62.302284
3146.191162	62.292831
3145.589111	49.826702
3144.986816	78.880302
3144.384766	45.660610
3143.782227	74.706024
3143.179932	70.544975
3142.577393	37.341671
3141.974609	74.672005
3141.371826	78.808479
3140.769043	62.207775
3140.166260	58.051773
3139.563232	58.042961
3138.960205	74.615334
3138.356934	95.327332
3137.753662	62.160557
3137.150391	95.298378
3136.546875	82.855568
3135.943359	57.990089
3135.339600	53.839760
3134.735840	62.113365
3134.132080	74.524712
3133.528076	62.094494
3132.924072	74.502075
3132.320068	62.075626
3131.715820	62.066196
3131.111572	78.605232
3130.507080	62.047337
3129.902588	57.902046
3129.298096	53.758015
3128.693604	24.807621
3128.088867	24.803850
3127.483887	78.533585
3126.878906	86.787086
3126.273926	78.509712
3125.668945	82.629242
3125.063721	82.616684
3124.458252	61.953091
3123.853027	57.814095
3123.247559	103.223755
3122.641846	86.694771
3122.036133	41.276947
3121.430420	61.906006
3120.824707	90.781670
3120.218750	82.516235
3119.612549	74.253319
3119.006592	78.366585
3118.400391	82.478592
3117.793945	65.972839
3117.187500	61.840126
3116.581055	98.929153
3115.974609	74.185577
3115.367920	82.415878
3114.760986	49.442005
3114.154297	37.075859
3113.547363	61.783699
3112.940186	53.537724
3112.333008	82.353195
3111.725830	53.521431
3111.118408	41.164066
3110.510986	90.547165
3109.903564	69.957611
3109.295898	65.832436
3108.688232	28.797308
3108.080566	49.359299
3107.472656	57.577080
3106.864746	78.128426
3106.256592	61.670948
3105.648438	90.436951
3105.040039	61.652168
3104.431885	73.971336
3103.823486	57.524502
3103.214844	69.840546
3102.606201	36.968777
3101.997559	41.070160
3101.388672	94.446983
3100.779785	53.374947
3100.170898	61.577095
3099.561768	65.672234
3098.952637	32.831112
3098.343262	41.032639
3097.733887	53.334305
3097.124512	57.428192
3096.514893	32.811111
3095.905273	69.712982
3095.295410	61.502087
3094.685791	53.293686
3094.075684	57.384453
3093.465820	32.786118
3092.855713	90.148087
3092.245361	106.522408
3091.635254	69.638649
3091.024658	45.053436
3090.414307	53.236851
3089.803711	77.795845
3089.193115	90.065666
3088.582275	49.119236
3087.971436	94.130852
3087.360596	57.288303
3086.749512	57.279568
3086.138428	65.452385
3085.527100	53.171951
3084.915771	57.253368
3084.304443	57.244637
3083.692871	28.617952
3083.081299	73.577797
3082.469482	44.957352
3081.857910	93.987396
3081.245850	40.857853
3080.634033	61.277428
3080.021973	93.944389
3079.409668	77.594391
3078.797607	57.166092
3078.185059	57.157368
3077.572754	77.558876
3076.960205	36.732811
3076.347656	44.888805
3075.734863	48.962132
3075.122070	53.034214
3074.509033	53.026119
3073.895996	65.252960
3073.282959	73.398369
3072.669922	44.847713
3072.056641	77.452408
3071.443115	65.213120
3070.829834	65.203163
3070.216064	65.193207
3069.602539	69.257210
3068.988770	69.246635
3068.375000	89.599609
3067.760986	61.081310
3067.146973	61.071983
3066.532715	77.346031
3065.918701	61.053329
3065.304199	69.183205
3064.689941	77.310593
3064.075439	61.025356
3063.460693	56.948299
3062.846191	81.342285
3062.231445	44.731422
3061.616455	56.922203
3061.001465	52.848255
3060.386475	52.840179
3059.771240	52.832108
3059.156006	32.507095
3058.540771	69.067024
3057.925293	64.994324
3057.309814	93.415062
3056.694092	64.974457
3056.078369	56.843960
3055.462646	105.551216
3054.846680	60.885624
3054.230713	36.525791
3053.614502	52.751411
3052.998291	68.972069
3052.382080	73.018082
3051.765625	85.174736
3051.149170	60.829792
3050.532715	72.984589
3049.916016	77.027512
3049.299316	60.801891
3048.682373	52.686913
3048.065430	56.731075
3047.448486	36.464397
3046.831299	76.968620
3046.214111	64.805763
3045.596680	56.696369
3044.979248	64.785942
3044.361816	60.727528
3043.744141	72.861885
3043.126465	52.614418
3042.508545	72.839584
3041.890869	52.598316
3041.272705	68.771889
3040.654785	56.627007
3040.036621	68.750839
3039.418213	40.435482
3038.799805	68.729797
3038.181396	80.846207
3037.562988	60.625374
3036.944336	44.451801
3036.325439	56.566360
3035.706543	76.756882
3035.087646	40.392174
3034.468750	68.656181
3033.849609	64.607689
3033.230469	88.821968
3032.611084	76.698135
3031.991699	68.614136
3031.372070	52.461597
3030.752441	52.453564
3030.132813	76.651161
3029.513184	60.504803
3028.893066	60.495533
3028.273193	68.551102
3027.653076	80.636002
3027.032959	56.436554
3026.412598	76.580734
3025.792480	64.479156
3025.171875	48.351955
3024.551270	64.459396
3023.930664	76.533806
3023.310059	76.522079
3022.689209	92.617790
3022.068115	72.472382
3021.447266	60.384392
3020.826172	96.600220
3020.204834	52.317097
3019.583496	48.285305
3018.962158	48.277901
3018.340576	44.247959
3017.718994	88.482346
3017.097412	84.447472
3016.475586	52.268993
3015.853760	72.361351
3015.231689	80.389175
3014.609619	104.489899
3013.987549	72.328072
3013.365234	92.405022
3012.742920	88.373856
3012.120361	84.343925
3011.497803	76.299469
3010.875244	88.333199
3010.252441	48.174355
3009.629639	28.097395
3009.006836	84.279251
3008.383789	48.152184
3007.760498	80.241325
3007.137451	56.160309
3006.514160	128.346725
3005.890625	60.153294
3005.267090	80.192085
3004.643555	92.206741
3004.019775	68.142349
3003.395996	56.108616
3002.772217	80.142860
3002.148193	100.163200
3001.524170	36.053215
3000.899902	72.095360
3000.275635	60.070244
2999.651367	56.056953
2999.026855	80.069069
2998.402344	64.045418
2997.777588	64.035583
2997.152832	48.019314
2996.528076	56.013927
2995.903076	108.010269
2995.278076	83.995087
2994.653076	75.983879
2994.027832	87.967819
2993.402344	87.954308
2992.777100	59.959633
2992.151367	107.910759
2991.525879	103.898102
2990.900146	87.900269
2990.274414	75.902206
2989.648438	75.890541
2989.022461	79.872505
2988.396240	95.832283
2987.770264	87.832756
2987.143799	67.860336
2986.517578	103.770447
2985.891113	107.745056
2985.264404	63.839108
2984.637695	103.722603
2984.010986	63.819481
2983.384033	115.655029
2982.757080	67.787354
2982.130127	123.593224
2981.502930	95.670364
2980.875732	151.454788
2980.248291	71.730705
2979.620850	79.688530
2978.993408	139.433487
2978.365723	151.361649
2977.738037	111.512482
2977.110107	119.459282
2976.482178	111.478180
2975.854248	147.287796
2975.226074	147.265137
2974.597900	147.242477
2973.969482	159.156570
2973.341309	179.023590
2972.712646	147.174530
2972.083984	171.014343
2971.455322	186.893890
2970.826660	206.744400
2970.197754	170.935410
2969.568604	190.782257
2968.939697	194.726913
2968.310547	222.510788
2967.681152	254.258896
2967.051758	301.885956
2966.422363	281.981628
2965.792725	297.822052
2965.163086	349.390747
2964.533203	293.760620
2963.903564	329.437531
2963.273438	361.134949
2962.643311	337.271912
2962.013184	448.304199
2961.383057	420.468384
2960.752686	384.708984
2960.122314	424.304321
2959.491699	404.414734
2958.861084	420.209381
2958.230225	467.708221
2957.599609	471.599182
2956.968506	459.639313
2956.337646	392.217926
2955.706299	392.157501
2955.075195	372.294189
2954.443848	443.516235
2953.812500	391.976257
2953.180908	380.039612
2952.549316	439.353088
2951.917725	348.262299
2951.285889	466.916077
2950.653809	522.232422
2950.021973	502.373444
2949.389893	482.520569
2948.757568	474.537231
2948.125244	494.233398
2947.492920	498.110474
2946.860352	450.601898
2946.227783	418.916107
2945.595215	399.094360
2944.962402	327.918060
2944.329590	375.270020
2943.696533	347.564941
2943.063477	280.378479
2942.430420	264.541687
2941.797119	280.291992
2941.163574	224.988434
2940.530273	240.739960
2939.896729	244.648758
2939.262939	240.665680
2938.629150	228.794357
2937.995361	252.423798
2937.361328	232.667282
2936.727295	268.117523
2936.093262	220.768585
2935.458984	260.151398
2934.824707	248.288010
2934.190186	240.368759
2933.555664	220.632339
2932.921143	236.355301
2932.286377	283.582581
2931.651367	303.229004
2931.016602	354.368805
2930.381592	295.261749
2929.746338	342.450745
2929.111084	350.269104
2928.475830	377.760010
2927.840332	361.964111
2927.204834	420.914978
2926.569336	456.248596
2925.933594	456.178131
2925.297607	452.175720
2924.661865	495.350800
2924.025879	538.512512
2923.389648	503.058044
2922.753418	518.698486
2922.117188	483.257996
2921.480713	514.609924
2920.844238	447.759277
2920.207764	506.596710
2919.571045	490.812439
2918.934082	490.736572
2918.297363	494.586029
2917.660156	502.358978
2917.023193	459.116516
2916.385986	510.050629
2915.748779	474.666077
2915.111328	470.670441
2914.473877	450.989441
2913.836182	454.840790
2913.198486	427.327423
2912.560791	466.459656
2911.922852	442.872192
2911.284912	548.606384
2910.646729	509.341431
2910.008545	474.006042
2909.370361	520.934326
2908.731934	567.848083
2908.093506	532.519958
2907.455078	552.012512
2906.816406	618.471558
2906.177490	641.858521
2905.538574	673.064575
2904.899658	696.435791
2904.260498	649.384644
2903.621338	719.688477
2902.982178	703.934143
2902.342773	684.274536
2901.703369	684.168640
2901.063721	707.516357
2900.424072	707.406860
2899.784424	687.758789
2899.144531	715.002136
2898.504639	777.395691
2897.864502	664.004089
2897.224365	640.469482
2896.583984	609.132751
2895.943848	624.654846
2895.303223	628.461609
2894.662842	573.723938
2894.021973	659.485291
2893.381348	577.447998
2892.740479	647.577881
2892.099609	663.079468
2891.458496	647.377319
2890.817383	670.672607
2890.176025	693.960693
2889.534668	705.547363
2888.893311	783.387024
2888.251709	717.019348
2887.610107	716.908264
2886.968262	763.544861
2886.326416	817.957031
2885.684570	837.302429
2885.042480	891.686279
2884.400391	899.334595
2883.758057	918.658325
2883.115723	930.192017
2882.473389	968.962036
2881.830811	1058.300537
2881.188232	1054.246216
2880.545410	945.173950
2879.902588	1088.920532
2879.259766	1038.202515
2878.616699	948.622314
2877.973633	925.152039
2877.330322	893.915894
2876.687012	959.839111
2876.043457	897.524109
2875.399902	866.306702
2874.756348	741.878601
2874.112549	765.065002
2873.468750	764.946350
2872.824707	788.121948
2872.180664	756.945557
2871.536621	729.659973
2870.892334	776.113586
2870.248047	686.754028
2869.603760	752.596680
2868.958984	659.389587
2868.314453	756.241333
2867.669678	721.225952
2867.024902	736.621887
2866.379883	740.383972
2865.734863	755.772095
2865.089844	790.531189
2864.444580	743.913879
2863.799316	770.916077
2863.153809	794.036499
2862.508301	724.203796
2861.862549	693.114197
2861.216797	685.263550
2860.571045	623.222046
2859.925049	545.718445
2859.279053	495.327057
2858.632813	452.689575
2857.986572	433.276611
2857.340332	367.454346
2856.693848	386.733978
2856.047363	320.939362
2855.400635	344.086334
2854.753906	316.974121
2854.107178	286.005402
2853.460205	247.317596
2852.813232	301.371490
2852.166016	243.377640
2851.518799	258.789978
2850.871338	227.854279
2850.223877	227.818878
2849.576416	231.644211
2848.928711	285.650146
2848.281006	312.622498
2847.633301	277.843506
2846.985352	297.092010
2846.337158	300.903564
2845.688965	347.142456
2845.040771	381.797363
2844.392578	366.314270
2843.743896	370.112671
2843.095459	404.747803
2842.446777	489.475983
2841.798096	427.743195
2841.149170	477.764954
2840.500244	443.019592
2839.851074	570.058289
2839.202148	585.374207
2838.552734	650.742493
2837.903320	635.241516
2837.253906	588.950500
2836.604492	600.405151
2835.954834	596.463623
2835.304932	600.218384
2834.655029	577.043274
2834.005127	538.489990
2833.354980	492.257080
2832.704834	438.348267
2832.054688	419.057251
2831.404297	403.616180
2830.753906	303.625885
2830.103271	311.264160
2829.452637	265.109680
2828.801758	234.335861
2828.150879	257.345245
2827.500000	253.464798
2826.848877	241.906021
2826.197754	218.833282
2825.546387	195.767715
2824.895020	230.279114
2824.243408	180.357224
2823.591797	184.165924
2822.940186	184.137253
2822.288330	141.917038
2821.636475	164.904922
2820.984619	172.548050
2820.332520	199.357803
2819.680176	137.995438
2819.028076	153.304382
2818.375488	183.936615
2817.723145	149.425217
2817.070557	164.725220
2816.417725	187.680893
2815.764893	160.844269
2815.112061	153.161148
2814.458984	133.995132
2813.805908	130.146423
2813.152832	133.953369
2812.499512	141.585785
2811.845947	122.433487
2811.192383	103.287155
2810.538818	145.344452
2809.885010	191.212891
2809.231201	141.475494
2808.577393	110.868912
2807.923340	137.608917
2807.269287	133.765594
2806.614990	156.672409
2805.960693	126.082520
2805.306152	133.703033
2804.651611	129.862686
2803.997070	87.834595
2803.342285	118.367294
2802.687500	114.531128
2802.032471	122.147484
2801.377441	160.293564
2800.722412	83.950203
2800.067139	110.644371
2799.411621	118.256561
2798.756348	114.423981
2798.100586	133.473816
2797.445068	156.330658
2796.789307	87.683998
2796.133301	137.223114
2795.477539	106.712433
2794.821289	99.074654
2794.165283	137.158875
2793.509033	110.471855
2792.852539	129.498505
2792.196045	125.670113
2791.539551	133.265671
2790.882813	152.279861
2790.226074	140.836884
2789.569092	117.980042
2788.912109	129.377258
2788.255127	140.770920
2787.597900	106.512718
2786.940430	91.282356
2786.283203	148.310669
2785.625488	117.869560
2784.968018	125.454445
2784.310303	117.832741
2783.652588	98.812027
2782.994629	159.594498
2782.336426	110.178986
2781.678467	151.947281
2781.020264	102.548386
2780.361816	117.722343
2779.703369	140.485367
2779.044922	106.296638
2778.386230	113.871460
2777.727539	98.673180
2777.068604	125.219460
2776.409668	132.787766
2775.750732	132.767014
2775.091553	102.404259
2774.432373	125.141197
2773.772949	140.287888
2773.113525	102.356247
2772.453857	147.824799
2771.794189	151.591476
2771.134521	117.465027
2770.474609	151.544083
2769.814697	147.732376
2769.154541	132.559601
2768.494385	106.031097
2767.833984	162.807999
2767.173584	124.926140
2766.513184	117.336502
2765.852539	132.455978
2765.191895	124.867531
2764.531006	147.547638
2763.870117	155.089905
2763.209229	139.937286
2762.548096	151.259888
2761.886719	117.208076
2761.225586	136.091309
2760.563965	113.391678
2759.902588	151.165237
2759.240967	113.356194
2758.579102	170.007675
2757.917236	94.433929
2757.255371	158.624161
2756.593262	98.180542
2755.931152	101.940758
2755.269043	143.449722
2754.606689	143.427261
2753.944092	120.761940
2753.281494	132.062698
2752.618896	154.677795
2751.956055	105.617073
2751.293213	132.000671
2750.630371	150.834290
2749.967285	128.189056
2749.303955	143.247696
2748.640625	154.532516
2747.977295	154.508301
2747.313721	131.876678
2746.650146	173.296478
2745.986572	158.202438
2745.322754	150.645370
2744.658691	165.683960
2743.994873	176.952850
2743.330566	184.453857
2742.666504	154.314758
2742.002197	154.290573
2741.337646	176.841965
2740.673096	158.004227
2740.008545	161.740875
2739.343750	146.672226
2738.678955	210.573257
2738.013916	176.703415
2737.348877	150.362320
2736.683594	195.440369
2736.018311	165.346695
2735.353027	150.291611
2734.687500	195.348450
2734.021973	187.805588
2733.356201	195.287186
2732.690430	225.296036
2732.024658	176.454224
2731.358643	198.949081
2730.692383	187.658371
2730.026367	221.402145
2729.359863	180.095520
2728.693604	217.581284
2728.027100	225.048782
2727.360352	221.263245
2726.693604	187.481812
2726.026855	187.452393
2725.359863	217.410660
2724.692871	247.359512
2724.025635	198.606003
2723.358398	228.548401
2722.691162	239.750854
2722.023682	239.713226
2721.355957	202.226288
2720.688477	235.893631
2720.020508	250.831619
2719.352783	269.508087
2718.684814	265.723175
2718.016602	265.681458
2717.348389	209.518677
2716.680176	250.634766
2716.011719	205.712646
2715.343262	243.076782
2714.674561	231.821442
2714.005859	205.615753
2713.337158	198.107697
2712.668213	198.076569
2711.999023	205.518875
2711.329834	205.486588
2710.660645	224.131973
2709.991455	168.072571
2709.321777	209.124115
2708.652344	197.889938
2707.982666	220.257965
2707.312988	227.688553
2706.643066	216.456726
2705.972900	220.154144
2705.302979	175.349457
2704.632813	197.703415
2703.962402	216.320679
2703.291992	197.641281
2702.621582	264.723114
2701.950928	171.483780
2701.280273	208.730042
2700.609375	190.063553
2699.938477	182.581360
2699.267334	175.101532
2698.596191	163.899048
2697.925049	160.148895
2697.253662	178.742737
2696.582031	174.991409
2695.910645	156.350708
2695.239014	148.882004
2694.567139	133.972733
2693.895264	189.764847
2693.223145	171.133530
2692.551270	133.909515
2691.878906	178.517929
2691.206543	152.460068
2690.534180	174.743805
2689.861816	159.846832
2689.189209	182.122375
2688.516357	144.931732
2687.843506	111.468399
2687.170654	159.746231
2686.497559	189.436630
2685.824463	141.126648
2685.151123	200.516830
2684.477783	211.623337
2683.804199	174.468964
2683.130615	185.576050
2682.457031	178.124954
2681.783203	204.069382
2681.109375	159.520035
2680.435303	181.750015
2679.761230	170.595596
2679.086914	185.400787
2678.412598	181.664154
2677.738281	211.290329
2677.063721	133.425491
2676.389160	196.401047
2675.714355	174.139526
2675.039551	188.930145
2674.364502	151.861084
2673.689453	174.057236
2673.014404	170.327042
2672.339111	177.704559
2671.663574	210.990906
2670.988037	177.648560
2670.312500	170.219696
2669.636719	188.692093
2668.960938	147.970474
2668.285156	170.139221
2667.609131	147.923828
2666.932861	199.665695
2666.256592	173.755707
2665.580322	173.728302
2664.903809	203.267029
2664.227295	158.892807
2663.550781	203.202927
2662.874023	181.006790
2662.197021	162.511078
2661.520020	180.949707
2660.843018	173.536621
2660.165771	180.892624
2659.488525	166.099670
2658.811035	180.835556
2658.133545	169.737213
2657.455811	173.399796
2656.778076	177.061218
2656.100342	191.786057
2655.422363	154.879669
2654.744385	191.725525
2654.066162	173.263031
2653.387939	154.806366
2652.709473	187.949493
2652.031006	180.550415
2651.352539	165.785446
2650.673828	209.961746
2649.994873	206.245636
2649.316162	191.483582
2648.636963	213.544113
2647.958008	195.104324
2647.278809	220.837952
2646.599365	176.642471
2645.919922	183.973511
2645.240479	165.550018
2644.560791	180.237106
2643.880859	220.663635
2643.201172	158.117294
2642.520996	191.181412
2641.841064	191.151215
2641.160889	183.770218
2640.480469	180.066360
2639.800049	165.340942
2639.119629	161.641159
2638.438965	198.346436
2637.758301	183.625092
2637.077393	150.548782
2636.396484	172.553040
2635.715332	179.867279
2635.034180	183.509033
2634.353027	168.801636
2633.671631	176.112991
2632.989990	168.748276
2632.308350	187.060898
2631.626709	165.027649
2630.944824	172.334961
2630.262939	124.648132
2629.581055	124.628418
2628.898926	179.583145
2628.216553	172.225983
2627.534180	172.198746
2626.851807	208.803757
2626.169189	153.831070
2625.486572	168.455002
2624.803711	172.089828
2624.120850	197.688965
2623.437988	204.978348
2622.754883	161.028931
2622.071533	190.276810
2621.388184	146.343628
2620.704834	149.978485
2620.021240	146.297318
2619.337646	201.126984
2618.653809	146.251022
2617.969971	131.605087
2617.286133	182.755905
2616.602051	204.654221
2615.917725	164.428253
2615.233398	164.402222
2614.549072	171.681808
2613.864502	149.741272
2613.179932	149.717575
2612.495117	197.157776
2611.810303	164.272125
2611.125488	167.896027
2610.440430	211.661469
2609.755127	211.627960
2609.069824	189.705353
2608.384521	182.380112
2607.698975	171.410141
2607.013428	196.908127
2606.327637	167.709976
2605.641846	189.555161
2604.956055	193.169846
2604.270020	156.697876
2603.583740	163.960175
2602.897461	178.506119
2602.211182	236.756302
2601.524658	182.091370
2600.838135	178.421265
2600.151367	160.189621
2599.464600	171.084518
2598.777832	156.499329
2598.090820	211.058655
2597.403564	181.918274
2596.716309	185.527222
2596.029053	207.321091
2595.341553	160.011963
2594.654053	196.347183
2593.966309	178.138626
2593.278564	178.110382
2592.590820	203.522446
2591.902832	167.152634
2591.214600	148.960251
2590.526367	203.425629
2589.838135	156.177048
2589.149658	134.363586
2588.461182	152.496628
2587.772461	177.884506
2587.083740	199.634613
2586.394775	185.086365
2585.705811	203.199844
2585.016846	199.539597
2584.327637	228.527283
2583.638184	181.342072
2582.948975	217.575958
2582.259277	170.407440
2581.569824	177.630630
2580.879883	192.100586
2580.190186	199.318024
2579.500244	159.429108
2578.810059	166.649429
2578.119873	188.356400
2577.429688	166.596512
2576.739258	162.948975
2576.048584	170.164124
2575.358154	199.096619
2574.667236	195.445633
2573.976563	155.607910
2573.285645	180.910706
2572.594482	195.352524
2571.903320	170.002045
2571.212158	213.372925
2570.520752	177.179871
2569.829102	198.843765
2569.137451	202.426941
2568.445801	173.481247
2567.753906	155.385590
2567.062012	205.943512
2566.370117	173.398560
2565.677979	187.818588
2564.985596	191.400055
2564.293213	166.094406
2563.600830	173.288345
2562.908203	166.041595
2562.215332	176.842285
2561.522705	194.856430
2560.829590	144.315155
2560.136719	191.187180
2559.443604	194.763519
2558.750244	176.701752
2558.056885	227.151840
2557.363525	212.695679
2556.669922	216.266281
2555.976074	176.589371
2555.282227	194.577744
2554.588379	187.341370
2553.894287	187.311569
2553.200195	190.883347
2552.505859	180.049973
2551.811523	208.824738
2551.117188	172.792984
2550.422607	194.361176
2549.727783	208.725082
2549.032959	169.112381
2548.338135	215.853775
2547.643066	215.819427
2546.947998	179.820908
2546.252686	143.833817
2545.557373	186.954208
2544.861816	179.735046
2544.166260	212.053589
2543.470703	240.768280
2542.774902	211.986084
2542.078857	229.914383
2541.382813	176.000183
2540.686768	172.380890
2539.990479	143.627853
2539.294189	161.555603
2538.597656	172.298538
2537.901123	197.393967
2537.204346	186.597290
2536.507568	208.094604
2535.810791	204.474182
2535.113770	211.615005
2534.416504	222.339661
2533.719238	193.619827
2533.021973	207.928894
2532.324463	200.726944
2531.626953	175.608093
2530.929199	225.745850
2530.231445	225.709869
2529.533447	200.599014
2528.835449	207.730164
2528.137451	186.211151
2527.439209	221.985596
2526.740723	204.050995
2526.042236	211.177002
2525.343750	161.041534
2524.645020	196.797150
2523.946289	189.610657
2523.247314	214.619354
2522.548340	203.855865
2521.849121	189.519958
2521.149902	200.215576
2520.450684	214.482468
2519.751221	182.281021
2519.051514	232.281891
2518.351807	164.357895
2517.652100	167.904099
2516.952148	185.736603
2516.252197	189.278259
2515.552002	207.101639
2514.851807	214.208893
2514.151367	189.187668
2513.450928	221.278549
2512.750244	256.927643
2512.049561	189.097107
2511.348877	206.903427
2510.647949	185.470016
2509.946777	199.705048
2509.245605	228.197922
2508.544434	206.771347
2507.843018	178.222702
2507.141602	192.449783
2506.439941	224.488907
2505.738281	210.202072
2505.036377	206.606323
2504.334473	199.450119
2503.632568	188.735138
2502.930420	188.705002
2502.228027	227.833786
2501.525635	220.678726
2500.823242	220.643478
2500.120605	217.050034
2499.417969	231.245880
2498.715088	202.752441
2498.012207	231.171982
2497.309082	206.243576
2496.605957	199.099915
2495.902588	202.622879
2495.199219	213.253159
2494.495605	188.343521
2493.791992	188.313416
2493.088379	198.940872
2492.384521	202.461014
2491.680664	177.568985
2490.976563	198.845474
2490.272461	198.813690
2489.568115	209.430923
2488.863770	209.397446
2488.159180	180.975632
2487.454590	188.042633
2486.749756	202.202194
2486.044922	212.810379
2485.339844	184.406158
2484.634766	216.288010
2483.929688	233.979111
2483.224365	248.119965
2482.519043	233.904251
2481.813477	223.236526
2481.107666	194.857849
2480.402100	212.538193
2479.696045	223.129395
2478.990234	226.634857
2478.284180	223.057983
2477.577881	240.722473
2476.871582	201.749771
2476.165039	205.256393
2475.458496	254.760254
2474.751953	258.257233
2474.045166	279.439117
2473.338379	222.808182
2472.631348	212.164291
2471.924072	222.736847
2471.217041	250.980698
2470.509521	261.543640
2469.802246	212.028442
2469.094482	201.394760
2468.386963	222.558563
2467.679199	229.587143
2466.971191	197.766464
2466.263184	211.858704
2465.554932	271.841797
2464.846680	190.611755
2464.138428	225.874039
2463.429932	194.079391
2462.721436	218.745361
2462.012695	253.986160
2461.303955	246.891434
2460.594971	229.219589
2459.885986	257.389984
2459.176758	232.671448
2458.467529	236.158920
2457.758057	236.121063
2457.048584	250.177734
2456.338867	250.137634
2455.629150	257.142517
2454.919434	214.838074
2454.209473	274.666931
2453.499512	197.165161
2452.789307	239.376450
2452.078857	249.897095
2451.368408	260.414337
2450.657959	246.298401
2449.947266	221.632996
2449.236572	207.527771
2448.525879	277.831604
2447.814697	221.526367
2447.103760	200.396469
2446.392578	232.000793
2445.681152	193.302963
2444.969727	228.412308
2444.258301	238.916077
2443.546631	228.339020
2442.834717	221.277679
2442.122803	259.871765
2441.410889	224.717880
2440.698730	270.320313
2439.986572	252.726471
2439.274170	249.176376
2438.561768	263.172211
2437.849121	228.045975
2437.136475	231.517197
2436.423584	266.552765
2435.710693	196.375763
2434.997803	199.850372
2434.284424	245.390869
2433.571289	227.826355
2432.857910	252.320984
2432.144287	238.264877
2431.430908	255.743256
2430.717041	206.663406
2430.003174	248.656693
2429.289307	227.606873
2428.575195	178.555176
2427.861084	248.536865
2427.146729	230.997147
2426.432373	262.454590
2425.717773	237.920578
2425.003174	220.390991
2424.288330	255.332657
2423.573486	244.800186
2422.858643	241.264252
2422.143555	255.209549
2421.428223	258.664001
2420.712891	213.188736
2419.997559	206.165802
2419.281982	248.057938
2418.566162	248.018051
2417.850586	227.022263
2417.134521	254.922470
2416.418457	185.050934
2415.702393	258.331451
2414.986084	261.780304
2414.269775	240.799149
2413.553223	237.271133
2412.836670	247.699127
2412.120117	233.706650
2411.403076	233.669052
2410.686279	237.118484
2409.969238	254.512711
2409.251953	296.302734
2408.534668	233.518692
2407.817383	275.298645
2407.099854	236.927780
2406.382080	264.759003
2405.664307	271.682617
2404.946533	264.673798
2404.228516	236.775269
2403.510498	222.811447
2402.792236	226.256439
2402.073975	271.464020
2401.355469	247.062073
2400.636963	250.501480
2399.918213	250.461151
2399.199463	253.898880
2398.480469	257.335510
2397.761475	260.770996
2397.042480	219.012360
2396.323242	257.211182
2395.603760	225.892349
2394.884277	253.653625
2394.164795	288.354218
2393.445068	253.571899
2392.725098	291.734344
2392.005127	256.962677
2391.285156	236.089798
2390.564941	246.465805
2389.844727	249.896881
2389.124268	298.439850
2388.403809	277.573700
2387.683105	235.899628
2386.962402	218.518829
2386.241455	253.163544
2385.520508	263.525055
2384.799316	266.949432
2384.078125	263.440063
2383.356689	218.342743
2382.635254	232.168335
2381.913818	235.595535
2381.192139	273.662445
2380.470215	256.300690
2379.748291	283.963074
2379.026367	221.593964
2378.304199	290.795166
2377.581787	266.519257
2376.859375	280.319183
2376.136963	297.574799
2375.414307	252.551819
2374.691650	259.429169
2373.968750	255.928818
2373.245850	290.466919
2372.522705	276.590515
2371.799316	245.434479
2371.076172	262.676178
2370.352783	248.810959
2369.629150	259.136261
2368.905518	262.549011
2368.181641	300.501007
2367.457764	241.743393
2366.733643	296.951080
2366.009521	279.641327
2365.285400	289.951569
2364.561035	276.099762
2363.836426	296.759338
2363.111816	262.210083
2362.387207	296.663483
2361.662354	248.329315
2360.937256	275.876892
2360.212158	258.592804
2359.487061	248.209000
2358.761719	275.743225
2358.036377	306.714783
2357.310791	254.980072
2356.584961	272.164459
2355.859375	258.342224
2355.133301	309.960571
2354.407471	275.475983
2353.681152	296.088837
2352.955078	261.617615
2352.228516	271.900665
2351.502197	292.504059
2350.775635	268.372101
2350.048828	278.649048
2349.322021	292.362213
2348.594971	288.875946
2347.867920	257.883270
2347.140869	275.031006
2346.413330	299.047852
2345.686035	268.068512
2344.958496	281.770020
2344.230713	257.674805
2343.502930	267.938446
2342.775146	236.984131
2342.047119	274.719757
2341.319092	254.074677
2340.590820	260.899353
2339.862305	288.315796
2339.133789	298.564453
2338.405273	329.397125
2337.676514	250.438538
2336.947754	291.559326
2336.218750	250.357483
2335.489746	277.748962
2334.760498	311.988434
2334.031250	284.514832
2333.301758	274.186768
2332.572266	277.569153
2331.842529	328.917603
2331.112793	260.350952
2330.382813	291.134827
2329.652832	291.087677
2328.922607	253.376480
2328.192383	297.840332
2327.462158	284.100494
2326.731689	280.632141
2326.000977	321.648163
2325.270264	318.174835
2324.539307	290.757843
2323.808350	307.811371
2323.077393	270.146210
2322.346191	263.264404
2321.614746	273.477142
2320.883301	307.611938
2320.151855	297.310028
2319.420166	290.428223
2318.688232	283.548676
2317.956299	310.828278
2317.224365	262.965912
2316.492188	300.483765
2315.760010	327.747314
2315.027588	290.145905
2314.295166	252.556656
2313.562500	276.402313
2312.829590	290.004791
2312.096924	286.546509
2311.363770	286.500031
2310.630615	289.863739
2309.897461	289.816742
2309.164063	317.042175
2308.430664	299.948242
2307.697021	259.004181
2306.963379	286.221344
2306.229492	252.106476
2305.495605	316.785126
2304.761719	265.647644
2304.027344	337.113434
2303.293213	289.393860
2302.558838	299.559174
2301.824219	285.896423
2301.089600	296.058960
2300.354736	299.413330
2299.619873	241.532913
2298.885010	312.921417
2298.149658	278.862946
2297.414551	295.818756
2296.679199	275.372772
2295.943604	282.126282
2295.208008	302.471832
2294.472412	309.218719
2293.736572	315.963440
2293.000488	319.309021
2292.264404	349.824341
2291.528320	302.226318
2290.791992	305.572479
2290.055420	295.338745
2289.318848	346.202972
2288.582275	312.210785
2287.845459	298.587891
2287.108398	369.781708
2286.371582	288.315033
2285.634277	305.225128
2284.896973	278.048828
2284.159668	325.467682
2283.422119	274.568726
2282.684570	294.859222
2281.946777	311.754486
2281.208740	304.927643
2280.470703	281.165314
2279.732666	291.280579
2278.994385	335.256836
2278.256104	348.745850
2277.517578	308.065186
2276.779053	328.323761
2276.040283	287.659607
2275.301514	331.600677
2274.562500	297.715454
2273.823486	311.197357
2273.084229	338.202972
2272.344971	256.992462
2271.605469	287.378998
2270.865967	304.234161
2270.126221	344.742615
2269.386475	337.927979
2268.646484	314.221893
2267.906494	310.792572
2267.166260	347.895935
2266.426025	310.691437
2265.685547	297.134735
2264.945068	300.462372
2264.204346	297.038025
2263.463623	293.614807
2262.722656	320.561676
2261.981689	334.004608
2261.240723	333.950256
2260.499268	333.895874
2259.758057	323.725098
2259.016602	300.071259
2258.274902	353.959015
2257.533203	387.606262
2256.791260	353.843750
2256.049316	299.875854
2255.307129	289.720490
2254.564941	319.987946
2253.822754	316.568054
2253.080322	299.680511
2252.337646	309.731628
2251.594971	299.582855
2250.852051	296.168518
2250.109131	329.770264
2249.366211	343.174347
2248.623047	302.751556
2247.879639	336.335785
2247.136230	312.741302
2246.392578	302.603546
2245.648926	352.979919
2244.905273	319.310730
2244.161377	362.946716
2243.417236	349.447266
2242.673096	349.390289
2241.928955	285.512817
2241.184570	355.993195
2240.439941	318.998505
2239.695313	332.375793
2238.950439	315.537659
2238.205566	369.185974
2237.460693	338.924561
2236.715576	301.962738
2235.970215	358.941559
2235.224854	332.050629
2234.479492	335.349976
2233.733887	331.942291
2232.988037	345.297760
2232.242188	358.648834
2231.496338	335.131134
2230.750244	311.621094
2230.003906	335.021759
2229.257568	338.316742
2228.511230	301.421173
2227.764648	314.766266
2227.017822	351.543243
2226.270996	374.918243
2225.523926	331.346832
2224.776855	388.181396
2224.029785	311.163574
2223.282471	331.184540
2222.534912	334.475220
2221.787354	361.174255
2221.039795	334.365997
2220.291992	324.282043
2219.543945	320.886505
2218.795898	357.596313
2218.047852	340.830536
2217.299561	334.092987
2216.551025	303.974945
2215.802490	344.003326
2215.053955	327.250671
2214.305176	327.197205
2213.556152	347.172943
2212.807129	380.492737
2212.058105	347.059448
2211.308838	350.339294
2210.559326	316.921844
2209.809814	340.218353
2209.060303	343.497681
2208.310547	340.107117
2207.560547	350.053040
2206.810547	343.329224
2206.060303	333.274841
2205.310059	369.874573
2204.559814	389.804047
2203.809326	386.409180
2203.058594	339.718018
2202.307861	376.292725
2201.557129	359.583771
2200.806152	372.840698
2200.054932	366.122925
2199.303711	359.407318
2198.552246	316.093597
2197.800781	355.962982
2197.049316	355.904724
2196.297607	332.566803
2195.545654	385.714355
2194.793701	329.133392
2194.041504	345.699707
2193.289307	329.025665
2192.537109	299.065277
2191.784668	325.595551
2191.031982	352.117126
2190.279297	355.380798
2189.526367	348.681061
2188.773438	355.264404
2188.020508	375.124359
2187.267090	375.062927
2186.513916	348.452728
2185.760498	364.985931
2185.006836	354.973602
2184.253174	404.669983
2183.499268	378.072296
2182.745361	334.903931
2181.991211	318.272369
2181.237061	351.368164
2180.482666	318.168091
2179.728271	364.507874
2178.973877	364.448151
2178.218994	314.699097
2177.464355	341.144135
2176.709229	423.876648
2175.954346	377.453247
2175.198975	370.770477
2174.443848	350.850250
2173.688232	410.361328
2172.932861	340.808777
2172.177002	350.677734
2171.421387	370.466675
2170.665283	410.092285
2169.909424	383.571808
2169.153076	320.692780
2168.396729	340.473602
2167.640381	370.162994
2166.883789	327.143982
2166.127197	396.473114
2165.370361	353.463867
2164.613525	386.434479
2163.856445	376.464142
2163.099365	307.065094
2162.342041	330.123352
2161.584473	349.873322
2160.826904	359.716370
2160.069336	359.657318
2159.311523	409.084320
2158.553711	392.524536
2157.795654	372.672211
2157.037354	379.205902
2156.279053	362.659149
2155.520752	375.785065
2154.762207	388.906647
2154.003662	342.708893
2153.244873	395.368408
2152.485840	392.009308
2151.726807	352.421082
2150.967773	401.759918
2150.208252	362.183044
2149.448975	312.743073
2148.689453	388.395996
2147.929688	421.241730
2147.169922	401.430054
2146.410156	407.943848
2145.650146	378.272858
2144.889893	342.034027
2144.129639	388.013306
2143.369141	407.675812
2142.608643	381.311462
2141.847900	391.108673
2141.087158	394.330505
2140.326416	381.123474
2139.565186	420.480927
2138.804199	410.558411
2138.042725	397.355194
2137.281494	377.589569
2136.519775	433.335876
2135.758301	436.546936
2134.996338	403.657471
2134.234619	397.028656
2133.472412	393.682678
2132.710449	426.419403
2131.947998	403.391998
2131.185547	370.534943
2130.423096	436.044617
2129.660400	432.694916
2128.897705	445.733521
2128.134766	412.891052
2127.371826	386.612152
2126.608643	409.479370
2125.845215	429.063782
2125.081787	458.465973
2124.318359	402.728821
2123.554688	428.851959
2122.790771	438.600800
2122.026855	376.349182
2121.262939	435.184357
2120.498779	405.669006
2119.734375	412.144196
2118.969971	444.780792
2118.205322	428.358032
2117.440674	460.981201
2116.676025	444.561127
2115.911133	431.414734
2115.145996	473.824524
2114.380859	470.479248
2113.615479	418.134918
2112.850098	473.590424
2112.084473	421.262756
2111.318848	453.844025
2110.552979	443.975677
2109.787109	479.806396
2109.020996	476.463898
2108.254883	456.807892
2107.488525	446.945496
2106.722168	463.181030
2105.955566	485.933807
2105.188965	433.681488
2104.422119	410.788422
2103.655029	453.096680
2102.887939	462.799438
2102.120850	426.878387
2101.353516	452.872620
2100.585938	433.252716
2099.818359	455.980286
2099.050781	455.905090
2098.282959	485.133270
2097.514893	459.010132
2096.746826	419.876190
2095.978760	432.824188
2095.210449	514.097290
2094.441895	403.402222
2093.673340	513.927734
2092.904541	471.564697
2092.135742	458.480377
2091.366699	481.162415
2090.597656	445.326843
2089.828369	455.003418
2089.059082	487.423218
2088.289551	545.823914
2087.520020	493.759186
2086.750244	451.455231
2085.980469	487.101501
2085.210449	503.255127
2084.440186	483.694427
2083.670166	460.894409
2082.899658	509.496307
2082.129150	470.476227
2081.358643	483.375031
2080.587891	480.051636
2079.816895	489.701508
2079.045898	502.590729
2078.274902	483.055786
2077.503662	470.010193
2076.732178	479.655304
2075.960693	469.854919
2075.188965	498.935913
2074.417236	489.135559
2073.645264	521.442444
2072.873291	518.118042
2072.101074	472.704590
2071.328857	504.998169
2070.556396	479.021637
2069.783936	485.414673
2069.011230	485.334442
2068.238525	517.604492
2067.465576	507.815430
2066.692627	485.093781
2065.919434	539.981812
2065.145996	536.659607
2064.372559	572.126770
2063.599121	536.482178
2062.825439	559.012451
2062.051514	575.073730
2061.277588	523.295166
2060.503662	519.978943
2059.729248	558.642700
2058.955078	523.035522
2058.180664	603.651001
2057.406006	564.820618
2056.631348	522.776001
2055.856445	529.142456
2055.081543	583.895935
2054.306396	545.094360
2053.531250	583.702698
2052.755859	522.343567
2051.980225	599.628540
2051.204590	535.063782
2050.428955	583.316345
2049.653076	541.331055
2048.877197	579.901550
2048.101074	573.363281
2047.324707	566.827148
2046.548340	582.833618
2045.771851	569.858948
2044.995239	553.669556
2044.218506	579.325684
2043.441528	604.973267
2042.664551	566.264160
2041.887329	617.640381
2041.110107	549.994812
2040.332642	569.198608
2039.555176	575.534851
2038.777466	630.090149
2037.999634	591.415222
2037.221802	604.171936
2036.443726	629.776978
2035.665527	642.523071
2034.887207	623.144104
2034.108765	642.310120
2033.330200	613.304504
2032.551514	642.097229
2031.772705	641.990784
2030.993774	635.465515
2030.214600	571.182373
2029.435425	596.754517
2028.656128	651.188599
2027.876587	644.666016
2027.097046	644.559082
2026.317261	589.946289
2025.537476	708.459290
2024.757446	554.493774
2023.977295	685.791870
2023.197021	663.249390
2022.416626	605.475037
2021.636230	672.638428
2020.855591	675.729370
2020.074707	698.031067
2019.293823	697.915222
2018.512817	665.790283
2017.731689	633.675964
2016.950439	668.769165
2016.168945	691.053406
2015.387451	687.739929
2014.605713	710.013550
2013.823975	703.500244
2013.041992	642.636719
2012.260010	684.086670
2011.477783	744.699646
2010.695435	728.597961
2009.912964	686.941040
2009.130371	734.745117
2008.347656	728.235046
2007.564819	772.822876
2006.781860	708.835449
2005.998779	766.181274
2005.215576	724.559448
2004.432129	714.864990
2003.648682	689.219543
2002.864990	832.668579
2002.081299	749.596191
2001.297363	794.120972
2000.513428	758.913208
1999.729248	787.480713
1998.944946	790.537476
1998.160522	882.832642
1997.375977	809.394287
1996.591309	774.213013
1995.806519	815.496277
1995.021606	844.025696
1994.236572	799.302734
1993.451416	831.009277
1992.666016	773.569641
1991.880615	843.464478
1991.094971	852.871277
1990.309326	782.729248
1989.523438	830.318481
1988.737549	855.626526
1987.951416	839.583008
1987.165161	836.263611
1986.378784	886.991394
1985.592285	877.307861
1984.805664	864.449402
1984.018921	867.483154
1983.232056	873.692932
1982.444946	886.253723
1981.657837	889.282227
1980.870605	908.187073
1980.083130	838.187012
1979.295654	876.140564
1978.507935	920.429199
1977.720093	891.715698
1976.932129	843.974670
1976.144165	977.071106
1975.355957	929.331726
1974.567627	862.580688
1973.779053	833.900513
1972.990479	944.718506
1972.201782	887.507141
1971.412964	931.727234
1970.623901	985.438477
1969.834839	909.240295
1969.045532	950.267029
1968.256226	924.772522
1967.466675	968.949463
1966.677002	952.958130
1965.887207	968.626587
1965.097290	1031.763550
1964.307251	908.180298
1963.517090	1009.272583
1962.726807	1024.921021
1961.936401	961.494080
1961.145874	964.496033
1960.355103	951.688232
1959.564331	1008.431702
1958.773315	998.781433
1957.982178	1020.736145
1957.191040	1112.195679
1956.399658	1017.236633
1955.608154	1077.080322
1954.816528	1080.058716
1954.024780	1060.933350
1953.232910	1057.599365
1952.440918	1139.491577
1951.648682	1028.842896
1950.856445	1098.090820
1950.063965	1097.907593
1949.271484	1085.106934
1948.478760	1088.079712
1947.685913	1100.511353
1946.893066	1144.467041
1946.099976	1156.885132
1945.306763	1125.174561
1944.513428	1096.625732
1943.719971	1156.305908
1942.926270	1146.662354
1942.132568	1165.368774
1941.338745	1143.130371
1940.544678	1139.790894
1939.750610	1098.675781
1938.956299	1133.115234
1938.161865	1139.220093
1937.367310	1132.736816
1936.572632	1157.715332
1935.777832	1185.830933
1934.982910	1195.067627
1934.187866	1188.579224
1933.392700	1188.380615
1932.597290	1169.322021
1931.801880	1128.270142
1931.006226	1168.931396
1930.210571	1137.318359
1929.414673	1177.964478
1928.618652	1221.737549
1927.822510	1149.309082
1927.026245	1215.049927
1926.229858	1202.290283
1925.433350	1271.138794
1924.636719	1270.926270
1923.839844	1264.438721
1923.042969	1314.419922
1922.245850	1279.698486
1921.448730	1201.084717
1920.651367	1244.780396
1919.853882	1228.897461
1919.056274	1253.767334
1918.258545	1215.950928
1917.460693	1225.147583
1916.662720	1228.075562
1915.864624	1240.399414
1915.066284	1277.773438
1914.267944	1221.196655
1913.469360	1255.430664
1912.670776	1286.522827
1911.871948	1330.123413
1911.072998	1289.221436
1910.273926	1273.362427
1909.474731	1301.302490
1908.675415	1322.977905
1907.875977	1263.341919
1907.076294	1388.192749
1906.276611	1209.776245
1905.476807	1262.707520
1904.676758	1328.120850
1903.876587	1274.782471
1903.076294	1315.180298
1902.275879	1346.194336
1901.475342	1317.862793
1900.674683	1317.642090
1899.873901	1367.370972
1899.072998	1289.108765
1898.271851	1373.154541
1897.470703	1310.518799
1896.669312	1266.622559
1895.867920	1378.702881
1895.066284	1431.490112
1894.264526	1390.713745
1893.462646	1312.538940
1892.660645	1343.490356
1891.858521	1368.198242
1891.056152	1420.942627
1890.253784	1321.005859
1889.451172	1383.085571
1888.648560	1370.395630
1887.845703	1335.911743
1887.042725	1413.525024
1886.239624	1366.593506
1885.436401	1360.139404
1884.633057	1453.269043
1883.829590	1378.351685
1883.025879	1256.796143
1882.222168	1421.434448
1881.418213	1377.658203
1880.614258	1337.005981
1879.810059	1349.216919
1879.005737	1280.608521
1878.201294	1382.949463
1877.396729	1410.682495
1876.592041	1323.457886
1875.787231	1450.589478
1874.982178	1382.021484
1874.177124	1387.999756
1873.371826	1344.302124
1872.566406	1412.366699
1871.760986	1356.265137
1870.955322	1383.964966
1870.149536	1402.347900
1869.343506	1364.888184
1868.537476	1426.688965
1867.731323	1398.540649
1866.924927	1389.004395
1866.118530	1438.370117
1865.311890	1413.333252
1864.505127	1400.700317
1863.698242	1412.858521
1862.891235	1400.229736
1862.084106	1458.843872
1861.276855	1480.276489
1860.469482	1418.101929
1859.661865	1430.246704
1858.854126	1439.292114
1858.046387	1395.723999
1857.238403	1376.924194
1856.430298	1361.224365
1855.622070	1401.206787
1854.813721	1428.805054
1854.005249	1437.841309
1853.196533	1443.782837
1852.387817	1570.274902
1851.578857	1548.376831
1850.769775	1452.324951
1849.960693	1473.707397
1849.151367	1445.658447
1848.341919	1420.707397
1847.532227	1429.732422
1846.722534	1404.792236
1845.912720	1515.685669
1845.102661	1398.146851
1844.292603	1468.887329
1843.482300	1345.225098
1842.671875	1443.714233
1841.861328	1508.242432
1841.050659	1467.899048
1840.239868	1439.902222
1839.428833	1424.245972
1838.617798	1448.664429
1837.806519	1433.011841
1836.995117	1389.633545
1836.183716	1426.368042
1835.372070	1481.571411
1834.560303	1428.967529
1833.748291	1394.856323
1832.936279	1499.295044
1832.124146	1409.777222
1831.311768	1504.945313
1830.499390	1400.071167
1829.686768	1433.677490
1828.874023	1482.652710
1828.061157	1396.288330
1827.248169	1417.578125
1826.434937	1503.425049
1825.621704	1450.914307
1824.808228	1459.890137
1823.994751	1425.841919
1823.181030	1450.181030
1822.367188	1428.433350
1821.553223	1458.906372
1820.739136	1461.731445
1819.924927	1439.992554
1819.110474	1531.844727
1818.296021	1488.616211
1817.481323	1479.158813
1816.666626	1488.114258
1815.851685	1429.575928
1815.036621	1441.603882
1814.221436	1392.293213
1813.406006	1450.316406
1812.590576	1382.626587
1811.774902	1538.717285
1810.959229	1486.358643
1810.143311	1455.466553
1809.327271	1495.048096
1808.511108	1387.587158
1807.694824	1457.792603
1806.878418	1420.801758
1806.061768	1472.608521
1805.245117	1457.054810
1804.428223	1441.506348
1803.611206	1407.603027
1802.794067	1489.971680
1801.976807	1495.838135
1801.159424	1434.416504
1800.341919	1431.116455
1799.524170	1443.104492
1798.706421	1448.974731
1797.888428	1412.053345
1797.070313	1451.541382
1796.252075	1546.012451
1795.433716	1466.325439
1794.615234	1411.099854
1793.796509	1474.991577
1792.977783	1502.222168
1792.158813	1459.229492
1791.339844	1504.766968
1790.520630	1391.598022
1789.701294	1394.414185
1788.881714	1464.345093
1788.062134	1430.545410
1787.242432	1463.850220
1786.422485	1469.701294
1785.602417	1457.258301
1784.782349	1499.685913
1783.962036	1429.337036
1783.141479	1444.331055
1782.320923	1541.578003
1781.500244	1474.303589
1780.679321	1461.872070
1779.858398	1452.489746
1779.037231	1415.709717
1778.215942	1497.658936
1777.394531	1561.319336
1776.572998	1536.711304
1775.751221	1527.323975
1774.929443	1530.107666
1774.107422	1551.138916
1773.285278	1493.098755
1772.463013	1492.846191
1771.640625	1468.274414
1770.818115	1537.932007
1769.995483	1504.244141
1769.172607	1497.912842
1768.349731	1476.394409
1767.526611	1530.816650
1766.703369	1579.146606
1765.880005	1451.354492
1765.056519	1554.325806
1764.232910	1502.462891
1763.409058	1480.965210
1762.585083	1426.098022
1761.761108	1510.801147
1760.936890	1571.209839
1760.112549	1531.518555
1759.288086	1467.583008
1758.463379	1570.411743
1757.638672	1461.023682
1756.813721	1512.297363
1755.988647	1609.005737
1755.163574	1602.673950
1754.338257	1493.354248
1753.512695	1586.987915
1752.687134	1483.764038
1751.861328	1525.898682
1751.035522	1534.721313
1750.209473	1537.487793
1749.383301	1567.487549
1748.557007	1512.762451
1747.730591	1524.606079
1746.903931	1551.568237
1746.077271	1493.849365
1745.250366	1617.558594
1744.423340	1581.008789
1743.596313	1595.853027
1742.768921	1622.779785
1741.941528	1510.712036
1741.114014	1625.250488
1740.286255	1624.974854
1739.458374	1700.196411
1738.630493	1660.656128
1737.802368	1627.166992
1736.973999	1587.652344
1736.145630	1566.258179
1735.317139	1635.390869
1734.488403	1538.575439
1733.659546	1655.950073
1732.830566	1547.100586
1732.001465	1561.914551
1731.172241	1552.605103
1730.342896	1721.139893
1729.513306	1609.339233
1728.683594	1624.132202
1727.853882	1620.843750
1727.023926	1629.605225
1726.193726	1671.492310
1725.363525	1728.421143
1724.533203	1707.052856
1723.702637	1508.092163
1722.871948	1664.338013
1722.041138	1606.881714
1721.210205	1609.617432
1720.379150	1756.741821
1719.547974	1609.070557
1718.716553	1726.074097
1717.885010	1791.925781
1717.053467	1686.408569
1716.221558	1641.038574
1715.389648	1643.764771
1714.557617	1682.544556
1713.725342	1709.294922
1712.893066	1715.011475
1712.060547	1645.650635
1711.227905	1756.463501
1710.395142	1798.192871
1709.562256	1677.827881
1708.729126	1722.557251
1707.895874	1665.255615
1707.062622	1685.972046
1706.229126	1703.682007
1705.395508	1760.371948
1704.561646	1748.078979
1703.727783	1750.779541
1702.893677	1714.512939
1702.059570	1765.168457
1701.225220	1713.929688
1700.390747	1824.485352
1699.556030	1770.258423
1698.721313	1790.921265
1697.886353	1868.469360
1697.051392	1883.120605
1696.216187	1769.053833
1695.380859	1822.623413
1694.545410	1717.582642
1693.709717	1759.175415
1692.874023	1791.780029
1692.038086	1824.373657
1691.202026	1740.335571
1690.365845	1781.895874
1689.529541	1799.527954
1688.692993	1784.277832
1687.856445	1843.738647
1687.019653	1795.621094
1686.182739	1786.353638
1685.345703	1875.650513
1684.508545	1890.262085
1683.671143	1779.469604
1682.833740	1728.418457
1681.996094	1832.587402
1681.158325	1826.306885
1680.320435	1858.815918
1679.482422	1843.583496
1678.644287	1864.147705
1677.805908	1771.384033
1676.967407	1902.273438
1676.128784	1791.648071
1675.290039	1916.528076
1674.451172	1898.320801
1673.612183	1868.201294
1672.772949	1850.008301
1671.933594	1927.135742
1671.094116	1843.421387
1670.254517	1813.331543
1669.414795	1944.012329
1668.574829	1919.868530
1667.734863	1922.517090
1666.894653	1812.094849
1666.054321	1924.836304
1665.213867	1832.298218
1664.373169	1817.115601
1663.532471	1840.593506
1662.691528	1864.063477
1661.850464	1860.772827
1661.009277	1902.062988
1660.167969	1984.939453
1659.326538	1836.052734
1658.484863	1960.498413
1657.643066	1879.975220
1656.801147	1933.104248
1655.959106	1938.712036
1655.116943	1956.191650
1654.274658	1955.857666
1653.432129	1991.132690
1652.589478	1946.289063
1651.746704	1954.855957
1650.903809	1942.658569
1650.060791	2028.322876
1649.217529	1873.802856
1648.374146	1977.235718
1647.530640	2006.536621
1646.687012	1976.560303
1645.843262	2014.739746
1644.999390	1937.374512
1644.155273	2028.860474
1643.311035	1998.900513
1642.466675	2111.070313
1641.622192	1939.010864
1640.777588	2060.031982
1639.932739	2104.069580
1639.087769	2103.709961
1638.242798	2029.392822
1637.397461	1955.101074
1636.552124	2037.570801
1635.706665	2001.741089
1634.860962	2075.305664
1634.015137	1980.366211
1633.169189	2136.656494
1632.323120	1950.141357
1631.476929	2085.703369
1630.630493	1996.734253
1629.783936	2070.223877
1628.937256	2046.247803
1628.090454	1989.805298
1627.243530	2060.306396
1626.396484	2062.905029
1625.549194	2065.502686
1624.701782	2097.601563
1623.854248	2058.896484
1623.006592	2061.493408
1622.158691	2037.550903
1621.310791	2057.839355
1620.462646	2057.487305
1619.614380	2077.765381
1618.765991	2030.262695
1617.917358	2118.300293
1617.068726	2026.621826
1616.219849	1952.645630
1615.370850	2043.595825
1614.521729	2143.347168
1613.672363	2042.895874
1612.822998	2036.659668
1611.973389	2130.475586
1611.123657	2168.358398
1610.273804	2094.446045
1609.423828	2194.085693
1608.573608	2099.609619
1607.723389	2099.249756
1606.872925	2113.588379
1606.022339	2107.347900
1605.171509	2106.986572
1604.320679	2124.254150
1603.469604	2106.264404
1602.618408	2094.155029
1601.767090	2105.542480
1600.915649	2119.862061
1600.064087	2128.305176
1599.212280	2177.836914
1598.360352	2092.360352
1597.508301	2115.474365
1596.656128	2106.310791
1595.803833	2182.209473
1594.951294	2064.532227
1594.098633	2204.917725
1593.245850	2195.744629
1592.392944	2174.850586
1591.539795	2115.866211
1590.686646	2209.265137
1589.833252	2238.181641
1588.979736	2164.571045
1588.126099	2170.056885
1587.272217	2172.612305
1586.418335	2113.688721
1585.564209	2122.106934
1584.709961	2273.922852
1583.855591	2127.230469
1583.000977	2161.971924
1582.146362	2187.926025
1581.291504	2155.380371
1580.436523	2193.022705
1579.581421	2218.958008
1578.726074	2198.115723
1577.870605	2180.202881
1577.015137	2150.608398
1576.159424	2156.082031
1575.303467	2249.184082
1574.447510	2242.956787
1573.591309	2225.051270
1572.734985	2189.635010
1571.878540	2186.339600
1571.021973	2148.023438
1570.165161	2206.014404
1569.308350	2173.542725
1568.451294	2179.003174
1567.594116	2126.131592
1566.736694	2239.490234
1565.879272	2244.936279
1565.021606	2264.955322
1564.163818	2110.097412
1563.305908	2214.638672
1562.447876	2228.825195
1561.589600	2126.487061
1560.731201	2263.008789
1559.872681	2230.587646
1559.014038	2212.735107
1558.155273	2209.443359
1557.296265	2200.331787
1556.437134	2229.053223
1555.577881	2161.751465
1554.718506	2167.197510
1553.859009	2323.883057
1552.999268	2256.599609
1552.139404	2264.933594
1551.279419	2276.171875
1550.419312	2299.031982
1549.558960	2234.704590
1548.698608	2341.822998
1547.838013	2251.365234
1546.977173	2265.500000
1546.116333	2233.166260
1545.255249	2293.754883
1544.394165	2264.330078
1543.532837	2249.427734
1542.671265	2376.727783
1541.809692	2358.909668
1540.947876	2262.770752
1540.085938	2294.286377
1539.223877	2273.591309
1538.361694	2403.676514
1537.499268	2272.807861
1536.636841	2304.299805
1535.774170	2327.086670
1534.911377	2289.018311
1534.048340	2262.550781
1533.185303	2317.194336
1532.322021	2337.066895
1531.458618	2307.709229
1530.594971	2397.056152
1529.731323	2263.496094
1528.867432	2425.169922
1528.003418	2355.307861
1527.139282	2343.329590
1526.275024	2287.968018
1525.410522	2348.305664
1524.545898	2304.528076
1523.681152	2434.225830
1522.816284	2413.572510
1521.951172	2335.125977
1521.086060	2346.281250
1520.220703	2441.213867
1519.355225	2385.910889
1518.489502	2362.395264
1517.623779	2327.337402
1516.757813	2407.772217
1515.891724	2384.264648
1515.025513	2291.500488
1514.159058	2394.983887
1513.292480	2406.110596
1512.425781	2402.810791
1511.558960	2425.468262
1510.692017	2436.583496
1509.824829	2381.385254
1508.957520	2435.742432
1508.090088	2455.496094
1507.222534	2426.256592
1506.354736	2371.097900
1505.486938	2497.432373
1504.618896	2404.839355
1503.750610	2542.642334
1502.882324	2467.347900
1502.013794	2429.500488
1501.145142	2460.739258
1500.276367	2486.212158
1499.407471	2433.995605
1498.538330	2493.982910
1497.669067	2441.782715
1496.799683	2429.858398
1495.930176	2472.564453
1495.060547	2532.503174
1494.190674	2575.176758
1493.320679	2500.018311
1492.450562	2571.413330
1491.580200	2588.204346
1490.709717	2582.012695
1489.839233	2509.776367
1488.968384	2492.115723
1488.097534	2597.896973
1487.226440	2525.695068
1486.355347	2611.346680
1485.483887	2602.287598
1484.612427	2581.757080
1483.740845	2630.068604
1482.869019	2586.599121
1481.997070	2729.508057
1481.124878	2648.770020
1480.252686	2628.248779
1479.380249	2690.838135
1478.507690	2736.214844
1477.635010	2578.185547
1476.762207	2649.343018
1475.889160	2743.385254
1475.015991	2771.541992
1474.142700	2788.238037
1473.269165	2810.652832
1472.395630	2824.474609
1471.521851	2869.764404
1470.647949	2966.530762
1469.773804	3043.242188
1468.899658	3134.225342
1468.025269	3125.104736
1467.150757	3313.238037
1466.276001	3246.925293
1465.401245	3560.711182
1464.526245	3540.093750
1463.651123	3802.299072
1462.775879	3927.314209
1461.900391	4163.659668
1461.024780	4242.884766
1460.149048	4567.590332
1459.273193	4501.150879
1458.397217	4665.888672
1457.520996	4579.481934
1456.644653	4458.872070
1455.768188	4383.939941
1454.891479	4135.075195
1454.014648	4154.317383
1453.137695	4085.177979
1452.260620	3950.505859
1451.383423	3855.777344
1450.505981	3789.574707
1449.628418	3737.638916
1448.750732	3717.052246
1447.872803	3505.668701
1446.994873	3710.068115
1446.116699	3504.452393
1445.238403	3364.373779
1444.359863	3244.264404
1443.481201	3340.443359
1442.602417	3260.207764
1441.723511	3418.926270
1440.844482	3284.670898
1439.965210	3281.257568
1439.085815	3456.946777
1438.206299	3504.667236
1437.326538	3444.378906
1436.446777	3750.652588
1435.566772	3687.501221
1434.686646	3706.743896
1433.806274	3706.100098
1432.925781	3691.259277
1432.045166	3523.120850
1431.164429	3488.447754
1430.283569	3331.754395
1429.402466	3248.889404
1428.521240	3262.509766
1427.639893	3256.270020
1426.758301	3088.381348
1425.876709	3144.554443
1424.994873	3124.163086
1424.112793	3166.137695
1423.230713	3205.263672
1422.348389	3150.869629
1421.465942	3289.140137
1420.583374	3195.094727
1419.700562	3169.051025
1418.817627	3293.088135
1417.934570	3315.164063
1417.051392	3255.145752
1416.167969	3130.056641
1415.284546	3104.046143
1414.400757	3157.259033
1413.516968	3216.110352
1412.633057	3167.473145
1411.748901	3226.302002
1410.864624	3231.395020
1409.980103	3160.166992
1409.095459	3238.749023
1408.210815	3195.800781
1407.325806	3336.502197
1406.440796	3318.973633
1405.555542	3295.802734
1404.670166	3334.760498
1403.784668	3320.064209
1402.899048	3248.918945
1402.013184	3248.353516
1401.127197	3355.012939
1400.241089	3281.077148
1399.354736	3283.326416
1398.468262	3336.339355
1397.581665	3338.578125
1396.694946	3298.527100
1395.807983	3365.602783
1394.920898	3331.197510
1394.033691	3282.714844
1393.146362	3217.345459
1392.258789	3264.670410
1391.371094	3466.875977
1390.483276	3207.216553
1389.595337	3192.581055
1388.707153	3445.360107
1387.818848	3270.270264
1386.930420	3385.068359
1386.041748	3387.291748
1385.152954	3347.321045
1384.264038	3360.799561
1383.375000	3377.084961
1382.485718	3432.724365
1381.596313	3519.264160
1380.706787	3288.195801
1379.817139	3369.110352
1378.927246	3520.232910
1378.037231	3373.553223
1377.147095	3583.599609
1376.256714	3442.575928
1375.366333	3506.547607
1374.475586	3503.128906
1373.584839	3510.937256
1372.693970	3400.890137
1371.802856	3641.571777
1370.911499	3469.829346
1370.020142	3483.246582
1369.128540	3561.152100
1368.236816	3521.280762
1367.344971	3498.241455
1366.453003	3360.303955
1365.560791	3440.978271
1364.668457	3490.806641
1363.775879	3535.014893
1362.883301	3537.198486
1361.990479	3659.787109
1361.097534	3768.334473
1360.204346	3708.894043
1359.311035	3789.407715
1358.417603	3715.992920
1357.524048	3595.042969
1356.630249	3675.533936
1355.736450	3529.462402
1354.842285	3408.607666
1353.948120	3427.582275
1353.053711	3337.535400
1352.159180	3222.366699
1351.264526	3165.917969
1350.369751	3184.921143
1349.474731	3131.291748
1348.579590	2946.418701
1347.684204	3035.258057
1346.788818	2864.425293
1345.893188	3039.779541
1344.997314	3047.620605
1344.101440	2890.826904
1343.205322	3013.076416
1342.309082	2948.393311
1341.412720	2939.510986
1340.516113	2782.845215
1339.619385	2916.179199
1338.722534	3029.954346
1337.825439	2965.324219
1336.928223	3006.602539
1336.030884	3008.862549
1335.133423	2966.553711
1334.235718	3096.929932
1333.337891	3115.879639
1332.439941	3365.897461
1331.541870	3448.814697
1330.643555	3676.421875
1329.745117	3878.906250
1328.846436	3853.188477
1327.947754	3922.053955
1327.048828	3782.311523
1326.149780	3617.592529
1325.250488	3305.583740
1324.351074	3149.344238
1323.451538	3032.067871
1322.551880	2920.389648
1321.651978	2747.630371
1320.751953	2688.817383
1319.851807	2588.366455
1318.951416	2535.155273
1318.050903	2479.186035
1317.150269	2270.569824
1316.249512	2353.430176
1315.348511	2308.621094
1314.447388	2247.182129
1313.546021	2141.383301
1312.644653	2160.421387
1311.743042	2099.040039
1310.841309	2084.810303
1309.939331	2175.916504
1309.037231	2042.508667
1308.135010	2003.358032
1307.232666	1947.598511
1306.330078	2069.133789
1305.427368	2196.165039
1304.524536	2179.166260
1303.621460	2123.414551
1302.718262	1979.107056
1301.814941	2039.644775
1300.911499	2058.656006
1300.007813	1922.735107
1299.104004	1936.228027
1298.199951	1960.778198
1297.295898	1883.012207
1296.391602	1973.913086
1295.487061	1943.161499
1294.582520	1981.511108
1293.677734	1923.137573
1292.772827	1795.718384
1291.867676	1792.640991
1290.962402	1814.419678
1290.057007	1814.101074
1289.151489	1786.175537
1288.245728	1719.616577
1287.339844	1661.360107
1286.433838	1699.697876
1285.527588	1677.329224
1284.621216	1602.561035
1283.714722	1602.279541
1282.808105	1632.328491
1281.901245	1593.446167
1280.994263	1695.150879
1280.087036	1612.177246
1279.179810	1523.721924
1278.272217	1526.209106
1277.364624	1578.274536
1276.456787	1566.981445
1275.548828	1506.130493
1274.640747	1585.701294
1273.732544	1645.976929
1272.824097	1615.415649
1271.915405	1549.095581
1271.006714	1537.819214
1270.097778	1537.548828
1269.188721	1482.277344
1268.279541	1517.761108
1267.370117	1542.235840
1266.460571	1506.232788
1265.550781	1464.746094
1264.640991	1439.759766
1263.730957	1445.000732
1262.820679	1417.279785
1261.910400	1568.070557
1260.999878	1493.660767
1260.089233	1463.200439
1259.178345	1531.561279
1258.267334	1487.383789
1257.356201	1591.385132
1256.444824	1558.185547
1255.533447	1577.110840
1254.621704	1620.710327
1253.709961	1576.555664
1252.797974	1614.656982
1251.885864	1628.077026
1250.973633	1562.020996
1250.061157	1569.965576
1249.148560	1468.330444
1248.235840	1528.328491
1247.322876	1454.120972
1246.409790	1421.009155
1245.496582	1415.283813
1244.583130	1335.661133
1243.669556	1373.737183
1242.755859	1400.855591
1241.841919	1452.584473
1240.927856	1378.481201
1240.013672	1359.096069
1239.099365	1408.070679
1238.184814	1429.691528
1237.270142	1363.843750
1236.355225	1328.078613
1235.440186	1382.488281
1234.525024	1330.342041
1233.609741	1428.431641
1232.694214	1414.526001
1231.778564	1417.006836
1230.862671	1340.322998
1229.946777	1288.229858
1229.030640	1372.596069
1228.114258	1388.723999
1227.197876	1470.314697
1226.281128	1491.874268
1225.364380	1409.804199
1224.447388	1469.536499
1223.530273	1583.766357
1222.613037	1599.839478
1221.695557	1684.031250
1220.777954	1781.815552
1219.860229	1740.640991
1218.942261	1783.910034
1218.024170	1759.087769
1217.105957	1758.777222
1216.187500	1731.245850
1215.268921	1641.127197
1214.350220	1643.558472
1213.431274	1523.559937
1212.512207	1460.727173
1211.593018	1310.886597
1210.673706	1394.950317
1209.754150	1326.735840
1208.834351	1443.385864
1207.914551	1312.678345
1206.994507	1336.901855
1206.074219	1252.444824
1205.153931	1249.507202
1204.233398	1167.811157
1203.312744	1202.904541
1202.391846	1237.985352
1201.470825	1229.623291
1200.549683	1183.269287
1199.628296	1193.913818
1198.706787	1139.443604
1197.785156	1215.191528
1196.863281	1185.144653
1195.941284	1138.839233
1195.019165	1168.459229
1194.096802	1219.753296
1193.174438	1208.697266
1192.251709	1132.614502
1191.328979	1216.397095
1190.406006	1170.134888
1189.482788	1115.764526
1188.559570	1110.151733
1187.636108	1147.856201
1186.712402	1098.932007
1185.788696	1139.331177
1184.864746	1149.952637
1183.940552	1138.927979
1183.016357	1136.021484
1182.091919	1133.116089
1181.167236	1103.173096
1180.242554	1084.054077
1179.317505	1086.565063
1178.392456	1172.850098
1177.467163	1237.489014
1176.541748	1180.539185
1175.616211	1326.183228
1174.690430	1261.136108
1173.764526	1358.113770
1172.838501	1473.953735
1171.912231	1484.488892
1170.985840	1624.552734
1170.059204	1772.661255
1169.132446	1974.669800
1168.205566	1971.622681
1167.278564	2035.993652
1166.351318	1914.303711
1165.423828	1954.400269
1164.496338	1784.253296
1163.568604	1703.093872
1162.640747	1694.709106
1161.712646	1680.939575
1160.784424	1532.508057
1159.856079	1537.622070
1158.927490	1459.270386
1157.998779	1588.222900
1157.069946	1631.004028
1156.140869	1574.204834
1155.211670	1673.473022
1154.282349	1794.225830
1153.352783	1914.935791
1152.423096	2016.779541
1151.493164	2080.947266
1150.563232	1935.421387
1149.632935	1927.015015
1148.702637	1738.573853
1147.772095	1606.619263
1146.841431	1549.924316
1145.910522	1372.392944
1144.979492	1326.500610
1144.048340	1229.614136
1143.116943	1178.394775
1142.185425	1089.620239
1141.253784	1135.043213
1140.321899	1059.722046
1139.389893	920.050964
1138.457764	925.251282
1137.525391	935.812622
1136.592896	908.837036
1135.660278	873.829590
1134.727417	908.514160
1133.794434	897.634705
1132.861206	876.042969
1131.927856	916.065613
1130.994385	843.594727
1130.060669	891.641602
1129.126831	894.160278
1128.192871	867.234802
1127.258667	813.557190
1126.324341	832.142456
1125.389893	866.772400
1124.455200	853.244568
1123.520386	829.024414
1122.585327	866.310120
1121.650146	785.956421
1120.714844	769.779602
1119.779297	809.728210
1118.843628	812.256104
1117.907837	809.440186
1116.971802	817.309021
1116.035645	809.152222
1115.099365	851.728149
1114.162842	782.169067
1113.226196	832.741760
1112.289307	845.936401
1111.352417	808.432495
1110.415161	765.606750
1109.477905	810.811890
1108.540405	792.000916
1107.602661	818.521851
1106.664917	797.050354
1105.726807	783.582214
1104.788696	855.391479
1103.850342	847.246277
1102.911865	841.767761
1101.973145	838.954529
1101.034302	886.736816
1100.095337	841.318054
1099.156128	838.506287
1098.216797	830.372559
1097.277344	766.361145
1096.337646	848.700195
1095.397827	720.867615
1094.457764	728.717834
1093.517700	749.860596
1092.577271	723.140869
1091.636841	696.430664
1090.696167	762.747986
1089.755249	759.954834
1088.814209	704.028442
1087.873047	738.434021
1086.931763	666.596680
1085.990234	698.341309
1085.048584	700.871582
1084.106689	690.129272
1083.164673	647.544250
1082.222412	668.655884
1081.280151	663.230774
1080.337524	702.899231
1079.394897	657.690247
1078.452026	718.557495
1077.509033	702.523071
1076.565796	644.085449
1075.622437	662.521118
1074.678955	680.950134
1073.735229	659.635498
1072.791382	683.355774
1071.847290	659.400024
1070.903076	640.748291
1069.958740	664.459106
1069.014160	645.813049
1068.069458	595.418030
1067.124512	624.415833
1066.179565	616.368225
1065.234253	653.286560
1064.288940	666.391907
1063.343384	645.121338
1062.397583	621.214905
1061.451660	639.604919
1060.505615	684.413513
1059.559448	652.586670
1058.613037	686.810547
1057.666382	660.276733
1056.719727	649.596252
1055.772827	681.162109
1054.825684	686.319702
1053.878418	662.444092
1052.931030	662.325684
1051.983398	714.972778
1051.035645	693.742493
1050.087769	796.474426
1049.139648	772.600281
1048.191406	790.916870
1047.242920	803.955017
1046.294312	832.801086
1045.345581	974.940796
1044.396606	958.959412
1043.447510	1048.344971
1042.498291	995.486206
1041.548828	992.674988
1040.599121	953.008118
1039.649414	1023.905579
1038.699341	1050.039063
1037.749268	1084.056885
1036.798950	1112.800903
1035.848511	1067.887207
1034.897827	1059.806763
1033.947021	999.142578
1032.996094	959.530945
1032.044922	809.541443
1031.093506	848.815125
1030.142090	730.428345
1029.190430	743.432373
1028.238525	756.431702
1027.286499	698.523621
1026.334351	682.645142
1025.381958	664.147278
1024.429443	624.658997
1023.476807	663.909302
1022.523926	632.306213
1021.570923	692.526672
1020.617737	629.456909
1019.664368	634.588623
1018.710815	689.532654
1017.757080	652.710510
1016.803223	610.659790
1015.849121	618.411499
1014.894897	628.780273
1013.940491	594.614746
1012.985962	639.030762
1012.031189	638.916138
1011.076294	602.149048
1010.121216	607.276184
1009.165955	659.509277
1008.210510	630.608032
1007.254944	656.656555
1006.299133	619.919067
1005.343201	729.647217
1004.387085	695.524536
1003.430786	765.985413
1002.474365	747.551270
1001.517700	885.924438
1000.560913	977.216187
999.603943	1050.188232
998.646790	1065.671387
997.689514	1096.817749
996.731995	1146.229858
995.774353	978.949951
994.816528	895.252136
993.858521	842.899475
992.900330	764.474304
991.942017	706.946533
990.983459	719.860535
990.024780	678.007690
989.065918	664.849609
988.106873	659.516602
987.147705	630.728638
986.188293	661.885498
985.228760	630.502014
984.269043	643.413330
983.309143	643.297668
982.349060	604.122437
981.388794	653.480530
980.428406	702.820862
979.467834	728.720215
978.507019	879.511292
977.546082	967.808838
976.585022	1050.872192
975.623718	1269.142212
974.662292	1448.330078
973.700623	1630.053223
972.738831	1702.540405
971.776855	1686.641235
970.814758	1457.681885
969.852417	1254.783813
968.889954	1116.894409
967.927246	984.248413
966.964417	830.878174
966.001404	784.000183
965.038208	711.183411
964.074890	698.079956
963.111328	651.251099
962.147644	627.786438
961.183777	643.235596
960.219727	591.255310
959.255493	565.221252
958.291077	559.934937
957.326538	559.834106
956.361755	588.238220
955.396851	549.268982
954.431763	546.579590
953.466492	538.711304
952.501038	629.246460
951.535461	623.955078
950.569641	564.305847
949.603699	587.497009
948.637573	582.215881
947.671265	628.679871
946.704773	584.592834
945.738098	602.591064
944.771240	656.783447
943.804260	741.979858
942.837097	718.582642
941.869751	824.412048
940.902222	844.934570
939.934509	865.449707
938.966614	885.957397
937.998535	841.895142
937.030334	766.864319
936.061951	645.392273
935.093323	637.532593
934.124573	611.611206
933.155640	575.378479
932.186584	559.796448
931.217285	531.323792
930.247864	551.858154
929.278198	554.336914
928.308411	528.458435
927.338440	505.166626
926.368286	528.267700
925.397949	504.984314
924.427429	492.013245
923.456787	535.708252
922.485901	535.611572
921.514893	527.791138
920.543701	486.509796
919.572327	491.569275
918.600769	540.371277
917.629028	509.400879
916.657104	540.176086
915.685059	516.932312
914.712769	501.410919
913.740356	552.737793
912.767761	539.785950
911.794983	539.688416
910.822021	513.896118
909.848877	549.769470
908.875549	577.924194
907.902039	539.298462
906.928406	559.741943
905.954590	551.939331
904.980530	567.239746
904.006348	597.931946
903.031982	623.481567
902.057434	623.368835
901.082703	730.979370
900.107849	712.896606
899.132751	674.308960
898.157532	669.060120
897.182068	676.628113
896.206482	620.130249
895.230713	625.142151
894.254761	653.206604
893.278625	596.743591
892.302307	553.104248
891.325806	532.522522
890.349182	550.344360
889.372314	547.685486
888.395325	547.586365
887.418091	529.578796
886.440735	532.040833
885.463196	547.289063
884.485474	519.063416
883.507568	511.299927
882.529480	544.435852
881.551270	534.114990
880.572815	564.679565
879.594238	551.804077
878.615417	538.933228
877.636475	482.653687
876.657349	548.951050
875.677979	497.795624
874.698486	538.542847
873.718811	551.204590
872.739014	604.684387
871.758972	543.352051
870.778748	578.960388
869.798401	586.505554
868.817810	583.849670
867.837097	553.154663
866.856140	547.957092
865.875061	563.146851
864.893799	578.330994
863.912354	608.793152
862.930725	567.934143
861.948914	575.470154
860.966919	621.191406
859.984741	621.078735
859.002441	582.791931
858.019897	666.654114
857.037231	661.445129
856.054321	648.607361
855.071289	653.575867
854.088074	686.511536
853.104614	699.097839
852.121033	780.305786
851.137268	775.081665
850.153320	792.726501
849.169189	825.606873
848.184937	891.493591
847.200439	929.422852
846.215759	1013.039307
845.230896	1142.318115
844.245911	1367.994873
843.260681	1801.669678
842.275330	2222.501465
841.289795	2503.665039
840.304016	2378.937500
839.318115	1962.647217
838.332031	1652.989014
837.345764	1376.395752
836.359314	1213.947998
835.372681	1114.906250
834.385864	1048.834717
833.398865	970.122498
832.411743	975.011169
831.424377	881.148621
830.436829	949.341064
829.449158	893.483948
828.461243	898.382813
827.473206	855.206177
826.484924	738.682800
825.496521	796.721863
824.507935	796.576965
823.519104	821.715698
822.530151	788.703552
821.541016	738.011414
820.551697	725.242249
819.562195	795.852844
818.572510	851.281311
817.582642	866.280029
816.592590	936.826233
815.602356	1050.266357
814.611938	1171.237671
813.621399	1383.020386
812.630615	1670.424927
811.639648	2146.937988
810.648560	2789.754639
809.657227	3477.731689
808.665771	3567.871094
807.674072	3390.751221
806.682251	2684.381104
805.690186	2129.473145
804.697998	1602.483154
803.705566	1257.065186
802.713013	1113.269775
801.720276	1070.256714
800.727356	883.745178
799.734253	838.272156
798.740906	767.646912
797.747437	759.957825
796.753784	717.048035
795.759949	732.010376
794.765930	671.515991
793.771729	643.733154
792.777344	636.073486
791.782776	668.635193
790.788025	610.709534
789.793091	590.496155
788.798035	580.339355
787.802734	547.579712
786.807251	544.968445
785.811584	554.912720
784.815796	582.426575
783.819763	524.590332
782.823547	534.532837
781.827148	567.053406
780.830627	539.355042
779.833862	496.617767
778.836975	519.096558
777.839844	503.958313
776.842529	506.373138
775.845093	516.306091
774.847412	531.247131
773.849609	513.612244
772.851563	511.013489
771.853394	538.469849
770.854980	530.859375
769.856445	523.251648
768.857666	490.615295
767.858765	530.568604
766.859680	515.458374
765.860352	515.364197
764.860901	552.789734
763.861206	550.187927
762.861389	487.577484
761.861389	509.987885
760.861145	489.898834
759.860779	477.314178
758.860168	529.696960
757.859436	487.132202
756.858521	514.517395
755.857361	516.920593
754.856079	509.335846
753.854614	509.242737
752.852905	489.183014
751.851074	504.065826
750.848999	484.014313
749.846802	488.914734
748.844421	511.271393
747.841797	516.164978
746.839050	488.646545
745.836121	530.932007
744.832947	498.436523
743.829651	500.837067
742.826111	515.693054
741.822449	490.690552
740.818604	485.620056
739.814514	485.531189
738.810303	497.889587
737.805847	497.798462
736.801270	472.821991
735.796448	482.687775
734.791504	462.698395
733.786316	507.382751
732.781006	477.449280
731.775452	482.334381
730.769775	526.990540
729.763855	492.099152
728.757751	482.069458
727.751526	499.372223
726.745056	496.796783
725.738403	499.189301
724.731628	476.750183
723.724609	499.006409
722.717407	516.290161
721.710083	488.896729
720.702515	463.994598
719.694763	506.083160
718.686829	518.392151
717.678711	466.219421
716.670410	483.490021
715.661987	500.754242
714.653320	475.877167
713.644470	483.224152
712.635437	490.568390
711.626221	485.524109
710.616821	532.492554
709.607178	497.727325
708.597412	490.208649
707.587463	514.872192
706.577332	492.503693
705.567017	482.515594
704.556458	509.640900
703.545776	447.709137
702.534912	497.088501
701.523804	494.524658
700.512573	519.155640
699.501099	521.532043
698.489502	496.723694
697.477661	466.982819
696.465698	496.541351
695.453491	498.920074
694.441101	496.359039
693.428589	471.577942
692.415833	506.050934
691.402893	535.575073
690.389771	493.526886
689.376465	488.501892
688.362976	473.611786
687.349304	510.518921
686.335449	510.425110
685.321411	473.350800
684.307190	448.614685
683.292725	534.788452
682.278137	495.265991
681.263367	524.737671
680.248352	514.788818
679.233215	517.156860
678.217834	524.448364
677.202332	465.270050
676.186584	479.952271
675.170654	477.403168
674.154541	447.790741
673.138306	538.726013
672.121826	538.626953
671.105164	445.084686
670.088318	511.384460
669.071289	494.083496
668.054016	479.246552
667.036621	471.786713
666.019043	466.786377
665.001282	486.351044
663.983276	469.070465
662.965149	488.627472
661.946777	473.807770
660.928223	498.265656
659.909546	505.536133
658.890625	517.711121
657.871521	517.615784
656.852234	510.162384
655.832764	475.736908
654.813110	541.847900
653.793274	480.464417
652.773254	499.983093
651.752991	499.891022
650.732605	470.398987
649.711975	529.101379
648.691223	509.411163
647.670227	499.522766
646.649048	482.293396
645.627747	528.711548
644.606201	516.377686
643.584473	548.091370
642.562561	543.097595
641.540466	528.321899
640.518127	540.451904
639.495667	533.017212
638.473022	498.694763
637.450134	542.597168
636.427063	520.504028
635.403870	513.078369
634.380432	515.426514
633.356812	520.216125
632.333008	505.468872
631.309021	493.168488
630.284851	507.723389
629.260498	571.083435
628.235901	492.895599
627.211182	522.080139
626.186218	531.740540
625.161133	556.029663
624.135803	516.914612
623.110291	485.127472
622.084595	521.598572
621.058716	526.376160
620.032654	506.787140
619.006409	526.181824
617.979919	535.826965
616.953308	513.811890
615.926453	477.196808
614.899414	525.793213
613.872253	535.431213
612.844849	508.565735
611.817261	520.636169
610.789490	505.945404
609.761475	535.035706
608.733337	559.252136
607.705017	549.424500
606.676453	517.724731
605.647705	498.187592
604.618774	529.682068
603.589722	556.306274
602.560425	541.630432
601.530884	497.819336
600.501221	534.146362
599.471375	592.307373
598.441284	553.365173
597.411011	492.598083
596.380615	497.359253
595.349976	526.375610
594.319153	492.324799
593.288147	533.455261
592.256897	538.205322
591.225525	540.529602
590.193970	593.745544
589.162170	547.598633
588.130188	600.793518
587.098022	540.129639
586.065674	520.656433
585.033142	527.823669
584.000427	525.305237
582.967468	530.048584
581.934387	566.248474
580.901062	570.982422
579.867554	553.943970
578.833862	551.422852
577.799988	565.829163
576.765930	539.130493
575.731628	541.447815
574.697205	577.598450
573.662537	584.740356
572.627747	555.641968
571.592712	543.462097
570.557434	562.680908
569.522034	584.307068
568.486450	526.261719
567.450623	552.713745
566.414673	576.742859
565.378479	569.397827
564.342102	591.002563
563.305542	602.952026
562.268799	581.138000
561.231812	564.153870
560.194702	624.310913
559.157349	595.274902
558.119812	636.127258
557.082092	628.781921
556.044189	635.891296
555.006042	623.732178
553.967773	592.315247
552.929260	594.612732
551.890625	633.012634
550.851746	618.456543
549.812683	625.559753
548.773376	630.254761
547.733948	622.922485
546.694275	654.067444
545.654419	687.604980
544.614441	646.613342
543.574158	680.139771
542.533752	687.222107
541.493164	660.667786
540.452332	718.192688
539.411316	698.847046
538.370178	705.920471
537.328735	727.395203
536.287170	741.661255
535.245422	777.519775
534.203430	866.149658
533.161255	892.376221
532.118896	882.616699
531.076355	944.799927
530.033630	939.829285
528.990723	922.875061
527.947571	898.737244
526.904236	908.154907
525.860718	867.258484
524.817017	934.165527
523.773132	907.648499
522.729004	876.352478
521.684692	758.885437
520.640198	758.744324
519.595520	741.851685
518.550659	686.683350
517.505615	727.222717
516.460327	710.345276
515.414856	648.039551
514.369202	717.253540
513.323364	669.312073
512.277283	623.778381
511.231079	704.905640
510.184631	640.269653
509.138000	642.539124
508.091187	601.820496
507.044159	568.280212
505.996948	601.596497
504.949554	649.221313
503.901947	584.667664
502.854126	622.734070
501.806152	677.484863
500.757965	686.898926
499.709564	705.847961
