3200.54	67.3567
3199.95	42.0979
3199.35	50.5099
3198.76	21.0426
3198.16	63.1182
3197.57	50.487
3196.98	54.6859
3196.38	42.0597
3195.79	54.6694
3195.19	58.8658
3194.6	46.2447
3194	50.4412
3193.41	71.4475
3192.81	63.0324
3192.22	37.8137
3191.62	71.4151
3191.03	33.602
3190.43	62.9943
3189.84	46.1888
3189.24	54.5785
3188.65	88.152
3188.05	54.562
3187.45	46.1609
3186.86	67.133
3186.26	46.1469
3185.67	54.529
3185.07	50.3269
3184.47	71.2856
3183.88	41.9264
3183.28	54.496
3182.69	37.7223
3182.09	33.5259
3181.49	58.6614
3180.9	33.5157
3180.3	67.0213
3179.7	20.941
3179.1	33.5005
3178.51	79.5516
3177.91	41.8629
3177.31	41.8566
3176.72	33.4802
3176.12	66.9503
3175.52	50.2051
3174.92	54.3806
3174.33	46.0074
3173.73	50.1823
3173.13	41.8123
3172.53	45.9865
3171.93	83.5992
3171.34	54.3312
3170.74	45.9656
3170.14	79.3832
3169.54	83.5486
3168.94	62.6519
3168.34	58.4663
3167.74	45.9308
3167.15	41.749
3166.55	33.3941
3165.95	54.2572
3165.35	66.768
3164.75	54.2408
3164.15	54.2325
3163.55	54.2243
3162.95	58.3866
3162.35	41.6984
3161.75	37.5229
3161.15	45.8543
3160.55	37.5115
3159.95	50.0077
3159.35	50.0001
3158.75	54.1586
3158.15	62.4812
3157.55	33.3183
3156.95	16.6566
3156.35	58.2893
3155.75	58.2804
3155.15	45.7848
3154.55	33.293
3153.95	49.9319
3153.35	58.2451
3152.75	49.9168
3152.15	16.6364
3151.54	54.0601
3150.94	45.7362
3150.34	45.7293
3149.74	45.7224
3149.14	58.1833
3148.54	70.6404
3147.94	24.9281
3147.33	41.5406
3146.73	33.2274
3146.13	37.3752
3145.53	12.4565
3144.93	74.7276
3144.32	37.3581
3143.72	37.3525
3143.12	66.3943
3142.52	66.3842
3141.91	87.1161
3141.31	70.5118
3140.71	41.4712
3140.1	58.0509
3139.5	20.7293
3138.9	45.5976
3138.29	37.3015
3137.69	41.4398
3137.09	66.2936
3136.48	37.2845
3135.88	41.4209
3135.28	70.4048
3134.67	62.1125
3134.07	74.5236
3133.47	45.5353
3132.86	82.7789
3132.26	37.2448
3131.65	62.0653
3131.05	45.5076
3130.45	45.5007
3129.84	49.6296
3129.24	53.7572
3128.63	57.8836
3128.03	53.7409
3127.42	57.866
3126.82	53.7246
3126.21	66.1125
3125.61	61.971
3125	74.3539
3124.4	82.6029
3123.79	41.2952
3123.19	53.6756
3122.58	41.2826
3121.97	74.2974
3121.37	61.9051
3120.76	37.1374
3120.16	61.8863
3119.55	61.8769
3118.94	41.245
3118.34	53.6103
3117.73	45.3557
3117.13	65.9618
3116.52	41.2199
3115.91	49.4563
3115.31	49.4488
3114.7	53.5614
3114.09	61.7922
3113.48	32.9508
3112.88	49.4187
3112.27	90.5872
3111.66	41.1697
3111.06	45.2798
3110.45	78.1987
3109.84	53.4962
3109.23	65.8315
3108.63	86.3907
3108.02	41.1321
3107.41	61.6888
3106.8	61.6794
3106.19	57.5587
3105.59	61.6607
3104.98	65.7614
3104.37	61.6419
3103.76	36.9795
3103.15	36.9739
3102.54	49.291
3101.93	41.0696
3101.33	45.1696
3100.72	61.5856
3100.11	32.8406
3099.5	53.3579
3098.89	49.246
3098.28	36.9288
3097.67	41.0258
3097.06	41.0195
3096.45	61.5199
3095.84	77.9134
3095.23	53.301
3094.62	65.5913
3094.01	24.593
3093.4	36.8838
3092.79	69.6589
3092.18	36.8726
3091.57	49.156
3090.96	65.5313
3090.35	53.2361
3089.74	57.3224
3089.13	69.5952
3088.52	81.8642
3087.91	90.0369
3087.3	49.1035
3086.69	16.3654
3086.08	65.4514
3085.46	61.3514
3084.85	44.9841
3084.24	73.5992
3083.63	32.7058
3083.02	77.6643
3082.41	49.0437
3081.79	69.4679
3081.18	65.3716
3080.57	44.9361
3079.96	49.0137
3079.35	49.0063
3078.73	53.082
3078.12	69.4044
3077.51	73.4758
3076.9	36.7323
3076.28	53.0496
3075.67	40.8012
3075.06	48.9539
3074.45	44.8676
3073.83	53.0173
3073.22	57.0868
3072.61	36.693
3071.99	52.993
3071.38	61.1364
3070.77	44.8265
3070.15	48.8942
3069.54	40.7389
3068.93	48.8793
3068.31	48.8718
3067.7	52.9364
3067.08	69.2139
3066.47	61.0618
3065.86	32.5613
3065.24	97.669
3064.63	73.2405
3064.01	61.0245
3063.4	52.8798
3062.78	65.0729
3062.17	40.6643
3061.55	40.6581
3060.94	69.1082
3060.32	85.356
3059.71	101.599
3059.09	69.0766
3058.48	48.7525
3057.86	69.0555
3057.25	44.6761
3056.63	85.2777
3056.02	64.9636
3055.4	52.7748
3054.78	56.8258
3054.17	81.1672
3053.55	40.5774
3052.94	85.1995
3052.32	52.7345
3051.7	64.8941
3051.09	44.6079
3050.47	68.9289
3049.85	68.9183
3049.24	60.801
3048.62	68.8973
3048	56.7302
3047.39	52.67
3046.77	60.7638
3046.15	56.7042
3045.53	64.7949
3044.92	52.6378
3044.3	85.0173
3043.68	64.7652
3043.06	56.6609
3042.45	72.8385
3041.83	44.5056
3041.21	68.7709
3040.59	84.9393
3039.97	84.9263
3039.35	56.6088
3038.74	121.286
3038.12	48.507
3037.5	48.4996
3036.88	84.8613
3036.26	48.4847
3035.64	56.5569
3035.02	76.744
3034.41	76.7323
3033.79	56.5309
3033.17	88.8207
3032.55	84.7704
3031.93	76.6853
3031.31	88.7799
3030.69	80.6966
3030.07	52.4448
3029.45	52.4367
3028.83	60.4946
3028.21	32.2589
3027.59	64.5079
3026.97	64.498
3026.35	40.3051
3025.73	44.3288
3025.11	40.2927
3024.49	68.4871
3023.87	76.5327
3023.25	88.6032
3022.63	60.402
3022	64.4189
3021.38	92.588
3020.76	92.5739
3020.14	56.3407
3019.52	84.498
3018.9	84.4851
3018.28	88.4946
3017.66	88.4811
3017.03	84.4462
3016.41	92.4746
3015.79	72.3603
3015.17	68.3298
3014.55	76.3569
3013.92	80.3633
3013.3	80.351
3012.68	52.2202
3012.06	92.3753
3011.43	108.424
3010.81	84.3168
3010.19	100.362
3009.57	84.2909
3008.94	108.357
3008.32	84.2651
3007.7	96.2882
3007.07	72.2051
3006.45	44.1185
3005.83	92.2337
3005.2	80.1909
3004.58	88.1965
3003.96	108.224
3003.33	76.1463
3002.71	88.1559
3002.08	120.194
3001.46	100.146
3000.84	72.0943
3000.21	92.1064
2999.59	116.116
2998.96	72.0611
2998.34	80.0556
2997.71	76.0411
2997.09	148.057
2996.46	68.0159
2995.84	108.009
2995.21	107.992
2994.59	115.974
2993.96	111.957
2993.34	131.93
2992.71	103.929
2992.09	159.865
2991.46	139.861
2990.84	99.8852
2990.21	119.844
2989.58	123.82
2988.96	115.813
2988.33	159.718
2987.71	107.793
2987.08	131.727
2986.45	127.716
2985.83	163.61
2985.2	179.545
2984.57	147.603
2983.95	191.456
2983.32	143.57
2982.69	171.46
2982.07	163.46
2981.44	167.421
2980.81	139.496
2980.18	207.219
2979.56	223.125
2978.93	191.22
2978.3	199.157
2977.67	230.987
2977.05	234.933
2976.42	242.86
2975.79	230.88
2975.16	199.004
2974.53	290.501
2973.91	310.351
2973.28	290.412
2972.65	346.054
2972.02	330.093
2971.39	341.971
2970.76	361.797
2970.13	405.469
2969.5	421.305
2968.88	484.823
2968.25	528.455
2967.62	500.565
2966.99	524.321
2966.36	579.841
2965.73	591.664
2965.1	591.573
2964.47	662.937
2963.84	642.989
2963.21	654.795
2962.58	745.955
2961.95	809.316
2961.32	832.991
2960.69	856.659
2960.06	820.838
2959.43	840.536
2958.8	880.048
2958.17	935.403
2957.53	923.37
2956.9	907.378
2956.27	907.238
2955.64	891.254
2955.01	930.722
2954.38	906.819
2953.75	878.964
2953.12	878.829
2952.48	902.442
2951.85	1009.15
2951.22	989.214
2950.59	1084.01
2949.96	1103.62
2949.33	1103.45
2948.69	1020.24
2948.06	1107.07
2947.43	1015.97
2946.8	1007.91
2946.16	837.82
2945.53	806.08
2944.9	786.202
2944.26	742.629
2943.63	742.514
2943	706.859
2942.37	690.957
2941.73	679.007
2941.1	619.696
2940.47	552.51
2939.83	658.964
2939.2	599.683
2938.56	635.092
2937.93	705.987
2937.3	686.161
2936.66	693.941
2936.03	693.834
2935.39	709.493
2934.76	760.617
2934.13	744.738
2933.49	858.878
2932.86	807.535
2932.22	890.121
2931.59	921.488
2930.95	1039.47
2930.32	1035.37
2929.68	1098.19
2929.05	1149.18
2928.41	1145.07
2927.78	1211.78
2927.14	1199.79
2926.5	1321.53
2925.87	1305.59
2925.23	1446.94
2924.6	1442.79
2923.96	1529.04
2923.32	1403.04
2922.69	1536.43
2922.05	1496.9
2921.42	1484.88
2920.78	1496.44
2920.14	1515.84
2919.51	1527.39
2918.87	1440.78
2918.23	1499.44
2917.6	1408.94
2916.96	1483.28
2916.32	1428.12
2915.68	1553.43
2915.05	1439.45
2914.41	1494.13
2913.77	1458.61
2913.13	1387.81
2912.5	1477.75
2911.86	1524.56
2911.22	1492.97
2910.58	1488.82
2909.94	1602.2
2909.31	1637.2
2908.67	1629.11
2908.03	1687.59
2907.39	1734.31
2906.75	1792.76
2906.11	1874.67
2905.47	2085.69
2904.83	1948.43
2904.2	2131.98
2903.56	2139.48
2902.92	2291.66
2902.28	2283.49
2901.64	2236.22
2901	2263.24
2900.36	2153.46
2899.72	2227.37
2899.08	2082.46
2898.44	2234.49
2897.8	2269.3
2897.16	2132.26
2896.52	2057.75
2895.88	2002.77
2895.24	2092.24
2894.6	1986.54
2893.96	2052.57
2893.32	2048.35
2892.67	1915.4
2892.03	2129.62
2891.39	2285.29
2890.75	2210.85
2890.11	2206.61
2889.47	2358.29
2888.83	2416.38
2888.19	2373.14
2887.54	2474.08
2886.9	2493.17
2886.26	2625.21
2885.62	2632.6
2884.98	2850.24
2884.33	2826.44
2883.69	2919.42
2883.05	3074.65
2882.41	3109.19
2881.77	3209.87
2881.12	3403.88
2880.48	3601.72
2879.84	3620.61
2879.19	3573.39
2878.55	3518.4
2877.91	3498.42
2877.26	3431.81
2876.62	2972.74
2875.98	2952.85
2875.33	2944.62
2874.69	2827.64
2874.05	2652.45
2873.4	2496.72
2872.76	2383.74
2872.11	2391.14
2871.47	2398.53
2870.83	2398.16
2870.18	2355.1
2869.54	2350.86
2868.89	2494.01
2868.25	2346.25
2867.6	2431.19
2866.96	2446.32
2866.31	2577.74
2865.67	2437.81
2865.02	2441.31
2864.38	2522.3
2863.73	2603.26
2863.09	2405.31
2862.44	2257.78
2861.8	2389.08
2861.15	2106.09
2860.5	2086.41
2859.86	1877.09
2859.21	1884.54
2858.57	1675.31
2857.92	1613.16
2857.27	1566.49
2856.63	1485.04
2855.98	1446.14
2855.33	1449.78
2854.69	1387.71
2854.04	1402.95
2853.39	1344.77
2852.75	1387.06
2852.1	1394.57
2851.45	1405.94
2850.81	1479.1
2850.16	1502.04
2849.51	1524.97
2848.86	1621.23
2848.21	1601.68
2847.57	1744.21
2846.92	1840.4
2846.27	1762.96
2845.62	1905.4
2844.97	2036.22
2844.33	2055.19
2843.68	1997.04
2843.03	2027.56
2842.38	2058.08
2841.73	2242.73
2841.08	2161.47
2840.43	2107.2
2839.78	2199.31
2839.14	2349.16
2838.49	2137.02
2837.84	2113.59
2837.19	2205.64
2836.54	2051.35
2835.89	1977.92
2835.24	1900.66
2834.59	1673.4
2833.94	1669.29
2833.29	1530.59
2832.64	1411.15
2831.99	1257.15
2831.34	1183.92
2830.69	1030.01
2830.04	922.251
2829.39	826.054
2828.74	737.571
2828.08	722.092
2827.43	633.653
2826.78	537.561
2826.13	579.708
2825.48	426.076
2824.83	460.551
2824.18	429.781
2823.53	399.02
2822.87	418.139
2822.22	383.554
2821.57	371.989
2820.92	325.919
2820.27	322.035
2819.61	344.983
2818.96	295.107
2818.31	287.397
2817.66	283.521
2817	287.307
2816.35	264.281
2815.7	271.899
2815.05	268.028
2814.39	241.188
2813.74	256.461
2813.09	252.594
2812.43	260.208
2811.78	202.777
2811.13	214.222
2810.47	206.539
2809.82	252.397
2809.16	198.827
2808.51	175.858
2807.86	179.653
2807.2	183.447
2806.55	213.988
2805.89	221.596
2805.24	168.081
2804.58	179.513
2803.93	190.942
2803.28	141.275
2802.62	190.882
2801.97	148.865
2801.31	187.006
2800.66	209.872
2800	179.318
2799.34	171.66
2798.69	152.563
2798.03	198.301
2797.38	114.387
2796.72	163.929
2796.07	160.091
2795.41	167.688
2794.75	133.368
2794.1	163.826
2793.44	144.754
2792.79	99.0268
2792.13	148.517
2791.47	159.916
2790.82	121.822
2790.16	148.447
2789.5	140.813
2788.84	114.155
2788.19	148.378
2787.53	148.355
2786.87	125.511
2786.22	121.689
2785.56	159.692
2784.9	159.667
2784.24	155.841
2783.59	155.817
2782.93	155.792
2782.27	140.571
2781.61	186.133
2780.95	170.911
2780.29	151.898
2779.64	159.467
2778.98	117.684
2778.32	125.257
2777.66	170.778
2777	129.012
2776.34	136.58
2775.68	121.385
2775.02	125.159
2774.36	170.645
2773.71	185.784
2773.05	147.846
2772.39	132.661
2771.73	136.43
2771.07	147.776
2770.41	113.656
2769.75	147.73
2769.09	147.707
2768.43	140.11
2767.77	124.944
2767.11	109.782
2766.45	155.185
2765.79	124.885
2765.12	140.001
2764.46	147.545
2763.8	174.001
2763.14	151.281
2762.48	136.132
2761.82	139.891
2761.16	166.331
2760.5	139.848
2759.83	181.396
2759.17	162.475
2758.51	158.671
2757.85	158.647
2757.19	151.068
2756.53	185.03
2755.86	154.797
2755.2	184.972
2754.54	192.492
2753.88	233.973
2753.21	184.885
2752.55	188.629
2751.89	113.159
2751.23	199.884
2750.56	199.852
2749.9	207.362
2749.24	245.025
2748.57	222.373
2747.91	199.727
2747.25	180.857
2746.58	207.199
2745.92	222.233
2745.25	207.134
2744.59	218.398
2743.93	207.069
2743.26	203.273
2742.6	240.878
2741.93	255.893
2741.27	221.99
2740.61	233.241
2739.94	191.829
2739.28	282.058
2738.61	229.371
2737.95	266.931
2737.28	259.371
2736.62	270.606
2735.95	285.595
2735.29	274.278
2734.62	311.802
2733.95	262.924
2733.29	255.372
2732.62	259.087
2731.96	289.08
2731.29	285.281
2730.62	281.483
2729.96	371.5
2729.29	341.426
2728.63	408.897
2727.96	348.82
2727.29	412.519
2726.63	401.205
2725.96	404.891
2725.29	464.802
2724.62	442.242
2723.96	513.37
2723.29	509.543
2722.62	494.479
2721.96	490.656
2721.29	509.303
2720.62	542.922
2719.95	569.042
2719.28	527.779
2718.62	557.636
2717.95	546.323
2717.28	501.341
2716.61	490.04
2715.94	471.262
2715.27	459.969
2714.61	426.246
2713.94	407.487
2713.27	459.752
2712.6	407.359
2711.93	384.875
2711.26	384.815
2710.59	343.664
2709.92	351.08
2709.25	384.633
2708.58	392.04
2707.91	343.448
2707.24	313.534
2706.57	328.412
2705.9	347.017
2705.23	313.386
2704.56	317.067
2703.89	324.476
2703.22	316.967
2702.55	309.46
2701.88	246.038
2701.21	253.454
2700.54	286.954
2699.87	272.005
2699.2	204.903
2698.53	189.971
2697.86	227.185
2697.19	212.254
2696.51	212.22
2695.84	212.187
2695.17	208.432
2694.5	249.334
2693.83	241.854
2693.15	197.173
2692.48	204.581
2691.81	189.672
2691.14	189.643
2690.47	185.895
2689.79	159.844
2689.12	204.42
2688.45	219.252
2687.77	189.493
2687.1	204.324
2686.43	182.005
2685.76	163.407
2685.08	204.227
2684.41	174.494
2683.74	189.315
2683.06	178.15
2682.39	170.701
2681.71	181.805
2681.04	196.615
2680.37	170.62
2679.69	174.302
2679.02	166.858
2678.34	192.784
2677.67	207.58
2676.99	192.723
2676.32	196.398
2675.65	166.727
2674.97	166.701
2674.3	192.601
2673.62	151.835
2672.95	218.46
2672.27	185.106
2671.59	185.077
2670.92	162.842
2670.24	166.517
2669.57	170.19
2668.89	188.66
2668.22	173.835
2667.54	173.808
2666.86	158.991
2666.19	195.934
2665.51	188.511
2664.83	170.003
2664.16	188.451
2663.48	173.644
2662.8	147.758
2662.13	188.362
2661.45	221.568
2660.77	210.456
2660.1	221.498
2659.42	214.081
2658.74	199.285
2658.06	199.254
2657.39	177.086
2656.71	202.88
2656.03	191.783
2655.35	184.378
2654.68	195.41
2654	195.379
2653.32	239.578
2652.64	224.799
2651.96	221.079
2651.28	224.728
2650.6	184.174
2649.93	198.877
2649.25	198.845
2648.57	209.859
2647.89	224.551
2647.21	202.432
2646.53	198.72
2645.85	198.688
2645.17	183.942
2644.49	205.982
2643.81	194.917
2643.13	220.625
2642.45	220.591
2641.77	161.741
2641.09	205.82
2640.41	161.69
2639.73	157.99
2639.05	165.312
2638.37	161.613
2637.69	165.26
2637.01	176.25
2636.33	168.879
2635.65	121.133
2634.96	146.805
2634.28	121.095
2633.6	201.793
2632.92	157.741
2632.24	150.38
2631.56	143.022
2630.88	150.332
2630.19	146.643
2629.51	146.619
2628.83	150.261
2628.15	128.251
2627.46	113.576
2626.78	153.853
2626.1	131.853
2625.42	164.79
2624.73	197.717
2624.05	150.095
2623.37	172.033
2622.69	153.707
2622	131.728
2621.32	142.683
2620.64	124.371
2619.95	142.638
2619.27	160.899
2618.58	157.217
2617.9	146.226
2617.22	149.858
2616.53	146.179
2615.85	135.195
2615.16	127.866
2614.48	149.763
2613.79	189.913
2613.11	193.534
2612.43	171.598
2611.74	131.416
2611.06	175.193
2610.37	138.673
2609.69	135.002
2609	149.573
2608.31	138.607
2607.63	138.585
2606.94	131.27
2606.26	113.02
2605.57	127.583
2604.89	138.497
2604.2	160.34
2603.51	112.949
2602.83	149.36
2602.14	123.84
2601.45	142.029
2600.77	134.724
2600.08	145.625
2599.39	141.962
2598.71	160.136
2598.02	163.75
2597.33	141.894
2596.65	174.611
2595.96	152.761
2595.27	167.283
2594.58	145.44
2593.9	149.053
2593.21	141.759
2592.52	167.177
2591.83	159.883
2591.14	148.958
2590.46	141.669
2589.77	159.807
2589.08	145.256
2588.39	137.971
2587.7	141.579
2587.01	174.224
2586.32	148.793
2585.64	163.283
2584.95	181.397
2584.26	163.231
2583.57	152.325
2582.88	184.937
2582.19	119.646
2581.5	119.627
2580.81	163.102
2580.12	137.709
2579.43	123.193
2578.74	115.928
2578.05	101.421
2577.36	119.513
2576.67	155.704
2575.98	148.439
2575.29	137.556
2574.6	112.199
2573.91	133.893
2573.22	126.636
2572.52	112.145
2571.83	126.595
2571.14	137.425
2570.45	141.019
2569.76	133.766
2569.07	155.433
2568.38	140.951
2567.68	144.543
2566.99	122.842
2566.3	111.985
2565.61	97.5197
2564.92	101.115
2564.22	115.542
2563.53	108.304
2562.84	115.505
2562.14	111.878
2561.45	122.686
2560.76	97.4113
2560.07	119.039
2559.37	111.807
2558.68	137.032
2557.99	100.955
2557.29	122.569
2556.6	126.153
2555.91	115.322
2555.21	90.0809
2554.52	90.0666
2553.82	118.869
2553.13	72.0304
2552.44	97.2255
2551.74	126.013
2551.05	97.1946
2550.35	115.175
2549.66	100.762
2548.96	115.139
2548.27	104.328
2547.57	86.3265
2546.88	107.891
2546.18	97.0864
2545.49	107.857
2544.79	122.218
2544.1	122.199
2543.4	100.618
2542.7	97.0091
2542.01	132.917
2541.31	104.162
2540.62	114.919
2539.92	114.901
2539.22	114.882
2538.53	93.327
2537.83	82.5453
2537.13	107.651
2536.44	121.985
2535.74	96.8547
2535.04	104.013
2534.35	93.2378
2533.65	114.736
2532.95	114.718
2532.25	111.115
2531.56	136.184
2530.86	93.1635
2530.16	85.9834
2529.46	85.9697
2528.76	93.119
2528.07	85.9423
2527.37	100.25
2526.67	107.394
2525.97	132.431
2525.27	132.41
2524.57	103.764
2523.88	114.48
2523.18	93.0003
2522.48	103.715
2521.78	110.85
2521.08	153.735
2520.38	103.665
2519.68	132.241
2518.98	103.632
2518.28	117.907
2517.58	92.8817
2516.88	110.726
2516.18	103.566
2515.48	132.115
2514.78	103.533
2514.08	117.794
2513.38	85.6549
2512.68	114.188
2511.98	114.17
2511.28	110.585
2510.58	96.3003
2509.88	82.0205
2509.17	92.704
2508.47	103.384
2507.77	103.368
2507.07	99.7873
2506.37	121.151
2505.67	106.881
2504.97	89.0531
2504.26	74.7927
2503.56	106.83
2502.86	131.735
2502.16	103.236
2501.45	131.693
2500.75	67.6155
2500.05	103.186
2499.35	99.6121
2498.64	99.5962
2497.94	74.6852
2497.24	85.3409
2496.53	88.8825
2495.83	85.3136
2495.13	127.95
2494.42	117.269
2493.72	113.697
2493.02	92.364
2492.31	88.7973
2491.61	81.6805
2490.9	113.624
2490.2	124.257
2489.5	110.038
2488.79	92.2754
2488.09	88.7122
2487.38	92.2459
2486.68	99.3259
2485.97	78.0293
2485.27	113.479
2484.56	99.2782
2483.86	95.7173
2483.15	113.425
2482.45	88.5988
2481.74	85.0412
2481.04	99.1989
2480.33	113.352
2479.62	99.1671
2478.92	84.9868
2478.21	131
2477.51	123.899
2476.8	95.5642
2476.09	120.321
2475.39	127.378
2474.68	106.131
2473.97	102.577
2473.27	120.244
2472.56	91.9365
2471.85	113.134
2471.14	81.3024
2470.44	95.4266
2469.73	81.2763
2469.02	116.595
2468.31	88.3155
2467.61	88.3014
2466.9	98.8817
2466.19	88.2731
2465.48	105.911
2464.77	95.3044
2464.07	105.877
2463.36	105.86
2462.65	84.6743
2461.94	109.353
2461.23	81.1202
2460.52	95.2128
2459.81	116.353
2459.1	116.334
2458.4	130.414
2457.69	98.676
2456.98	137.419
2456.27	130.351
2455.56	116.241
2454.85	98.6127
2454.14	102.118
2453.43	126.747
2452.72	112.646
2452.01	130.226
2451.3	105.572
2450.59	112.592
2449.88	102.02
2449.16	91.4515
2448.45	112.538
2447.74	112.52
2447.03	144.143
2446.32	123.029
2445.61	119.495
2444.9	98.3915
2444.19	108.916
2443.47	101.873
2442.76	112.393
2442.05	119.399
2441.34	119.38
2440.63	122.871
2439.91	112.321
2439.2	150.907
2438.49	108.776
2437.78	129.809
2437.06	136.804
2436.35	126.26
2435.64	122.733
2434.93	129.725
2434.21	112.177
2433.5	126.179
2432.79	105.132
2432.07	143.658
2431.36	143.634
2430.64	122.595
2429.93	161.099
2429.22	112.051
2428.5	143.542
2427.79	108.514
2427.07	118.997
2426.36	111.979
2425.65	129.455
2424.93	146.925
2424.22	115.423
2423.5	150.375
2422.79	136.365
2422.07	83.9032
2421.36	104.862
2420.64	97.8556
2419.92	80.3685
2419.21	146.736
2418.49	146.713
2417.78	146.689
2417.06	136.189
2416.35	132.676
2415.63	104.727
2414.91	108.201
2414.2	104.694
2413.48	129.101
2412.76	90.7053
2412.05	101.155
2411.33	101.139
2410.61	115.07
2409.9	135.97
2409.18	125.491
2408.46	142.897
2407.74	128.935
2407.03	101.041
2406.31	101.025
2405.59	139.322
2404.87	94.0274
2404.16	139.277
2403.44	121.848
2402.72	125.309
2402	100.927
2401.28	114.83
2400.56	139.165
2399.85	104.357
2399.13	125.208
2398.41	125.188
2397.69	100.83
2396.97	97.3373
2396.25	104.273
2395.53	114.682
2394.81	128.562
2394.09	132.016
2393.37	90.3119
2392.65	100.716
2391.93	97.2276
2391.21	124.987
2390.49	131.909
2389.77	152.712
2389.05	131.867
2388.33	93.6797
2387.61	117.948
2386.89	97.118
2386.17	117.91
2385.45	100.554
2384.73	124.806
2384	114.387
2383.28	79.7112
2382.56	97.0241
2381.84	131.654
2381.12	107.385
2380.4	117.758
2379.67	138.516
2378.95	107.333
2378.23	110.777
2377.51	96.9146
2376.79	124.584
2376.06	103.804
2375.34	121.085
2374.62	110.688
2373.9	107.212
2373.17	110.652
2372.45	89.8905
2371.73	114.073
2371	86.4053
2370.28	79.4801
2369.56	127.839
2368.83	110.545
2368.11	120.889
2367.38	141.59
2366.66	117.397
2365.94	120.831
2365.21	107.004
2364.49	134.597
2363.76	141.476
2363.04	117.303
2362.31	110.385
2361.59	117.265
2360.86	168.972
2360.14	113.779
2359.41	172.365
2358.69	127.529
2357.96	106.832
2357.24	86.1406
2356.51	110.242
2355.79	99.8908
2355.06	120.538
2354.33	117.076
2353.61	113.614
2352.88	127.365
2352.15	137.669
2351.43	134.206
2350.7	141.065
2349.98	141.042
2349.25	113.504
2348.52	116.924
2347.79	130.659
2347.07	158.14
2346.34	137.491
2345.61	134.032
2344.88	123.702
2344.16	116.811
2343.43	123.662
2342.7	123.642
2341.97	123.622
2341.25	127.035
2340.52	130.448
2339.79	140.723
2339.06	109.815
2338.33	126.953
2337.6	109.78
2336.87	126.912
2336.14	116.603
2335.42	168.018
2334.69	143.992
2333.96	161.108
2333.23	119.955
2332.5	109.655
2331.77	113.064
2331.04	143.876
2330.31	119.877
2329.58	119.858
2328.85	133.534
2328.12	119.819
2327.39	116.377
2326.66	143.736
2325.93	147.135
2325.2	140.268
2324.47	167.611
2323.73	112.862
2323	143.62
2322.27	136.759
2321.54	105.971
2320.81	133.296
2320.08	133.275
2319.35	150.337
2318.61	126.399
2317.88	143.457
2317.15	143.434
2316.42	157.069
2315.69	177.527
2314.95	95.576
2314.22	122.864
2313.49	102.37
2312.76	139.883
2312.02	126.215
2311.29	112.552
2310.56	122.764
2309.82	167.068
2309.09	122.724
2308.36	139.746
2307.62	115.869
2306.89	143.108
2306.16	143.085
2305.42	146.468
2304.69	139.633
2303.95	153.231
2303.22	119.16
2302.48	119.141
2301.75	125.929
2301.02	146.326
2300.28	125.888
2299.55	136.073
2298.81	142.853
2298.08	153.032
2297.34	122.406
2296.6	118.986
2295.87	125.765
2295.13	91.7597
2294.4	122.326
2293.66	152.883
2292.93	139.271
2292.19	146.041
2291.45	91.6852
2290.72	91.6703
2289.98	125.602
2289.24	149.34
2288.51	115.38
2287.77	95.0038
2287.03	111.951
2286.3	108.54
2285.56	132.262
2284.82	105.114
2284.08	142.39
2283.35	122.029
2282.61	155.9
2281.87	142.321
2281.13	132.133
2280.4	169.374
2279.66	128.703
2278.92	149.001
2278.18	121.89
2277.44	121.87
2276.7	115.081
2275.97	152.288
2275.23	135.345
2274.49	111.642
2273.75	145.449
2273.01	169.099
2272.27	142.02
2271.53	165.663
2270.79	165.636
2270.05	125.052
2269.31	128.411
2268.57	141.904
2267.83	165.528
2267.09	141.858
2266.35	158.72
2265.61	148.565
2264.87	178.924
2264.13	141.766
2263.39	141.743
2262.65	145.094
2261.91	151.818
2261.17	131.554
2260.42	155.141
2259.68	161.86
2258.94	151.719
2258.2	195.517
2257.46	144.929
2256.72	151.645
2255.97	121.296
2255.23	131.383
2254.49	117.888
2253.75	144.811
2253	151.522
2252.26	158.23
2251.52	161.57
2250.78	131.254
2250.03	124.503
2249.29	141.305
2248.55	158.101
2247.8	137.896
2247.06	127.785
2246.32	151.299
2245.57	107.573
2244.83	127.722
2244.09	137.783
2243.34	151.201
2242.6	171.333
2241.85	137.716
2241.11	130.977
2240.36	137.671
2239.62	164.507
2238.88	157.766
2238.13	161.097
2237.39	134.225
2236.64	127.493
2235.89	130.827
2235.15	130.806
2234.4	117.371
2233.66	120.704
2232.91	127.389
2232.17	127.369
2231.42	130.699
2230.67	127.327
2229.93	157.458
2229.18	140.684
2228.44	120.567
2227.69	174.123
2226.94	143.963
2226.2	140.592
2225.45	130.529
2224.7	130.507
2223.95	150.561
2223.21	123.774
2222.46	113.72
2221.71	140.454
2220.96	143.775
2220.22	130.379
2219.47	116.988
2218.72	130.337
2217.97	153.706
2217.22	120.272
2216.48	140.294
2215.73	133.591
2214.98	143.587
2214.23	133.548
2213.48	146.879
2212.73	150.192
2211.98	113.46
2211.23	143.47
2210.48	133.439
2209.73	150.094
2208.98	143.4
2208.23	106.699
2207.48	140.019
2206.73	96.664
2205.98	109.979
2205.23	99.9646
2204.48	169.912
2203.73	129.911
2202.98	116.568
2202.23	123.209
2201.48	109.871
2200.73	146.471
2199.98	139.79
2199.23	133.112
2198.48	143.072
2197.72	143.048
2196.97	146.351
2196.22	113.071
2195.47	126.353
2194.72	169.551
2193.97	136.283
2193.21	122.967
2192.46	109.656
2191.71	136.216
2190.96	119.585
2190.2	142.814
2189.45	116.225
2188.7	109.566
2187.94	139.425
2187.19	159.316
2186.44	116.149
2185.68	142.674
2184.93	162.555
2184.18	149.261
2183.42	149.237
2182.67	142.581
2181.91	152.503
2181.16	129.275
2180.41	159.082
2179.65	145.801
2178.9	145.777
2178.14	145.753
2177.39	188.786
2176.63	162.263
2175.88	155.614
2175.12	172.141
2174.37	142.324
2173.61	145.61
2172.86	115.807
2172.1	155.487
2171.34	152.154
2170.59	152.129
2169.83	148.797
2169.08	115.712
2168.32	132.221
2167.56	138.809
2166.81	132.177
2166.05	138.763
2165.29	155.257
2164.54	132.112
2163.78	128.788
2163.02	138.672
2162.27	135.348
2161.51	132.026
2160.75	155.105
2159.99	108.885
2159.23	102.269
2158.48	138.536
2157.72	122.024
2156.96	122.003
2156.2	125.28
2155.44	131.852
2154.69	141.718
2153.93	144.99
2153.17	174.618
2152.41	161.413
2151.65	164.68
2150.89	148.188
2150.13	144.871
2149.37	128.387
2148.61	118.492
2147.85	111.891
2147.09	148.066
2146.33	118.433
2145.57	148.018
2144.81	141.416
2144.05	144.681
2143.29	147.945
2142.53	128.198
2141.77	151.183
2141.01	118.297
2140.25	128.134
2139.49	137.968
2138.73	151.083
2137.97	108.368
2137.2	128.05
2136.44	157.574
2135.68	141.137
2134.92	137.832
2134.16	164.059
2133.4	180.435
2132.63	118.084
2131.87	134.462
2131.11	131.161
2130.35	134.418
2129.58	104.894
2128.82	134.373
2128.06	140.905
2127.29	160.54
2126.53	150.686
2125.77	157.212
2125	167.01
2124.24	163.708
2123.48	144.04
2122.71	147.289
2121.95	147.265
2121.19	163.601
2120.42	147.216
2119.66	150.463
2118.89	150.438
2118.13	127.524
2117.36	137.311
2116.6	156.901
2115.83	127.461
2115.07	163.385
2114.3	166.625
2113.54	169.865
2112.77	137.176
2112.01	146.95
2111.24	146.926
2110.48	150.166
2109.71	137.085
2108.94	159.907
2108.18	137.04
2107.41	172.903
2106.64	130.471
2105.88	176.107
2105.11	146.732
2104.34	146.708
2103.58	159.722
2102.81	192.287
2102.04	195.514
2101.28	201.998
2100.51	149.844
2099.74	120.507
2098.97	156.308
2098.21	146.514
2097.44	156.256
2096.67	139.957
2095.9	159.459
2095.13	143.164
2094.36	139.887
2093.6	130.106
2092.83	172.362
2092.06	165.831
2091.29	201.565
2090.52	185.279
2089.75	181.999
2088.98	159.222
2088.21	159.196
2087.44	133.183
2086.67	139.657
2085.9	159.117
2085.13	155.844
2084.36	133.095
2083.59	172.021
2082.82	162.257
2082.05	129.785
2081.28	168.692
2080.51	142.716
2079.74	129.72
2078.97	129.699
2078.2	129.677
2077.43	165.311
2076.65	132.875
2075.88	145.815
2075.11	126.352
2074.34	158.724
2073.57	165.175
2072.8	126.289
2072.02	132.744
2071.25	145.67
2070.48	161.829
2069.71	161.802
2068.93	116.478
2068.16	145.574
2067.39	139.081
2066.61	126.122
2065.84	135.802
2065.07	126.081
2064.29	158.383
2063.52	174.516
2062.75	168.024
2061.97	190.611
2061.2	158.278
2060.43	158.252
2059.65	119.477
2058.88	190.485
2058.1	171.086
2057.33	193.65
2056.55	161.348
2055.78	190.359
2055	180.65
2054.23	164.493
2053.45	158.016
2052.68	174.112
2051.9	174.083
2051.13	177.277
2050.35	170.803
2049.57	167.552
2048.8	190.076
2048.02	157.833
2047.25	190.013
2046.47	161.001
2045.69	128.78
2044.92	173.824
2044.14	167.358
2043.36	135.151
2042.59	154.433
2041.81	183.359
2041.03	186.545
2040.25	170.435
2039.48	167.192
2038.7	167.164
2037.92	151.066
2037.14	154.254
2036.37	176.72
2035.59	173.479
2034.81	170.238
2034.03	170.21
2033.25	170.181
2032.47	189.416
2031.69	186.174
2030.92	176.515
2030.14	147.607
2029.36	160.415
2028.58	166.804
2027.8	147.533
2027.02	166.749
2026.24	185.958
2025.46	157.077
2024.68	205.127
2023.9	189.07
2023.12	211.467
2022.34	176.194
2021.56	179.367
2020.78	150.516
2020	150.491
2019.21	166.473
2018.43	169.646
2017.65	156.816
2016.87	172.789
2016.09	179.159
2015.31	217.514
2014.53	220.676
2013.74	239.826
2012.96	182.237
2012.18	182.207
2011.4	182.177
2010.62	178.951
2009.83	204.482
2009.05	182.086
2008.27	172.474
2007.49	182.026
2006.7	175.61
2005.92	191.542
2005.14	181.935
2004.35	178.713
2003.57	201.019
2002.79	210.557
2002	210.522
2001.22	207.297
2000.43	232.772
1999.65	216.793
1998.87	226.32
1998.08	188.037
1997.3	200.752
1996.51	197.533
1995.73	194.314
1994.94	197.467
1994.16	219.725
1993.37	178.298
1992.59	184.635
1991.8	136.862
1991.02	194.121
1990.23	184.543
1989.44	171.787
1988.66	225.831
1987.87	162.19
1987.09	213.037
1986.3	200.285
1985.51	216.145
1984.73	216.109
1983.94	209.718
1983.15	222.391
1982.37	196.942
1981.58	165.15
1980.79	174.649
1980	206.369
1979.22	209.509
1978.43	209.474
1977.64	190.399
1976.85	225.268
1976.06	183.991
1975.28	218.849
1974.49	206.128
1973.7	209.265
1972.91	228.251
1972.12	209.195
1971.33	193.315
1970.54	218.631
1969.76	224.93
1968.97	234.396
1968.18	224.856
1967.39	218.485
1966.6	227.947
1965.81	231.074
1965.02	231.035
1964.23	237.326
1963.44	240.45
1962.65	237.247
1961.86	246.695
1961.07	183.409
1960.28	246.613
1959.48	230.766
1958.69	230.728
1957.9	218.049
1957.11	249.608
1956.32	246.407
1955.53	259.001
1954.74	240.009
1953.94	221.024
1953.15	249.4
1952.36	249.358
1951.57	224.07
1950.78	227.188
1949.98	214.53
1949.19	220.803
1948.4	283.842
1947.61	223.883
1946.81	252.22
1946.02	255.33
1945.23	277.35
1944.43	226.884
1943.64	226.847
1942.85	270.91
1942.05	283.464
1941.26	267.671
1940.46	280.22
1939.67	324.246
1938.88	267.537
1938.08	267.492
1937.29	280.033
1936.49	286.278
1935.7	292.521
1934.9	289.328
1934.11	248.403
1933.31	311.238
1932.52	270.323
1931.72	260.849
1930.93	248.237
1930.13	279.613
1929.33	238.73
1928.54	263.816
1927.74	244.931
1926.95	263.728
1926.15	219.736
1925.35	260.501
1924.56	291.838
1923.76	294.926
1922.96	282.329
1922.17	294.828
1921.37	269.691
1920.57	279.052
1919.77	260.196
1918.98	304.034
1918.18	263.243
1917.38	285.132
1916.58	285.084
1915.78	263.111
1914.99	272.462
1914.19	288.073
1913.39	247.325
1912.59	313.018
1911.79	250.372
1910.99	262.847
1910.19	303.475
1909.39	294.04
1908.59	281.48
1907.8	340.847
1907	297.019
1906.2	287.591
1905.4	268.79
1904.6	299.994
1903.8	315.566
1903	293.646
1902.2	290.474
1901.39	306.039
1900.59	302.866
1899.79	299.693
1898.99	284.036
1898.19	321.438
1897.39	330.745
1896.59	280.774
1895.79	318.157
1894.99	302.511
1894.18	274.397
1893.38	321.115
1892.58	308.593
1891.78	308.541
1890.98	320.953
1890.17	299.091
1889.37	261.661
1888.57	317.678
1887.76	320.738
1886.96	367.386
1886.16	345.534
1885.36	301.903
1884.55	336.083
1883.75	286.245
1882.94	342.192
1882.14	329.693
1881.34	276.771
1880.53	295.38
1879.73	279.787
1878.92	310.822
1878.12	304.555
1877.32	295.182
1876.51	319.986
1875.71	323.038
1874.9	344.723
1874.1	313.615
1873.29	344.608
1872.49	279.365
1871.68	304.146
1870.87	328.919
1870.07	331.966
1869.26	307.095
1868.46	313.246
1867.65	306.992
1866.84	313.141
1866.04	350.287
1865.23	334.732
1864.42	297.489
1863.62	343.914
1862.81	350.052
1862	325.215
1861.2	334.45
1860.39	346.779
1859.58	321.955
1858.77	362.139
1857.96	358.983
1857.16	315.605
1856.35	337.207
1855.54	337.15
1854.73	337.094
1853.92	321.577
1853.12	330.797
1852.31	343.106
1851.5	333.777
1850.69	342.99
1849.88	346.022
1849.07	342.875
1848.26	352.083
1847.45	355.111
1846.64	410.625
1845.83	351.905
1845.02	358.019
1844.21	345.615
1843.4	370.24
1842.59	382.517
1841.78	370.115
1840.97	336.131
1840.16	360.741
1839.35	394.59
1838.54	397.606
1837.72	360.559
1836.91	369.741
1836.1	329.631
1835.29	308.014
1834.48	347.997
1833.67	344.86
1832.85	406.373
1832.04	400.149
1831.23	344.685
1830.42	369.244
1829.6	356.875
1828.79	353.739
1827.98	329.076
1827.17	338.245
1826.35	344.337
1825.54	365.797
1824.73	371.882
1823.91	368.746
1823.1	356.395
1822.29	377.838
1821.47	380.845
1820.66	359.285
1819.84	377.647
1819.03	353.025
1818.21	368.312
1817.4	386.662
1816.58	319.096
1815.77	408.006
1814.95	352.727
1814.14	352.668
1813.32	392.468
1812.51	358.68
1811.69	370.88
1810.88	404.528
1810.06	361.563
1809.25	346.184
1808.43	367.567
1807.61	361.38
1806.8	376.629
1805.98	379.627
1805.16	370.38
1804.35	361.136
1803.53	370.255
1802.71	379.371
1801.89	391.542
1801.08	379.243
1800.26	370.005
1799.44	369.943
1798.62	375.994
1797.81	394.268
1796.99	375.867
1796.17	369.693
1795.35	449.055
1794.53	390.948
1793.71	384.774
1792.9	363.337
1792.08	387.697
1791.26	390.684
1790.44	402.825
1789.62	390.552
1788.8	375.232
1787.98	344.668
1787.16	411.701
1786.34	378.091
1785.52	423.757
1784.7	408.445
1783.88	411.423
1783.06	347.365
1782.24	359.493
1781.42	344.202
1780.6	383.735
1779.78	389.76
1778.95	401.872
1778.13	362.233
1777.31	401.737
1776.49	398.626
1775.67	389.431
1774.85	352.862
1774.02	386.258
1773.2	370.988
1772.38	389.168
1771.56	407.341
1770.74	395.115
1769.91	437.591
1769.09	385.866
1768.27	376.687
1767.44	370.549
1766.62	428.185
1765.8	431.149
1764.97	428.04
1764.15	431.003
1763.33	421.826
1762.5	436.925
1761.68	409.548
1760.85	430.711
1760.03	451.867
1759.21	394.179
1758.38	421.397
1757.56	430.419
1756.73	424.285
1755.91	406.033
1755.08	433.23
1754.26	436.186
1753.43	427.026
1752.6	414.842
1751.78	414.771
1750.95	408.647
1750.13	390.419
1749.3	405.483
1748.47	423.567
1747.65	405.345
1746.82	447.619
1745.99	486.854
1745.17	477.701
1744.34	414.139
1743.51	420.114
1742.69	423.064
1741.86	395.8
1741.03	495.422
1740.2	440.971
1739.38	410.698
1738.55	395.532
1737.72	422.634
1736.89	467.837
1736.06	425.508
1735.23	383.194
1734.4	416.314
1733.58	422.276
1732.75	407.125
1731.92	485.452
1731.09	434.12
1730.26	446.103
1729.43	473.15
1728.6	485.123
1727.77	479.015
1726.94	433.751
1726.11	406.573
1725.28	436.615
1724.45	484.711
1723.62	475.598
1722.79	490.566
1721.96	430.3
1721.13	427.219
1720.3	445.195
1719.46	469.179
1718.63	463.086
1717.8	441.961
1716.97	477.958
1716.14	453.833
1715.31	450.751
1714.47	453.679
1713.64	450.598
1712.81	456.528
1711.98	459.454
1711.14	498.407
1710.31	441.286
1709.48	555.265
1708.65	537.165
1707.81	513.071
1706.98	506.983
1706.15	413.916
1705.31	464.827
1704.48	479.74
1703.64	473.662
1702.81	503.555
1701.98	515.457
1701.14	482.41
1700.31	479.332
1699.47	491.231
1698.64	503.127
1697.8	497.053
1696.97	508.943
1696.13	496.884
1695.3	583.589
1694.46	505.691
1693.63	478.679
1692.79	505.519
1691.95	427.674
1691.12	544.22
1690.28	508.251
1689.45	514.143
1688.61	517.044
1687.77	513.968
1686.94	531.806
1686.1	522.754
1685.26	501.758
1684.42	519.59
1683.59	468.745
1682.75	555.234
1681.91	495.447
1681.07	516.252
1680.24	507.213
1679.4	575.738
1678.56	504.057
1677.72	518.882
1676.88	506.867
1676.04	476.97
1675.21	456.025
1674.37	491.708
1673.53	515.46
1672.69	563.037
1671.85	524.22
1671.01	491.373
1670.17	497.244
1669.33	500.136
1668.49	520.886
1667.65	488.062
1666.81	544.512
1665.97	538.47
1665.13	461.042
1664.29	505.572
1663.45	499.539
1662.61	558.913
1661.77	520.176
1660.92	520.087
1660.08	570.512
1659.24	508.026
1658.4	501.998
1657.56	516.762
1656.72	537.46
1655.87	546.275
1655.03	546.181
1654.19	549.056
1653.35	560.832
1652.5	545.902
1651.66	510.212
1650.82	533.852
1649.98	569.345
1649.13	492.162
1648.29	533.578
1647.45	506.813
1646.6	571.919
1645.76	551.082
1644.91	577.648
1644.07	524.237
1643.23	482.69
1642.38	547.744
1641.54	503.247
1640.69	556.436
1639.85	568.178
1639	562.164
1638.16	562.068
1637.31	529.436
1636.47	520.474
1635.62	538.126
1634.78	481.865
1633.93	511.34
1633.08	514.208
1632.24	546.622
1631.39	546.528
1630.55	516.898
1629.7	581.78
1628.85	558.059
1628.01	498.919
1627.16	534.254
1626.31	543.016
1625.46	584.233
1624.62	510.379
1623.77	625.328
1622.92	454.17
1622.07	554.346
1621.23	512.978
1620.38	518.785
1619.53	527.538
1618.68	542.18
1617.83	583.333
1616.98	530.212
1616.13	491.835
1615.29	603.646
1614.44	550.549
1613.59	547.511
1612.74	556.246
1611.89	556.151
1611.04	579.593
1610.19	576.552
1609.34	564.689
1608.49	626.344
1607.64	567.435
1606.79	567.338
1605.94	531.972
1605.09	552.451
1604.24	525.913
1603.38	546.386
1602.53	566.852
1601.68	625.486
1600.83	572.53
1599.98	551.883
1599.13	581.138
1598.27	572.235
1597.42	551.599
1596.57	530.969
1595.72	554.343
1594.87	565.978
1594.01	551.22
1593.16	615.619
1592.31	545.169
1591.45	518.701
1590.6	524.472
1589.75	547.818
1588.89	550.653
1588.04	541.773
1587.19	544.608
1586.33	559.152
1585.48	529.786
1584.62	564.813
1583.77	570.568
1582.92	593.874
1582.06	541.123
1581.21	570.275
1580.35	564.329
1579.5	573.002
1578.64	549.52
1577.78	575.728
1576.93	599.005
1576.07	601.823
1575.22	517.012
1574.36	595.776
1573.51	586.914
1572.65	554.699
1571.79	542.927
1570.94	647.899
1570.08	574.838
1569.22	580.574
1568.37	574.641
1567.51	554.127
1566.65	562.779
1565.79	586.006
1564.94	612.14
1564.08	562.489
1563.22	591.532
1562.36	544.815
1561.5	562.199
1560.65	588.314
1559.79	602.773
1558.93	579.378
1558.07	614.21
1557.21	602.462
1556.35	567.439
1555.49	637.168
1554.63	578.88
1553.77	596.231
1552.91	575.773
1552.05	651.267
1551.19	616.272
1550.33	552.224
1549.47	610.248
1548.61	531.696
1547.75	601.323
1546.89	607.028
1546.03	577.884
1545.17	615.529
1544.31	563.17
1543.45	606.61
1542.58	618.113
1541.72	632.514
1540.86	623.702
1540	562.686
1539.14	626.387
1538.28	617.581
1537.41	591.384
1536.55	623.165
1535.69	631.752
1534.82	657.72
1533.96	640.225
1533.1	590.875
1532.24	640.004
1531.37	665.953
1530.51	665.838
1529.64	648.357
1528.78	570.108
1527.92	659.707
1527.05	642.235
1526.19	610.308
1525.32	621.77
1524.46	641.903
1523.59	685.157
1522.73	621.449
1521.86	644.461
1521	606.787
1520.13	687.573
1519.27	632.574
1518.4	603.585
1517.54	646.793
1516.67	649.568
1515.8	620.591
1514.94	626.256
1514.07	646.347
1513.21	637.58
1512.34	623.048
1511.47	608.52
1510.6	643.017
1509.74	686.151
1508.87	700.445
1508	622.51
1507.14	668.506
1506.27	665.51
1505.4	679.798
1504.53	645.12
1503.66	650.768
1502.8	644.897
1501.93	687.963
1501.06	610.138
1500.19	699.236
1499.32	681.853
1498.45	687.488
1497.58	658.609
1496.71	727.508
1495.84	736.007
1494.97	721.507
1494.1	784.611
1493.23	706.89
1492.36	703.895
1491.49	715.263
1490.62	700.78
1489.75	712.145
1488.88	723.506
1488.01	743.474
1487.14	769.176
1486.27	812.087
1485.4	737.351
1484.52	763.04
1483.65	823.138
1482.78	854.539
1481.91	860.125
1481.04	862.843
1480.17	859.827
1479.29	862.544
1478.42	865.26
1477.55	893.756
1476.67	1031.08
1475.8	1013.72
1474.93	1059.35
1474.06	1096.38
1473.18	1184.92
1472.31	1233.36
1471.43	1364.76
1470.56	1464.65
1469.69	1527.32
1468.81	1755.82
1467.94	1881.32
1467.06	1992.48
1466.19	2203.64
1465.31	2449.02
1464.44	2788.6
1463.56	3133.77
1462.69	3356.01
1461.81	3715.25
1460.94	4202.84
1460.06	4213.53
1459.19	4501.08
1458.31	4434.66
1457.43	4465.28
1456.56	4230.58
1455.68	3981.7
1454.8	3866.95
1453.93	3586.85
1453.05	3435.14
1452.17	3195.13
1451.3	3109.08
1450.42	2931.89
1449.54	2774.7
1448.66	2557.75
1447.78	2488.96
1446.91	2337.62
1446.03	2248.96
1445.15	2194.49
1444.27	2128.66
1443.39	2290.47
1442.51	2176.28
1441.64	2320.96
1440.76	2403.03
1439.88	2502.13
1439	2592.67
1438.12	2705.91
1437.24	2861.74
1436.36	2747.59
1435.48	2838.02
1434.6	2820.49
1433.72	2686.52
1432.84	2484.46
1431.96	2205.82
1431.08	1873.34
1430.2	1643.15
1429.31	1455.59
1428.43	1299.31
1427.55	1157.26
1426.67	1137.21
1425.79	1088.81
1424.91	1006.41
1424.02	1003.4
1423.14	980.551
1422.26	940.712
1421.38	985.876
1420.49	912.06
1419.61	1025.18
1418.73	1027.83
1417.85	1061.63
1416.96	1112.39
1416.08	1231.06
1415.2	1253.48
1414.31	1247.61
1413.43	1148.39
1412.54	1023.76
1411.66	885.027
1410.78	913.144
1409.89	873.413
1409.01	771.522
1408.12	867.458
1407.24	779.729
1406.35	759.821
1405.47	754.04
1404.58	748.262
1403.7	728.37
1402.81	776.228
1401.92	750.693
1401.04	722.346
1400.15	789.928
1399.27	758.763
1398.38	721.969
1397.49	747.22
1396.61	814.751
1395.72	758.235
1394.83	777.83
1393.94	769.242
1393.06	755.021
1392.17	763.34
1391.28	743.493
1390.39	802.495
1389.51	819.247
1388.62	833.178
1387.73	762.675
1386.84	816.005
1385.95	813.049
1385.06	874.79
1384.17	883.074
1383.29	832.307
1382.4	851.841
1381.51	896.667
1380.62	966.77
1379.73	972.221
1378.84	949.576
1377.95	1019.63
1377.06	1106.52
1376.17	1089.48
1375.28	1179.12
1374.39	1235.06
1373.5	1203.97
1372.6	1198.15
1371.71	1231.61
1370.82	1217.37
1369.93	1225.57
1369.04	1247.78
1368.15	1213.92
1367.26	1210.91
1366.36	1210.7
1365.47	1202.08
1364.58	1355.96
1363.69	1375.33
1362.79	1512.32
1361.9	1540.05
1361.01	1732.96
1360.11	1819.43
1359.22	1950.65
1358.33	1981.08
1357.43	1888.42
1356.54	1728.65
1355.65	1630.46
1354.75	1406.48
1353.86	1386.67
1352.96	1257.84
1352.07	1198.94
1351.17	1165.2
1350.28	1100.74
1349.39	1108.92
1348.49	1027.74
1347.59	1055.48
1346.7	1041.34
1345.8	946.252
1344.91	1040.97
1344.01	1032.42
1343.12	1054.56
1342.22	1110.16
1341.32	1140.65
1340.43	1151.6
1339.53	1248.97
1338.63	1293.35
1337.74	1321
1336.84	1423.86
1335.94	1401.33
1335.04	1551.5
1334.15	1757.31
1333.25	2007.61
1332.35	2229.97
1331.45	2597.01
1330.55	3108.63
1329.66	3247.21
1328.76	3366.27
1327.86	3382.37
1326.96	3095.33
1326.06	2894.58
1325.16	2493.74
1324.26	2187.55
1323.36	1937.05
1322.46	1717.19
1321.56	1525.2
1320.66	1513.82
1319.76	1280.28
1318.86	1280.05
1317.96	1204.87
1317.06	1163.02
1316.16	1093.44
1315.26	1082.15
1314.36	1051.44
1313.46	1001.33
1312.55	970.648
1311.65	1025.93
1310.75	995.259
1309.85	1022.8
1308.95	1047.57
1308.04	1066.78
1307.14	1091.52
1306.24	1196.59
1305.34	1185.3
1304.43	1295.85
1303.53	1276.24
1302.63	1226.2
1301.72	1275.79
1300.82	1247.9
1299.92	1239.38
1299.01	1178.31
1298.11	1396.58
1297.21	1584.36
1296.3	1816.3
1295.4	2128.32
1294.49	2514.85
1293.59	2511.64
1292.68	2268.09
1291.78	1908.62
1290.87	1441.57
1289.97	1167.96
1289.06	1084.94
1288.16	932.939
1287.25	855.504
1286.34	849.835
1285.44	786.235
1284.53	772.306
1283.62	703.226
1282.72	741.705
1281.81	741.574
1280.9	730.419
1280	694.465
1279.09	719.141
1278.18	622.595
1277.27	663.801
1276.37	649.915
1275.46	680.088
1274.55	663.451
1273.64	652.325
1272.73	743.024
1271.82	682.361
1270.92	607.965
1270.01	643.614
1269.1	613.251
1268.19	566.401
1267.28	588.294
1266.37	612.928
1265.46	612.82
1264.55	593.479
1263.64	642.822
1262.73	615.243
1261.82	623.373
1260.91	584.824
1260	656.096
1259.09	683.427
1258.18	683.307
1257.27	770.986
1256.35	825.715
1255.44	858.483
1254.53	913.177
1253.62	871.889
1252.71	858.029
1251.79	800.321
1250.88	742.633
1249.97	698.664
1249.06	654.711
1248.14	632.685
1247.23	616.143
1246.32	616.034
1245.41	602.238
1244.49	544.656
1243.58	602.026
1242.66	549.936
1241.75	568.988
1240.84	626.323
1239.92	609.806
1239.01	609.698
1238.09	560.386
1237.18	563.02
1236.26	573.852
1235.35	562.822
1234.43	609.161
1233.52	579.011
1232.6	600.754
1231.69	597.918
1230.77	589.623
1229.86	652.292
1228.94	641.262
1228.02	698.443
1227.11	676.497
1226.19	739.106
1225.27	722.615
1224.36	864.259
1223.44	943.157
1222.52	1081.99
1221.6	1133.57
1220.69	1231.45
1219.77	1397.39
1218.85	1375.36
1217.93	1364.22
1217.01	1320.42
1216.1	1282.08
1215.18	1134.89
1214.26	987.751
1213.34	911.4
1212.42	903.079
1211.5	794.134
1210.58	747.768
1209.66	723.168
1208.74	630.621
1207.82	698.453
1206.9	616.812
1205.98	622.137
1205.06	627.46
1204.14	608.338
1203.22	594.654
1202.3	591.834
1201.38	540.157
1200.46	512.922
1199.54	567.1
1198.61	545.296
1197.69	596.736
1196.77	596.63
1195.85	517.892
1194.93	555.754
1194	561.077
1193.08	533.878
1192.16	479.592
1191.24	530.98
1190.31	530.886
1189.39	538.916
1188.47	503.621
1187.54	476.461
1186.62	514.27
1185.7	503.354
1184.77	524.911
1183.85	500.471
1182.92	562.592
1182	573.309
1181.07	605.654
1180.15	564.996
1179.23	600.033
1178.3	572.903
1177.37	645.753
1176.45	678.056
1175.52	777.87
1174.6	861.447
1173.67	909.894
1172.75	1079.8
1171.82	1244.25
1170.89	1513.89
1169.97	1745.65
1169.04	1915.29
1168.11	2084.87
1167.19	2049.44
1166.26	1943.93
1165.33	1851.93
1164.4	1770.75
1163.48	1700.37
1162.55	1527.64
1161.62	1492.35
1160.69	1424.75
1159.76	1486.43
1158.83	1596.56
1157.91	1502.06
1156.98	1574.46
1156.05	1735.63
1155.12	1912.89
1154.19	2047.05
1153.26	2345.22
1152.33	2436.23
1151.4	2586.35
1150.47	2365.48
1149.54	2268.3
1148.61	2066.37
1147.68	1692.56
1146.75	1557.96
1145.82	1420.71
1144.89	1216.39
1143.96	1095.36
1143.02	963.637
1142.09	840.013
1141.16	890.846
1140.23	772.645
1139.3	753.732
1138.36	745.552
1137.43	740.057
1136.5	678.265
1135.57	680.825
1134.63	758.422
1133.7	827.954
1132.77	913.534
1131.83	1041.94
1130.9	1191.73
1129.97	1483.37
1129.03	1686.56
1128.1	1651.47
1127.17	1421.03
1126.23	1233.48
1125.3	1067.4
1124.36	898.7
1123.43	780.874
1122.49	743.303
1121.56	668.319
1120.62	622.763
1119.69	585.239
1118.75	627.885
1117.81	582.36
1116.88	552.876
1115.94	560.789
1115.01	501.951
1114.07	549.912
1113.13	464.406
1112.2	523.031
1111.26	517.602
1110.32	602.872
1109.38	562.758
1108.45	578.658
1107.51	586.553
1106.57	602.443
1105.63	634.318
1104.69	666.182
1103.76	650.077
1102.82	724.547
1101.88	705.775
1100.94	729.615
1100	673.576
1099.06	596.261
1098.12	585.509
1097.18	609.353
1096.24	548.054
1095.3	529.337
1094.36	555.838
1093.42	526.489
1092.48	537.029
1091.54	518.327
1090.6	507.604
1089.66	504.857
1088.72	504.767
1087.78	544.52
1086.84	507.242
1085.9	525.739
1084.95	477.859
1084.01	536.168
1083.07	525.457
1082.13	525.364
1081.19	541.187
1080.24	535.786
1079.3	517.127
1078.36	564.761
1077.41	572.613
1076.47	585.763
1075.53	498.208
1074.58	553.76
1073.64	511.275
1072.7	569.454
1071.75	505.796
1070.81	577.193
1069.86	505.616
1068.92	598.161
1067.98	598.054
1067.03	656.155
1066.09	748.624
1065.14	896.601
1064.19	1049.81
1063.25	1255.85
1062.3	1250.34
1061.36	1332.05
1060.41	1202.33
1059.46	1062.09
1058.52	929.82
1057.57	829.294
1056.63	771.053
1055.68	704.912
1054.73	710.065
1053.78	667.711
1052.84	664.953
1051.89	619.984
1050.94	685.818
1049.99	685.695
1049.05	693.483
1048.1	682.813
1047.15	756.496
1046.2	774.808
1045.25	919.591
1044.3	906.254
1043.35	1014.09
1042.4	966.501
1041.45	976.86
1040.5	1105.68
1039.55	1066
1038.6	1102.65
1037.65	1065.62
1036.7	1186.44
1035.75	1202.01
1034.8	1159.72
1033.85	1017.53
1032.9	1012.09
1031.95	880.493
1031	706.896
1030.05	764.572
1029.1	701.389
1028.14	661.867
1027.19	580.343
1026.24	590.741
1025.29	559.134
1024.33	543.287
1023.38	590.423
1022.43	519.479
1021.48	519.386
1020.52	532.407
1019.57	519.2
1018.62	519.107
1017.66	498.044
1016.71	547.75
1015.75	558.133
1014.8	529.215
1013.85	508.164
1012.89	523.787
1011.94	531.548
1010.98	589.049
1010.03	515.653
1009.07	554.816
1008.12	549.483
1007.16	575.546
1006.2	583.29
1005.25	635.489
1004.29	656.292
1003.34	705.845
1002.38	880.841
1001.42	966.922
1000.47	1097.39
999.508	1264.38
998.551	1386.92
997.594	1480.68
996.636	1347.25
995.679	1208.66
994.721	1059.67
993.763	936.829
992.805	803.598
991.846	733.021
990.888	698.983
989.929	612.804
988.97	597.051
988.011	555.236
987.052	534.286
986.093	515.949
985.133	523.673
984.173	554.837
983.213	559.946
982.253	588.489
981.293	598.797
980.333	635.131
979.372	715.695
978.411	830.057
977.45	1045.84
976.489	1290.16
975.528	1526.59
974.566	1749.93
973.605	1978.39
972.643	1993.63
971.681	1865.93
970.719	1597.97
969.756	1337.89
968.794	1161.03
967.831	992.023
966.868	789.321
965.905	828.119
964.942	674.834
963.979	682.498
963.015	609.727
962.052	609.617
961.088	606.914
960.124	526.416
959.159	513.357
958.195	466.605
957.23	533.907
956.266	500.124
955.301	458.58
954.336	474.04
953.37	463.595
952.405	515.3
951.439	499.673
950.473	481.464
949.507	476.201
948.541	569.268
947.575	587.275
946.608	556.13
945.642	594.822
944.675	708.487
943.708	721.285
942.741	765.097
941.773	834.735
940.806	912.101
939.838	940.353
938.87	816.204
937.902	880.618
936.934	697.138
935.965	655.707
934.997	585.901
934.028	521.28
933.059	523.766
932.09	482.397
931.121	490.048
930.151	446.121
929.182	443.462
928.212	471.738
927.242	425.261
926.272	427.761
925.301	401.919
924.331	391.543
923.36	445.558
922.389	404.277
921.418	422.226
920.447	373.242
919.475	460.678
918.504	421.997
917.532	383.331
916.56	411.556
915.588	411.481
914.616	467.976
913.643	416.474
912.671	416.399
911.698	462.582
910.725	403.402
909.752	423.88
908.779	434.078
907.805	444.272
906.831	492.975
905.858	480.051
904.883	531.297
903.909	585.091
902.935	633.734
901.96	651.576
900.986	730.967
900.011	789.814
899.036	751.214
898.06	792.092
897.085	691.994
896.109	684.182
895.133	673.81
894.157	571.226
893.181	573.684
892.205	537.731
891.229	509.472
890.252	501.701
889.275	483.695
888.298	452.903
887.321	460.495
886.343	468.086
885.366	429.64
884.388	473.03
883.41	434.598
882.432	495.863
881.454	442.107
880.475	462.467
879.497	477.711
878.518	469.962
877.539	464.77
876.56	523.41
875.58	485.023
874.601	500.249
873.621	551.195
872.641	568.955
871.661	586.708
870.681	581.501
869.701	599.245
868.72	568.543
867.739	527.655
866.758	519.913
865.777	552.945
864.796	552.844
863.815	606.236
862.833	634.14
861.851	649.303
860.869	672.097
859.887	679.611
858.905	715.117
857.922	686.998
856.939	691.962
855.956	742.706
854.973	747.658
853.99	813.629
853.007	854.156
852.023	942.959
851.039	932.623
850.055	1001.05
849.071	1107.56
848.087	1168.32
847.102	1244.29
846.118	1525.88
845.133	1721.06
844.148	2167.44
843.163	2796.35
842.177	3458.01
841.192	3936.8
840.206	3593.71
839.22	3065.63
838.234	2474.37
837.248	1939.09
836.261	1756.27
835.274	1568.44
834.288	1499.76
833.301	1443.76
832.313	1354.86
831.326	1324.23
830.339	1187.29
829.351	1187.07
828.363	1146.37
827.375	1120.86
826.387	1065
825.398	971.225
824.409	1079.79
823.421	1021.44
822.432	932.778
821.443	925.026
820.453	960.235
819.464	977.745
818.474	1007.88
817.484	1101.14
816.494	1204.47
815.504	1297.66
814.513	1542.27
813.523	1842.31
812.532	2326.44
811.541	3034.93
810.55	3786.03
809.559	4703.31
808.567	4919.29
807.575	4706.64
806.583	3942.07
805.591	3011.45
804.599	2295.34
803.607	1786.06
802.614	1423.05
801.621	1193.63
800.628	1100.26
799.635	1022.02
798.642	898.509
797.649	855.567
796.655	883.086
795.661	857.771
794.667	767.074
793.673	696.528
792.678	643.605
791.684	598.242
790.689	593.107
789.694	570.384
788.699	517.523
787.704	514.917
786.708	537.425
785.713	544.86
784.717	504.594
783.721	476.892
782.724	454.22
781.728	411.483
780.731	421.442
779.735	398.792
778.738	386.181
777.741	426.226
776.743	383.534
775.746	423.564
774.748	388.405
773.75	408.377
772.752	425.837
771.754	420.751
770.756	413.162
769.757	443.129
768.758	395.489
767.759	437.962
766.76	425.371
765.761	412.785
764.761	415.211
763.762	457.649
762.762	450.064
761.762	404.983
760.762	384.914
759.761	382.345
758.761	332.304
757.76	329.745
756.759	362.154
755.758	359.591
754.756	367.015
753.755	354.467
752.753	361.889
751.751	401.749
750.749	381.716
749.747	399.107
748.745	423.974
747.742	431.377
746.739	358.999
745.736	376.382
744.733	361.36
743.73	411.128
742.726	428.491
741.723	346.217
740.719	395.96
739.715	383.439
738.71	403.284
737.706	370.854
736.701	368.297
735.697	370.718
734.692	402.988
733.686	432.76
732.681	430.194
731.675	390.336
730.67	417.608
729.664	439.899
728.658	395.091
727.651	390.05
726.645	357.688
725.638	392.391
724.631	399.768
723.624	387.282
722.617	357.426
721.61	377.213
720.602	362.257
719.595	369.633
718.587	441.494
717.578	376.937
716.57	399.182
715.562	404.067
714.553	371.773
713.544	341.968
712.535	354.293
711.526	364.137
710.516	359.117
709.507	411.051
708.497	418.403
707.487	361.394
706.477	351.429
705.467	348.89
704.456	395.831
703.445	321.554
702.434	356.117
701.423	341.216
700.412	328.793
699.401	348.506
698.389	375.625
697.377	385.44
696.365	345.844
695.353	370.479
694.34	355.594
693.328	348.122
692.315	392.491
691.302	352.93
690.289	394.815
689.276	330.597
688.262	298.469
687.249	355.137
686.235	337.812
685.221	364.868
684.206	327.828
683.192	367.199
682.177	406.555
681.162	394.162
680.147	364.533
679.132	448.195
678.117	406.256
677.101	411.105
676.086	369.188
675.07	344.512
674.054	361.671
673.037	371.444
672.021	376.295
671.004	368.848
669.987	336.82
668.97	368.713
667.953	351.441
666.936	361.205
665.918	341.485
664.9	361.073
663.882	343.815
662.864	321.654
661.846	353.509
660.827	353.443
659.808	373.011
658.789	365.581
657.77	409.67
656.751	365.447
655.731	362.927
654.712	365.312
653.692	372.599
652.672	367.628
651.652	365.11
650.631	308.694
649.611	362.526
648.59	384.501
647.569	384.43
646.548	384.359
645.526	411.213
644.505	381.77
643.483	389.04
642.461	379.183
641.439	396.235
640.417	381.489
639.394	391.199
638.371	386.237
637.348	417.939
636.325	412.975
635.302	359.149
634.279	354.197
633.255	356.574
632.231	322.322
631.207	375.973
630.183	402.754
629.159	375.835
628.134	407.486
627.109	414.729
626.084	392.701
625.059	356.048
624.034	399.87
623.008	382.732
621.983	372.912
620.957	382.591
619.931	423.94
618.904	406.809
617.878	387.25
616.851	389.614
615.824	404.15
614.797	365.128
613.77	428.338
612.743	455.025
611.715	454.941
610.687	418.371
609.659	396.406
608.631	391.47
607.603	391.397
606.574	405.909
605.546	352.37
604.517	371.743
603.487	378.962
602.458	434.754
601.429	444.387
600.399	381.18
599.369	415.093
598.339	465.984
597.309	439.205
596.278	380.898
595.248	414.787
594.217	419.56
593.186	409.784
592.155	380.616
591.123	470.228
590.091	433.79
589.06	411.903
588.028	499.038
586.996	428.705
585.963	416.518
584.931	438.231
583.898	457.516
582.865	421.127
581.832	437.988
580.798	452.423
579.765	452.339
578.731	478.859
577.697	440.082
576.663	473.846
575.629	466.507
574.594	500.254
573.56	437.34
572.525	466.248
571.49	487.9
570.455	497.469
569.419	470.818
568.384	465.903
567.348	499.606
566.312	460.904
565.276	448.755
564.239	506.565
563.203	492
562.166	544.958
561.129	588.253
560.092	556.808
559.054	578.395
558.017	599.973
556.979	660.089
555.941	619.02
554.903	577.966
553.865	556.189
552.826	568.122
551.787	505.439
550.749	565.505
549.709	572.618
548.67	577.323
547.631	632.532
546.591	622.796
545.551	603.447
544.511	622.565
543.471	615.239
542.43	603.111
541.39	617.413
540.349	660.534
539.308	655.608
538.267	739.523
537.225	722.581
536.184	708.046
535.142	892.692
534.1	863.735
533.058	937.938
532.015	961.748
530.973	904.019
529.93	968.583
528.887	987.579
527.844	1025.74
526.801	951.27
525.757	967.863
524.713	926.964
523.669	977.082
522.625	940.985
521.581	926.447
520.537	820.961
519.492	794.485
518.447	775.197
517.402	739.171
516.357	717.508
515.311	688.68
514.265	693.333
513.22	626.274
512.174	657.226
511.127	683.388
510.081	676.094
509.034	623.419
507.987	551.659
506.94	584.984
505.893	620.684
504.846	582.38
503.798	632.385
502.75	575.005
501.702	591.596
500.654	660.652
499.606	684.374
