3200.54	21.049
3199.95	54.7273
3199.35	21.0458
3198.76	25.2511
3198.16	33.6631
3197.57	33.658
3196.98	37.8595
3196.38	46.2657
3195.79	29.4374
3195.19	50.4564
3194.6	54.6529
3194	46.2378
3193.41	37.8252
3192.81	8.40432
3192.22	50.4183
3191.62	58.8125
3191.03	58.8036
3190.43	54.5951
3189.84	29.3929
3189.24	46.1818
3188.65	46.1749
3188.05	33.5766
3187.45	54.5538
3186.86	58.7413
3186.26	41.9517
3185.67	62.9181
3185.07	20.9695
3184.47	37.7394
3183.88	46.119
3183.28	16.768
3182.69	33.5309
3182.09	33.5259
3181.49	33.5208
3180.9	25.1368
3180.3	33.5106
3179.7	29.3174
3179.1	54.4383
3178.51	46.0562
3177.91	33.4904
3177.31	50.2279
3176.72	12.5551
3176.12	41.8439
3175.52	41.8376
3174.92	20.9156
3174.33	20.9125
3173.73	-8.36372
3173.13	20.9061
3172.53	20.903
3171.93	71.0593
3171.34	41.7933
3170.74	54.323
3170.14	29.2464
3169.54	62.6614
3168.94	33.4144
3168.34	25.057
3167.74	41.7553
3167.15	45.9239
3166.55	66.7882
3165.95	41.7363
3165.35	41.73
3164.75	54.2408
3164.15	29.2021
3163.55	41.711
3162.95	50.0456
3162.35	66.7174
3161.75	25.0152
3161.15	37.5172
3160.55	29.1756
3159.95	20.8365
3159.35	54.1668
3158.75	45.8265
3158.15	62.4812
3157.55	29.1535
3156.95	58.2981
3156.35	29.1446
3155.75	45.7918
3155.15	33.2981
3154.55	33.293
3153.95	45.7709
3153.35	66.5658
3152.75	29.1181
3152.15	33.2728
3151.54	45.7432
3150.94	58.2098
3150.34	45.7293
3149.74	41.5658
3149.14	54.0273
3148.54	24.9319
3147.94	58.1656
3147.33	58.1568
3146.73	29.074
3146.13	20.764
3145.53	41.5216
3144.93	16.6061
3144.32	45.6599
3143.72	53.9536
3143.12	45.6461
3142.52	37.3411
3141.91	24.8903
3141.31	33.182
3140.71	33.177
3140.1	20.7325
3139.5	20.7293
3138.9	20.7262
3138.29	37.3015
3137.69	33.1518
3137.09	0
3136.48	57.9981
3135.88	41.4209
3135.28	37.2731
3134.67	49.69
3134.07	49.6824
3133.47	57.954
3132.86	53.8063
3132.26	28.9682
3131.65	16.5507
3131.05	33.0965
3130.45	41.3643
3129.84	62.037
3129.24	66.1627
3128.63	37.2109
3128.03	45.4731
3127.42	41.3329
3126.82	45.4592
3126.21	49.5844
3125.61	66.1024
3125	28.9154
3124.4	78.4728
3123.79	49.5542
3123.19	28.9022
3122.58	53.6674
3121.97	53.6593
3121.37	41.2701
3120.76	20.6319
3120.16	33.006
3119.55	41.2512
3118.94	28.8715
3118.34	45.3626
3117.73	49.4789
3117.13	20.6131
3116.52	41.2199
3115.91	53.5777
3115.31	41.2073
3114.7	45.3212
3114.09	41.1948
3113.48	24.7131
3112.88	32.9458
3112.27	78.2344
3111.66	28.8188
3111.06	32.9308
3110.45	53.5044
3109.84	20.5755
3109.23	37.0302
3108.63	20.5692
3108.02	41.1321
3107.41	41.1259
3106.8	20.5598
3106.19	37.002
3105.59	32.8857
3104.98	28.7706
3104.37	28.7662
3103.76	57.5237
3103.15	12.3246
3102.54	49.291
3101.93	4.10696
3101.33	49.276
3100.72	41.0571
3100.11	32.8406
3099.5	45.149
3098.89	57.4536
3098.28	24.6192
3097.67	41.0258
3097.06	45.1215
3096.45	41.0133
3095.84	53.3092
3095.23	12.3002
3094.62	20.4973
3094.01	69.6801
3093.4	45.0803
3092.79	45.0734
3092.18	28.6787
3091.57	40.9633
3090.96	28.6699
3090.35	24.5705
3089.74	49.1335
3089.13	65.5013
3088.52	32.7457
3087.91	20.4629
3087.3	61.3794
3086.69	28.6394
3086.08	28.635
3085.46	12.2703
3084.85	53.1631
3084.24	44.9773
3083.63	36.794
3083.02	24.5256
3082.41	53.1306
3081.79	44.9498
3081.18	40.8573
3080.57	16.3404
3079.96	24.5069
3079.35	40.8386
3078.73	44.9156
3078.12	61.2391
3077.51	40.8199
3076.9	61.2205
3076.28	36.7267
3075.67	53.0415
3075.06	28.5565
3074.45	40.7887
3073.83	36.7043
3073.22	32.621
3072.61	53.0011
3071.99	52.993
3071.38	40.7576
3070.77	28.526
3070.15	48.8942
3069.54	44.8128
3068.93	44.806
3068.31	12.2179
3067.7	61.0804
3067.08	52.9283
3066.47	48.8494
3065.86	20.3508
3065.24	56.9736
3064.63	61.0338
3064.01	28.4781
3063.4	48.8121
3062.78	52.8717
3062.17	32.5315
3061.55	32.5265
3060.94	52.8475
3060.32	56.904
3059.71	44.7034
3059.09	36.5699
3058.48	52.8152
3057.86	48.745
3057.25	36.5532
3056.63	24.3651
3056.02	69.0238
3055.4	8.11921
3054.78	44.6488
3054.17	28.4085
3053.55	36.5197
3052.94	60.8568
3052.32	48.678
3051.7	52.7264
3051.09	40.5526
3050.47	48.6557
3049.85	28.3781
3049.24	52.6942
3048.62	48.6334
3048	20.2608
3047.39	32.4123
3046.77	28.3564
3046.15	56.7042
3045.53	60.7452
3044.92	52.6378
3044.3	36.436
3043.68	12.1435
3043.06	36.4248
3042.45	36.4193
3041.83	64.7354
3041.21	56.6348
3040.59	40.4473
3039.97	64.7057
3039.35	72.7828
3038.74	64.6859
3038.12	36.3803
3037.5	44.458
3036.88	68.6972
3036.26	48.4847
3035.64	28.2784
3035.02	68.6657
3034.41	52.501
3033.79	60.5688
3033.17	76.7088
3032.55	64.587
3031.93	44.3967
3031.31	56.4963
3030.69	40.3483
3030.07	44.3763
3029.45	44.3695
3028.83	52.4287
3028.21	48.3883
3027.59	48.3809
3026.97	24.1867
3026.35	56.4271
3025.73	36.269
3025.11	60.4391
3024.49	72.5158
3023.87	44.3084
3023.25	36.2468
3022.63	44.2948
3022	40.2618
3021.38	52.3324
3020.76	56.3493
3020.14	68.4137
3019.52	72.4269
3018.9	40.231
3018.28	52.2923
3017.66	36.1968
3017.03	32.17
3016.41	60.3095
3015.79	64.3203
3015.17	64.3104
3014.55	56.263
3013.92	60.2725
3013.3	88.3861
3012.68	60.254
3012.06	28.1142
3011.43	60.2355
3010.81	44.166
3010.19	64.2315
3009.57	52.1801
3008.94	44.1456
3008.32	64.202
3007.7	76.2281
3007.07	48.1367
3006.45	72.194
3005.83	24.061
3005.2	56.1336
3004.58	52.1161
3003.96	64.133
3003.33	84.1617
3002.71	84.1488
3002.08	60.097
3001.46	56.082
3000.84	88.1153
3000.21	52.0601
2999.59	76.0762
2998.96	88.0747
2998.34	72.05
2997.71	48.026
2997.09	40.0155
2996.46	48.0112
2995.84	88.0071
2995.21	43.9968
2994.59	63.9855
2993.96	55.9787
2993.34	91.9509
2992.71	71.9505
2992.09	43.963
2991.46	43.9562
2990.84	83.9036
2990.21	63.9167
2989.58	75.8894
2988.96	83.8649
2988.33	67.8802
2987.71	63.8774
2987.08	103.785
2986.45	71.84
2985.83	63.848
2985.2	43.8887
2984.57	103.721
2983.95	75.7845
2983.32	83.749
2982.69	95.6984
2982.07	75.7496
2981.44	87.6965
2980.81	67.7551
2980.18	91.6546
2979.56	119.531
2978.93	99.5939
2978.3	83.646
2977.67	123.458
2977.05	95.566
2976.42	75.6448
2975.79	95.5366
2975.16	139.303
2974.53	139.281
2973.91	147.218
2973.28	123.326
2972.65	202.859
2972.02	155.104
2971.39	178.938
2970.76	178.911
2970.13	206.71
2969.5	194.754
2968.88	226.516
2968.25	238.401
2967.62	222.473
2966.99	242.3
2966.36	285.949
2965.73	246.196
2965.1	262.039
2964.47	321.544
2963.84	277.835
2963.21	309.54
2962.58	357.106
2961.95	372.92
2961.32	325.263
2960.69	305.383
2960.06	356.886
2959.43	376.655
2958.8	404.346
2958.17	372.576
2957.53	424.037
2956.9	380.386
2956.27	352.595
2955.64	356.502
2955.01	376.249
2954.38	372.231
2953.75	372.174
2953.12	403.786
2952.48	403.724
2951.85	447.194
2951.22	403.599
2950.59	403.537
2949.96	458.854
2949.33	446.918
2948.69	423.123
2948.06	450.734
2947.43	399.273
2946.8	395.259
2946.16	359.63
2945.53	324.012
2944.9	371.372
2944.26	323.913
2943.63	343.61
2943	296.17
2942.37	272.434
2941.73	307.922
2941.1	327.61
2940.47	315.72
2939.83	299.888
2939.2	236.717
2938.56	299.795
2937.93	295.805
2937.3	268.155
2936.66	331.199
2936.03	279.899
2935.39	354.747
2934.76	307.4
2934.13	346.756
2933.49	311.245
2932.86	358.467
2932.22	437.183
2931.59	374.108
2930.95	452.798
2930.32	488.159
2929.68	452.658
2929.05	523.428
2928.41	570.567
2927.78	527.201
2927.14	527.119
2926.5	530.971
2925.87	660.662
2925.23	605.513
2924.6	573.969
2923.96	621.049
2923.32	617.023
2922.69	652.293
2922.05	640.406
2921.42	553.885
2920.78	620.57
2920.14	624.401
2919.51	592.893
2918.87	671.318
2918.23	557.382
2917.6	643.638
2916.96	596.45
2916.32	561.047
2915.68	568.806
2915.05	611.863
2914.41	631.376
2913.77	639.12
2913.13	642.942
2912.5	646.762
2911.86	615.309
2911.22	611.295
2910.58	642.544
2909.94	681.618
2909.31	650.179
2908.67	704.904
2908.03	732.204
2907.39	763.41
2906.75	786.778
2906.11	802.311
2905.47	794.361
2904.83	805.976
2904.2	884.089
2903.56	954.355
2902.92	934.654
2902.28	973.611
2901.64	969.55
2901	1043.67
2900.36	945.801
2899.72	855.778
2899.08	882.995
2898.44	898.484
2897.8	933.498
2897.16	909.922
2896.52	851.211
2895.88	901.832
2895.24	968.051
2894.6	963.998
2893.96	850.684
2893.32	936.388
2892.67	928.441
2892.03	912.696
2891.39	924.254
2890.75	955.304
2890.11	998.041
2889.47	990.09
2888.83	1025.01
2888.19	985.887
2887.54	1094.83
2886.9	1094.66
2886.26	1063.33
2885.62	1117.68
2884.98	1214.86
2884.33	1276.96
2883.69	1374.07
2883.05	1377.75
2882.41	1404.78
2881.77	1443.47
2881.12	1489.93
2880.48	1715.29
2879.84	1571.13
2879.19	1691.43
2878.55	1737.82
2877.91	1644.26
2877.26	1609.02
2876.62	1484.43
2875.98	1422.03
2875.33	1320.81
2874.69	1173.01
2874.05	1234.96
2873.4	1118.28
2872.76	1059.87
2872.11	1055.83
2871.47	1067.31
2870.83	966.247
2870.18	969.977
2869.54	962.068
2868.89	958.04
2868.25	973.404
2867.6	1000.4
2866.96	1031.26
2866.31	1015.59
2865.67	1027.06
2865.02	999.775
2864.38	1077.11
2863.73	921.986
2863.09	983.816
2862.44	960.427
2861.8	1018.36
2861.15	905.928
2860.5	940.626
2859.86	851.463
2859.21	831.982
2858.57	738.995
2857.92	738.88
2857.27	761.973
2856.63	715.447
2855.98	696.003
2855.33	734.555
2854.69	699.652
2854.04	715.003
2853.39	722.62
2852.75	676.144
2852.1	749.437
2851.45	710.696
2850.81	722.171
2850.16	826.314
2849.51	814.603
2848.86	814.477
2848.21	849.086
2847.57	902.978
2846.92	910.554
2846.27	879.551
2845.62	921.842
2844.97	967.977
2844.33	1025.66
2843.68	1006.23
2843.03	1094.73
2842.38	1032.89
2841.73	1152.19
2841.08	1032.57
2840.43	986.185
2839.78	1070.77
2839.14	1008.99
2838.49	993.426
2837.84	966.323
2837.19	943.077
2836.54	877.502
2835.89	796.556
2835.24	846.449
2834.59	811.696
2833.94	738.49
2833.29	696.072
2832.64	630.597
2831.99	503.63
2831.34	545.835
2830.69	468.884
2830.04	426.541
2829.39	349.632
2828.74	338.053
2828.08	322.637
2827.43	268.822
2826.78	245.742
2826.13	261.06
2825.48	234.15
2824.83	241.789
2824.18	237.915
2823.53	172.653
2822.87	180.298
2822.22	184.106
2821.57	203.252
2820.92	164.877
2820.27	161.017
2819.61	168.659
2818.96	191.628
2818.31	153.278
2817.66	157.086
2817	153.23
2816.35	149.376
2815.7	126.376
2815.05	103.382
2814.39	80.3959
2813.74	137.8
2813.09	137.779
2812.43	107.144
2811.78	126.258
2811.13	110.936
2810.47	126.218
2809.82	130.023
2809.16	84.1193
2808.51	107.044
2807.86	126.14
2807.2	133.764
2806.55	137.564
2805.89	110.798
2805.24	114.601
2804.58	126.041
2803.93	103.109
2803.28	84.0013
2802.62	103.076
2801.97	99.2434
2801.31	122.127
2800.66	99.2124
2800	99.1969
2799.34	61.0347
2798.69	99.166
2798.03	114.404
2797.38	110.574
2796.72	80.0581
2796.07	68.6105
2795.41	83.8442
2794.75	72.3996
2794.1	91.4379
2793.44	87.6143
2792.79	79.9832
2792.13	83.7788
2791.47	87.5733
2790.82	83.7527
2790.16	102.771
2789.5	91.338
2788.84	83.7135
2788.19	106.528
2787.53	76.0794
2786.87	83.6742
2786.22	102.675
2785.56	110.263
2784.9	95.0398
2784.24	95.025
2783.59	91.2097
2782.93	79.7961
2782.27	83.5828
2781.61	102.563
2780.95	87.3547
2780.29	102.531
2779.64	106.312
2778.98	98.7026
2778.32	98.6871
2777.66	110.057
2777	45.5337
2776.34	64.496
2775.68	136.558
2775.02	72.0612
2774.36	79.6341
2773.71	121.328
2773.05	72.0274
2772.39	79.5968
2771.73	68.2151
2771.07	87.1502
2770.41	106.079
2769.75	106.063
2769.09	79.5346
2768.43	75.7354
2767.77	56.7926
2767.11	79.4973
2766.45	102.195
2765.79	68.1192
2765.12	87.0276
2764.46	79.4475
2763.8	90.783
2763.14	105.897
2762.48	98.3175
2761.82	68.0553
2761.16	86.9459
2760.5	86.9323
2759.83	113.372
2759.17	98.2406
2758.51	113.337
2757.85	101.987
2757.19	101.971
2756.53	132.164
2755.86	113.266
2755.2	113.248
2754.54	86.8099
2753.88	90.5701
2753.21	109.422
2752.55	132.04
2751.89	82.9836
2751.23	90.5134
2750.56	101.812
2749.9	75.4042
2749.24	124.397
2748.57	113.071
2747.91	109.285
2747.25	109.268
2746.58	128.087
2745.92	86.6334
2745.25	139.345
2744.59	97.9027
2743.93	120.477
2743.26	112.929
2742.6	124.203
2741.93	139.236
2741.27	154.264
2740.61	124.144
2739.94	139.17
2739.28	135.388
2738.61	127.846
2737.95	131.586
2737.28	112.77
2736.62	157.853
2735.95	169.102
2735.29	97.6881
2734.62	142.753
2733.95	123.95
2733.29	120.175
2732.62	142.685
2731.96	172.697
2731.29	157.655
2730.62	150.124
2729.96	176.369
2729.29	157.581
2728.63	180.065
2727.96	198.79
2727.29	183.758
2726.63	179.98
2725.96	183.701
2725.29	247.395
2724.62	228.617
2723.96	232.328
2723.29	232.292
2722.62	265.97
2721.96	243.455
2721.29	243.417
2720.62	224.657
2719.95	258.315
2719.28	239.559
2718.62	243.264
2717.95	232
2717.28	254.412
2716.61	280.557
2715.94	269.293
2715.27	231.854
2714.61	194.428
2713.94	194.397
2713.27	254.172
2712.6	205.548
2711.93	201.779
2711.26	186.803
2710.59	209.187
2709.92	190.479
2709.25	209.121
2708.58	186.686
2707.91	171.724
2707.24	194.092
2706.57	197.794
2705.9	194.031
2705.23	156.693
2704.56	160.398
2703.89	149.184
2703.22	175.264
2702.55	152.866
2701.88	149.114
2701.21	145.363
2700.54	122.98
2699.87	160.222
2699.2	137.844
2698.53	134.097
2697.86	130.352
2697.19	126.608
2696.51	152.65
2695.84	85.6193
2695.17	122.826
2694.5	81.871
2693.83	115.346
2693.15	107.887
2692.48	115.309
2691.81	122.729
2691.14	137.584
2690.47	122.691
2689.79	111.519
2689.12	137.519
2688.45	100.336
2687.77	144.907
2687.1	104.019
2686.43	126.289
2685.76	126.269
2685.08	115.11
2684.41	115.092
2683.74	96.5133
2683.06	96.4981
2682.39	96.4829
2681.71	111.309
2681.04	115.001
2680.37	122.401
2679.69	96.4221
2679.02	103.823
2678.34	111.221
2677.67	133.445
2676.99	100.068
2676.32	111.169
2675.65	125.971
2674.97	107.429
2674.3	88.893
2673.62	133.318
2672.95	77.7568
2672.27	81.4467
2671.59	151.763
2670.92	103.627
2670.24	77.7078
2669.57	129.493
2668.89	99.8786
2668.22	118.356
2667.54	96.149
2666.86	114.621
2666.19	92.4219
2665.51	110.889
2664.83	81.3056
2664.16	118.244
2663.48	133.004
2662.8	77.5732
2662.13	107.108
2661.45	136.633
2660.77	136.612
2660.1	125.515
2659.42	92.2762
2658.74	118.095
2658.06	110.697
2657.39	114.368
2656.71	125.416
2656.03	121.709
2655.35	88.5013
2654.68	125.357
2654	117.965
2653.32	114.26
2652.64	121.613
2651.96	99.4855
2651.28	125.258
2650.6	117.871
2649.93	106.804
2649.25	121.517
2648.57	117.816
2647.89	103.072
2647.21	106.737
2646.53	128.8
2645.85	132.459
2645.17	103.007
2644.49	121.382
2643.81	91.9418
2643.13	128.698
2642.45	136.031
2641.77	102.926
2641.09	117.611
2640.41	99.2187
2639.73	91.8547
2639.05	84.493
2638.37	95.4987
2637.69	95.4836
2637.01	77.1092
2636.33	99.1247
2635.65	73.4141
2634.96	110.104
2634.28	121.095
2633.6	106.4
2632.92	124.725
2632.24	84.3595
2631.56	84.3462
2630.88	102.666
2630.19	120.98
2629.51	95.3027
2628.83	80.628
2628.15	117.258
2627.46	87.93
2626.78	113.558
2626.1	87.9021
2625.42	98.8743
2624.73	80.5515
2624.05	113.486
2623.37	51.2438
2622.69	91.4923
2622	106.114
2621.32	109.756
2620.64	84.133
2619.95	102.407
2619.27	91.42
2618.58	116.999
2617.9	120.636
2617.22	138.892
2616.53	120.598
2615.85	87.6937
2615.16	109.6
2614.48	80.3605
2613.79	91.3043
2613.11	98.593
2612.43	98.5774
2611.74	80.3096
2611.06	105.846
2610.37	116.777
2609.69	127.705
2609	83.9069
2608.31	120.369
2607.63	87.5273
2606.94	98.4526
2606.26	94.7912
2605.57	80.1952
2604.89	98.4058
2604.2	83.8139
2603.51	112.949
2602.83	65.5727
2602.14	80.1317
2601.45	112.895
2600.77	91.0299
2600.08	105.578
2599.39	72.8008
2598.71	94.6261
2598.02	105.528
2597.33	87.3195
2596.65	94.5811
2595.96	109.115
2595.27	90.9145
2594.58	98.1721
2593.9	98.1565
2593.21	69.0622
2592.52	87.2226
2591.83	90.8425
2591.14	108.994
2590.46	69.0184
2589.77	123.487
2589.08	116.205
2588.39	127.079
2587.7	72.6048
2587.01	98.001
2586.32	90.7272
2585.64	108.855
2584.95	134.234
2584.26	108.821
2583.57	83.4161
2582.88	94.2815
2582.19	94.2665
2581.5	119.627
2580.81	76.1142
2580.12	90.5977
2579.43	101.453
2578.74	86.9462
2578.05	101.421
2577.36	79.6754
2576.67	119.494
2575.98	90.5115
2575.29	86.8772
2574.6	86.8634
2573.91	104.943
2573.22	101.308
2572.52	101.292
2571.83	90.4253
2571.14	112.11
2570.45	94.0124
2569.76	93.9975
2569.07	68.6795
2568.38	79.511
2567.68	79.4984
2566.99	72.2598
2566.3	86.698
2565.61	104.743
2564.92	90.2817
2564.22	83.0459
2563.53	86.6429
2562.84	75.8005
2562.14	83.0063
2561.45	79.3848
2560.76	101.019
2560.07	101.003
2559.37	122.627
2558.68	79.3343
2557.99	108.166
2557.29	97.3338
2556.6	90.1096
2555.91	82.8876
2555.21	61.255
2554.52	68.4506
2553.82	72.0418
2553.13	68.4288
2552.44	90.0236
2551.74	61.2063
2551.05	64.7964
2550.35	61.1869
2549.66	89.9663
2548.96	97.1482
2548.27	93.5352
2547.57	82.7295
2546.88	64.7345
2546.18	68.32
2545.49	104.261
2544.79	97.0555
2544.1	104.228
2543.4	68.2765
2542.7	64.6727
2542.01	104.178
2541.31	86.2029
2540.62	93.3716
2539.92	75.4035
2539.22	71.8014
2538.53	68.2005
2537.83	89.7232
2537.13	78.9438
2536.44	100.458
2535.74	53.8082
2535.04	89.666
2534.35	43.0328
2533.65	64.539
2532.95	107.548
2532.25	78.8558
2531.56	86.0108
2530.86	93.1635
2530.16	78.8181
2529.46	78.8056
2528.76	68.0485
2528.07	78.7804
2527.37	85.9286
2526.67	132.452
2525.97	89.4804
2525.27	100.202
2524.57	67.9834
2523.88	89.4376
2523.18	82.2695
2522.48	57.2218
2521.78	82.2433
2521.08	85.8054
2520.38	92.941
2519.68	78.6298
2518.98	71.4703
2518.28	67.8859
2517.58	71.4475
2516.88	82.1515
2516.18	82.1384
2515.48	57.1306
2514.78	78.5421
2514.08	85.6686
2513.38	71.3791
2512.68	67.7993
2511.98	67.7885
2511.28	67.7777
2510.58	92.7336
2509.88	60.6238
2509.17	42.7865
2508.47	74.8644
2507.77	99.8032
2507.07	74.8404
2506.37	57.0122
2505.67	81.9419
2504.97	81.9289
2504.26	71.2311
2503.56	99.7076
2502.86	85.45
2502.16	92.5561
2501.45	49.8299
2500.75	71.1742
2500.05	60.4884
2499.35	60.4788
2498.64	67.5831
2497.94	78.2416
2497.24	78.2291
2496.53	63.9954
2495.83	71.0947
2495.13	81.7458
2494.42	92.3935
2493.72	95.9318
2493.02	81.7066
2492.31	81.6936
2491.61	63.9239
2490.9	81.6674
2490.2	60.3532
2489.5	92.2902
2488.79	92.2754
2488.09	74.5182
2487.38	92.2459
2486.68	56.7576
2485.97	56.7486
2485.27	74.4706
2484.56	95.7326
2483.86	60.2664
2483.15	77.9794
2482.45	63.7911
2481.74	70.8677
2481.04	70.8563
2480.33	63.7605
2479.62	77.917
2478.92	67.2812
2478.21	77.8921
2477.51	95.5795
2476.8	116.801
2476.09	77.8547
2475.39	70.7657
2474.68	88.4429
2473.97	70.743
2473.27	91.9512
2472.56	91.9365
2471.85	77.7799
2471.14	91.907
2470.44	70.6864
2469.73	81.2763
2469.02	88.3297
2468.31	91.8482
2467.61	95.3655
2466.9	70.6298
2466.19	74.1494
2465.48	70.6072
2464.77	70.5959
2464.07	81.1722
2463.36	91.7452
2462.65	95.2586
2461.94	70.5506
2461.23	52.9045
2460.52	63.4752
2459.81	105.775
2459.1	59.9296
2458.4	63.4447
2457.69	91.6277
2456.98	91.613
2456.27	91.5983
2455.56	84.5387
2454.85	73.9595
2454.14	88.0329
2453.43	84.4981
2452.72	84.4845
2452.01	119.667
2451.3	80.9384
2450.59	105.555
2449.88	77.3945
2449.16	73.8647
2448.45	98.4705
2447.74	98.4547
2447.03	98.4389
2446.32	101.938
2445.61	70.2909
2444.9	59.7377
2444.19	70.2684
2443.47	73.7699
2442.76	77.2704
2442.05	94.8166
2441.34	80.7568
2440.63	101.807
2439.91	84.2409
2439.2	98.2652
2438.49	87.7227
2437.78	77.1836
2437.06	77.1712
2436.35	80.6661
2435.64	119.226
2434.93	77.1341
2434.21	59.594
2433.5	66.5944
2432.79	91.1145
2432.07	108.619
2431.36	80.5754
2430.64	98.0761
2429.93	122.575
2429.22	108.549
2428.5	91.0267
2427.79	84.0112
2427.07	90.9975
2426.36	80.4848
2425.65	108.462
2424.93	101.448
2424.22	76.9484
2423.5	94.4215
2422.79	87.4132
2422.07	94.3911
2421.36	136.321
2420.64	111.835
2419.92	115.311
2419.21	104.812
2418.49	90.8221
2417.78	76.8371
2417.06	97.777
2416.35	101.253
2415.63	111.709
2414.91	104.711
2414.2	83.7549
2413.48	83.7415
2412.76	94.194
2412.05	83.7145
2411.33	101.139
2410.61	90.6616
2409.9	101.106
2409.18	94.1183
2408.46	108.044
2407.74	83.6338
2407.03	104.525
2406.31	80.1232
2405.59	90.5595
2404.87	104.475
2404.16	76.6026
2403.44	93.9971
2402.72	97.4628
2402	118.329
2401.28	93.9517
2400.56	80.0201
2399.85	73.0501
2399.13	97.3844
2398.41	100.846
2397.69	114.737
2396.97	97.3373
2396.25	69.5155
2395.53	69.5043
2394.81	93.8157
2394.09	93.8005
2393.37	93.7854
2392.65	86.8244
2391.93	93.7552
2391.21	90.2683
2390.49	83.3111
2389.77	76.3562
2389.05	93.6948
2388.33	111.028
2387.61	83.2574
2386.89	86.7125
2386.17	90.1665
2385.45	100.554
2384.73	107.472
2384	72.7915
2383.28	83.1769
2382.56	110.885
2381.84	76.2209
2381.12	107.385
2380.4	96.9772
2379.67	93.4986
2378.95	90.0212
2378.23	72.6977
2377.51	89.9921
2376.79	124.584
2376.06	100.343
2375.34	76.1103
2374.62	103.77
2373.9	86.4611
2373.17	107.194
2372.45	79.5186
2371.73	103.703
2371	100.23
2370.28	69.1131
2369.56	93.2876
2368.83	93.2726
2368.11	100.165
2367.38	113.963
2366.66	103.586
2365.94	89.76
2365.21	89.7455
2364.49	106.987
2363.76	86.2659
2363.04	89.7021
2362.31	96.5866
2361.59	93.1221
2360.86	103.452
2360.14	93.092
2359.41	89.6297
2358.69	106.849
2357.96	96.4931
2357.24	82.695
2356.51	106.797
2355.79	68.8902
2355.06	96.4307
2354.33	117.076
2353.61	75.7425
2352.88	99.8262
2352.15	106.694
2351.43	75.7058
2350.7	92.8966
2349.98	96.3217
2349.25	85.9876
2348.52	103.168
2347.79	85.9598
2347.07	79.0702
2346.34	92.8065
2345.61	96.2282
2344.88	109.957
2344.16	89.3259
2343.43	82.4413
2342.7	75.559
2341.97	113.32
2341.25	116.735
2340.52	75.5223
2339.79	99.5361
2339.06	72.0662
2338.33	109.797
2337.6	92.6265
2336.87	65.1711
2336.14	78.8785
2335.42	99.4395
2334.69	102.852
2333.96	123.402
2333.23	99.3912
2332.5	82.2415
2331.77	71.9496
2331.04	126.748
2330.31	95.9018
2329.58	82.1882
2328.85	112.99
2328.12	92.4318
2327.39	112.954
2326.66	102.669
2325.93	119.761
2325.2	102.635
2324.47	116.301
2323.73	116.283
2323	109.425
2322.27	95.731
2321.54	133.318
2320.81	105.954
2320.08	85.4326
2319.35	105.919
2318.61	116.151
2317.88	105.885
2317.15	129.773
2316.42	116.094
2315.69	88.7635
2314.95	81.9223
2314.22	92.1476
2313.49	112.607
2312.76	98.9413
2312.02	102.336
2311.29	126.195
2310.56	92.0729
2309.82	102.287
2309.09	98.8611
2308.36	95.4366
2307.62	81.7895
2306.89	78.3689
2306.16	102.204
2305.42	102.187
2304.69	95.3592
2303.95	102.154
2303.22	81.71
2302.48	95.3128
2301.75	125.929
2301.02	105.491
2300.28	129.29
2299.55	108.858
2298.81	95.2355
2298.08	68.0143
2297.34	98.6047
2296.6	112.187
2295.87	78.1784
2295.13	88.3612
2294.4	115.53
2293.66	129.101
2292.93	105.302
2292.19	108.682
2291.45	115.455
2290.72	91.6703
2289.98	81.4715
2289.24	91.6406
2288.51	88.2321
2287.77	81.4318
2287.03	105.166
2286.3	108.54
2285.56	132.262
2284.82	101.724
2284.08	111.878
2283.35	111.86
2282.61	108.452
2281.87	135.543
2281.13	138.909
2280.4	128.724
2279.66	118.543
2278.92	121.91
2278.18	108.347
2277.44	108.329
2276.7	108.311
2275.97	87.9886
2275.23	125.194
2274.49	101.492
2273.75	98.0933
2273.01	118.369
2272.27	104.824
2271.53	87.9028
2270.79	108.17
2270.05	87.8742
2269.31	111.515
2268.57	94.603
2267.83	111.478
2267.09	97.9498
2266.35	121.573
2265.61	104.671
2264.87	108.03
2264.13	124.889
2263.39	94.4953
2262.65	118.1
2261.91	104.586
2261.17	114.688
2260.42	121.415
2259.68	118.023
2258.94	114.632
2258.2	117.985
2257.46	101.113
2256.72	121.316
2255.97	114.558
2255.23	114.539
2254.49	97.679
2253.75	121.237
2253	117.85
2252.26	84.1649
2251.52	100.981
2250.78	100.965
2250.03	114.408
2249.29	114.39
2248.55	77.3686
2247.8	94.1726
2247.06	110.971
2246.32	87.4175
2245.57	134.466
2244.83	134.445
2244.09	94.0958
2243.34	114.241
2242.6	114.222
2241.85	130.998
2241.11	107.468
2240.36	114.166
2239.62	110.79
2238.88	140.983
2238.13	130.891
2237.39	110.736
2236.64	137.559
2235.89	124.118
2235.15	114.036
2234.4	127.431
2233.66	103.94
2232.91	113.98
2232.17	113.961
2231.42	97.1865
2230.67	117.275
2229.93	123.956
2229.18	113.887
2228.44	103.821
2227.69	113.85
2226.94	110.483
2226.2	123.855
2225.45	133.875
2224.7	127.161
2223.95	103.72
2223.21	113.738
2222.46	113.72
2221.71	90.2922
2220.96	100.308
2220.22	113.664
2219.47	127.016
2218.72	96.9171
2217.97	110.267
2217.22	130.294
2216.48	103.55
2215.73	116.893
2214.98	126.891
2214.23	143.564
2213.48	106.821
2212.73	110.141
2211.98	113.46
2211.23	106.768
2210.48	126.767
2209.73	103.398
2208.98	106.716
2208.23	113.367
2207.48	93.346
2206.73	119.997
2205.98	116.644
2205.23	56.6466
2204.48	106.611
2203.73	109.925
2202.98	109.907
2202.23	113.219
2201.48	136.507
2200.73	123.169
2199.98	99.8502
2199.23	86.5226
2198.48	126.435
2197.72	103.128
2196.97	99.7848
2196.22	96.4429
2195.47	116.378
2194.72	103.06
2193.97	132.959
2193.21	112.997
2192.46	126.27
2191.71	116.282
2190.96	116.263
2190.2	116.244
2189.45	156.074
2188.7	129.487
2187.94	109.548
2187.19	106.211
2186.44	119.468
2185.68	106.176
2184.93	129.381
2184.18	129.36
2183.42	119.389
2182.67	96.159
2181.91	116.035
2181.16	139.219
2180.41	125.94
2179.65	115.978
2178.9	135.838
2178.14	79.5017
2177.39	145.729
2176.63	135.771
2175.88	152.303
2175.12	112.554
2174.37	122.465
2173.61	99.2794
2172.86	115.807
2172.1	129.021
2171.34	132.307
2170.59	99.2143
2169.83	132.264
2169.08	125.63
2168.32	142.137
2167.56	122.284
2166.81	125.568
2166.05	125.548
2165.29	125.527
2164.54	125.507
2163.78	118.882
2163.02	112.259
2162.27	125.445
2161.51	118.823
2160.75	108.903
2159.99	92.3876
2159.23	131.961
2158.48	98.9542
2157.72	131.917
2156.96	89.0296
2156.2	128.577
2155.44	154.927
2154.69	98.873
2153.93	128.514
2153.17	141.671
2152.41	118.589
2151.65	131.744
2150.89	108.671
2150.13	105.361
2149.37	108.635
2148.61	128.366
2147.85	125.054
2147.09	111.872
2146.33	125.013
2145.57	111.835
2144.81	118.395
2144.05	128.24
2143.29	115.068
2142.53	111.762
2141.77	85.451
2141.01	131.441
2140.25	124.849
2139.49	128.113
2138.73	128.092
2137.97	111.652
2137.2	105.067
2136.44	114.898
2135.68	95.1854
2134.92	147.677
2134.16	121.404
2133.4	124.664
2132.63	104.963
2131.87	121.344
2131.11	98.3706
2130.35	124.582
2129.58	131.118
2128.82	114.709
2128.06	157.289
2127.29	117.948
2126.53	121.204
2125.77	137.56
2125	117.889
2124.24	127.693
2123.48	98.2088
2122.71	114.558
2121.95	127.629
2121.19	107.976
2120.42	104.687
2119.66	117.754
2118.89	134.086
2118.13	127.524
2117.36	111.157
2116.6	140.558
2115.83	114.388
2115.07	111.102
2114.3	127.419
2113.54	107.799
2112.77	143.708
2112.01	111.029
2111.24	153.456
2110.48	133.844
2109.71	110.974
2108.94	163.17
2108.18	117.463
2107.41	130.493
2106.64	107.639
2105.88	130.45
2105.11	114.125
2104.34	127.147
2103.58	133.645
2102.81	149.919
2102.04	107.533
2101.28	100.999
2100.51	136.815
2099.74	162.848
2098.97	97.6924
2098.21	156.282
2097.44	139.98
2096.67	123.683
2095.9	110.645
2095.13	126.895
2094.36	133.381
2093.6	107.338
2092.83	133.337
2092.06	133.315
2091.29	139.795
2090.52	120.269
2089.75	123.499
2088.98	129.977
2088.21	149.449
2087.44	120.19
2086.67	159.144
2085.9	107.161
2085.13	146.104
2084.36	116.864
2083.59	113.599
2082.82	159.012
2082.05	103.828
2081.28	129.763
2080.51	100.55
2079.74	136.206
2078.97	158.881
2078.2	106.984
2077.43	110.208
2076.65	116.671
2075.88	106.931
2075.11	113.393
2074.34	149.006
2073.57	152.22
2072.8	152.195
2072.02	123.031
2071.25	145.67
2070.48	158.593
2069.71	155.33
2068.93	100.301
2068.16	132.634
2067.39	109.971
2066.61	116.421
2065.84	103.468
2065.07	135.779
2064.29	113.131
2063.52	161.588
2062.75	122.787
2061.97	142.151
2061.2	135.667
2060.43	145.333
2059.65	148.539
2058.88	148.514
2058.1	122.665
2057.33	122.645
2056.55	154.894
2055.78	141.963
2055	148.391
2054.23	119.338
2053.45	161.241
2052.68	141.869
2051.9	138.622
2051.13	141.822
2050.35	141.798
2049.57	122.442
2048.8	138.53
2048.02	128.844
2047.25	115.94
2046.47	154.561
2045.69	148.097
2044.92	138.415
2044.14	125.519
2043.36	144.805
2042.59	173.737
2041.81	154.408
2041.03	160.815
2040.25	147.925
2039.48	157.546
2038.7	160.735
2037.92	115.71
2037.14	151.041
2036.37	170.294
2035.59	147.778
2034.81	138.117
2034.03	128.46
2033.25	147.705
2032.47	134.838
2031.69	128.396
2030.92	125.165
2030.14	118.727
2029.36	144.374
2028.58	141.142
2027.8	134.704
2027.02	160.336
2026.24	137.866
2025.46	115.403
2024.68	160.256
2023.9	160.229
2023.12	182.631
2022.34	156.973
2021.56	160.149
2020.78	137.706
2020	153.693
2019.21	160.07
2018.43	163.244
2017.65	153.616
2016.87	169.59
2016.09	179.159
2015.31	159.937
2014.53	182.298
2013.74	182.268
2012.96	150.266
2012.18	175.814
2011.4	172.589
2010.62	156.582
2009.83	201.287
2009.05	150.141
2008.27	146.922
2007.49	140.511
2006.7	143.681
2005.92	153.234
2005.14	134.057
2004.35	175.522
2003.57	156.348
2002.79	175.464
2002	153.107
2001.22	194.541
2000.43	184.942
1999.65	178.535
1998.87	172.13
1998.08	172.102
1997.3	207.125
1996.51	168.859
1995.73	178.387
1994.94	184.727
1994.16	159.221
1993.37	146.459
1992.59	171.902
1991.8	165.507
1991.02	168.662
1990.23	184.543
1989.44	149.519
1988.66	171.759
1987.87	181.271
1987.09	178.061
1986.3	187.569
1985.51	212.966
1984.73	187.506
1983.94	187.475
1983.15	142.966
1982.37	165.177
1981.58	190.557
1980.79	168.298
1980	187.319
1979.22	177.765
1978.43	161.866
1977.64	180.879
1976.85	180.849
1976.06	174.474
1975.28	139.556
1974.49	174.416
1973.7	196.582
1972.91	164.848
1972.12	177.499
1971.33	196.484
1970.54	209.125
1969.76	196.418
1968.97	199.553
1968.18	202.687
1967.39	170.988
1966.6	199.453
1965.81	180.428
1965.02	208.881
1964.23	193.025
1963.44	202.484
1962.65	202.45
1961.86	199.254
1961.07	199.221
1960.28	208.673
1959.48	180.187
1958.69	205.442
1957.9	186.447
1957.11	208.533
1956.32	224.294
1955.53	214.781
1954.74	217.903
1953.94	183.134
1953.15	211.517
1952.36	186.23
1951.57	211.446
1950.78	179.857
1949.98	220.84
1949.19	220.803
1948.4	233.382
1947.61	217.576
1946.81	220.693
1946.02	198.59
1945.23	195.405
1944.43	214.28
1943.64	207.943
1942.85	220.509
1942.05	242.519
1941.26	223.584
1940.46	214.101
1939.67	204.621
1938.88	229.767
1938.08	201.406
1937.29	220.251
1936.49	232.798
1935.7	226.468
1934.9	213.851
1934.11	242.114
1933.31	229.498
1932.52	232.603
1931.72	210.565
1930.93	223.099
1930.13	207.353
1929.33	241.872
1928.54	226.128
1927.74	238.651
1926.95	222.913
1926.15	235.432
1925.35	222.838
1924.56	222.801
1923.76	229.039
1922.96	219.589
1922.17	228.962
1921.37	238.332
1920.57	213.208
1919.77	231.982
1918.98	266.421
1918.18	238.172
1917.38	216.199
1916.58	225.561
1915.78	244.317
1914.99	197.3
1914.19	206.661
1913.39	247.325
1912.59	241.024
1911.79	240.983
1910.99	256.589
1910.19	244.031
1909.39	256.503
1908.59	234.567
1907.8	237.655
1907	256.374
1906.2	250.079
1905.4	218.782
1904.6	256.245
1903.8	249.953
1903	259.283
1902.2	234.253
1901.39	265.442
1900.59	240.419
1899.79	262.231
1898.99	246.581
1898.19	265.264
1897.39	234.018
1896.59	262.056
1895.79	237.058
1894.99	286.917
1894.18	274.397
1893.38	271.233
1892.58	227.548
1891.78	258.676
1890.98	267.981
1890.17	264.82
1889.37	252.316
1888.57	264.731
1887.76	239.775
1886.96	283.323
1886.16	298.84
1885.36	283.228
1884.55	289.404
1883.75	298.69
1882.94	270.642
1882.14	255.045
1881.34	264.332
1880.53	254.96
1879.73	242.482
1878.92	292.173
1878.12	279.693
1877.32	257.896
1876.51	292.026
1875.71	285.765
1874.9	298.139
1874.1	254.618
1873.29	276.307
1872.49	257.636
1871.68	270.007
1870.87	300.992
1870.07	304.044
1869.26	291.585
1868.46	316.348
1867.65	297.689
1866.84	291.438
1866.04	291.389
1865.23	297.539
1864.42	281.995
1863.62	266.456
1862.81	284.998
1862	278.756
1861.2	312.773
1860.39	322.009
1859.58	300.285
1858.77	281.663
1857.96	293.995
1857.16	309.416
1856.35	334.113
1855.54	303.126
1854.73	296.89
1853.92	281.38
1853.12	299.882
1852.31	278.194
1851.5	318.324
1850.69	318.27
1849.88	296.59
1849.07	315.074
1848.26	330.464
1847.45	336.584
1846.64	287.129
1845.83	293.254
1845.02	311.723
1844.21	290.07
1843.4	302.362
1842.59	289.972
1841.78	330.019
1840.97	329.964
1840.16	348.408
1839.35	360.68
1838.54	345.208
1837.72	326.66
1836.91	323.524
1836.1	264.937
1835.29	317.255
1834.48	341.838
1833.67	341.781
1832.85	261.68
1832.04	326.275
1831.23	335.453
1830.42	335.396
1829.6	301.498
1828.79	276.839
1827.98	329.076
1827.17	307.496
1826.35	288.997
1825.54	350.427
1824.73	313.487
1823.91	310.362
1823.1	347.178
1822.29	356.335
1821.47	386.988
1820.66	347.002
1819.84	380.717
1819.03	340.746
1818.21	346.827
1817.4	359.043
1816.58	340.573
1815.77	337.448
1814.95	318.988
1814.14	349.601
1813.32	352.608
1812.51	358.68
1811.69	370.88
1810.88	370.818
1810.06	312.537
1809.25	382.947
1808.43	343.062
1807.61	352.192
1806.8	327.637
1805.98	315.335
1805.16	364.258
1804.35	336.652
1803.53	348.835
1802.71	361.014
1801.89	348.717
1801.08	360.892
1800.26	376.121
1799.44	403.574
1798.62	385.164
1797.81	366.761
1796.99	378.923
1796.17	348.306
1795.35	360.466
1794.53	387.894
1793.71	351.183
1792.9	366.39
1792.08	384.644
1791.26	369.318
1790.44	357.049
1789.62	396.654
1788.8	363.03
1787.98	353.818
1787.16	369.006
1786.34	347.6
1785.52	384.125
1784.7	377.964
1783.88	399.233
1783.06	371.742
1782.24	374.725
1781.42	386.846
1780.6	371.553
1779.78	371.49
1778.95	383.606
1778.13	417.024
1777.31	416.954
1776.49	365.153
1775.67	365.092
1774.85	398.491
1774.02	380.175
1773.2	352.743
1772.38	404.369
1771.56	389.102
1770.74	437.665
1769.91	422.397
1769.09	379.789
1768.27	382.763
1767.44	428.257
1766.62	400.854
1765.8	400.786
1764.97	418.933
1764.15	370.298
1763.33	412.721
1762.5	391.412
1761.68	379.211
1760.85	406.445
1760.03	385.148
1759.21	409.34
1758.38	427.46
1757.56	415.264
1756.73	387.918
1755.91	445.424
1755.08	421.112
1754.26	405.895
1753.43	384.626
1752.6	417.87
1751.78	411.744
1750.95	441.944
1750.13	348.048
1749.3	429.691
1748.47	417.516
1747.65	399.295
1746.82	423.423
1745.99	441.495
1745.17	408.162
1744.34	486.689
1743.51	414.069
1742.69	417.021
1741.86	416.95
1741.03	422.921
1740.2	422.849
1739.38	407.678
1738.55	410.628
1737.72	425.653
1736.89	428.599
1736.06	416.455
1735.23	425.436
1734.4	500.783
1733.58	404.178
1732.75	404.109
1731.92	398.01
1731.09	458.237
1730.26	467.202
1729.43	406.849
1728.6	445.951
1727.77	433.825
1726.94	421.703
1726.11	379.468
1725.28	493.827
1724.45	412.456
1723.62	418.406
1722.79	433.383
1721.96	478.446
1721.13	424.21
1720.3	424.138
1719.46	415.043
1718.63	442.036
1717.8	444.968
1716.97	441.886
1716.14	456.839
1715.31	486.811
1714.47	441.661
1713.64	453.602
1712.81	471.546
1711.98	447.442
1711.14	465.38
1710.31	489.317
1709.48	474.226
1708.65	450.138
1707.81	447.061
1706.98	431.986
1706.15	440.911
1705.31	425.841
1704.48	458.751
1703.64	461.671
1702.81	455.598
1701.98	461.514
1701.14	440.461
1700.31	452.369
1699.47	449.297
1698.64	437.241
1697.8	482.081
1696.97	461.043
1696.13	475.931
1695.3	523.734
1694.46	502.699
1693.63	466.713
1692.79	478.598
1691.95	439.637
1691.12	472.455
1690.28	451.446
1689.45	439.413
1688.61	466.236
1687.77	472.133
1686.94	454.126
1686.1	477.946
1685.26	480.852
1684.42	471.811
1683.59	465.76
1682.75	411.948
1681.91	477.54
1681.07	504.315
1680.24	462.459
1679.4	456.414
1678.56	492.127
1677.72	521.864
1676.88	435.31
1676.04	485.913
1675.21	453.044
1674.37	473.828
1673.53	479.706
1672.69	443.876
1671.85	458.693
1671.01	473.505
1670.17	512.131
1669.33	494.182
1668.49	485.168
1667.65	496.989
1666.81	470.125
1665.97	484.92
1665.13	499.71
1664.29	484.755
1663.45	526.3
1662.61	529.183
1661.77	505.314
1660.92	478.48
1660.08	514.055
1659.24	525.851
1658.4	528.732
1657.56	534.582
1656.72	484.011
1655.87	543.306
1655.03	525.403
1654.19	534.217
1653.35	525.223
1652.5	539.968
1651.66	498.347
1650.82	486.398
1649.98	429.974
1649.13	521.81
1648.29	506.899
1647.45	480.138
1646.6	533.396
1645.76	479.974
1644.91	506.553
1644.07	512.39
1643.23	491.574
1642.38	485.568
1641.54	482.525
1640.69	515
1639.85	491.238
1639	532.576
1638.16	526.569
1637.31	520.563
1636.47	490.902
1635.62	514.472
1634.78	505.515
1633.93	511.34
1633.08	463.969
1632.24	490.482
1631.39	516.986
1630.55	502.129
1629.7	537.482
1628.85	543.295
1628.01	501.872
1627.16	546.061
1626.31	525.309
1625.46	501.614
1624.62	495.628
1623.77	477.845
1622.92	507.255
1622.07	492.425
1621.23	498.237
1620.38	557.104
1619.53	489.225
1618.68	515.661
1617.83	545.034
1616.98	553.777
1616.13	515.396
1615.29	565.366
1614.44	577.046
1613.59	588.721
1612.74	570.962
1611.89	588.52
1611.04	591.361
1610.19	558.902
1609.34	547.042
1608.49	541.067
1607.64	579.195
1606.79	584.975
1605.94	526.094
1605.09	511.311
1604.24	531.789
1603.38	590.45
1602.53	552.167
1601.68	610.803
1600.83	596.018
1599.98	587.109
1599.13	589.944
1598.27	551.693
1597.42	622.016
1596.57	566.172
1595.72	492.749
1594.87	533.72
1594.01	533.628
1593.16	548.194
1592.31	574.48
1591.45	521.632
1590.6	559.632
1589.75	524.382
1588.89	503.789
1588.04	544.702
1587.19	497.76
1586.33	547.442
1585.48	509.297
1584.62	553.107
1583.77	500.345
1582.92	526.588
1582.06	538.198
1581.21	532.256
1580.35	529.241
1579.5	494.068
1578.64	555.366
1577.78	511.433
1576.93	563.941
1576.07	517.101
1575.22	560.826
1574.36	531.525
1573.51	548.954
1572.65	613.088
1571.79	577.955
1570.94	545.753
1570.08	533.987
1569.22	513.473
1568.37	530.886
1567.51	539.545
1566.65	536.536
1565.79	559.767
1564.94	550.926
1564.08	530.43
1563.22	524.511
1562.36	544.815
1561.5	533.07
1560.65	634.914
1559.79	579.477
1558.93	556.086
1558.07	553.08
1557.21	529.701
1556.35	552.889
1555.49	558.613
1554.63	590.515
1553.77	535.153
1552.91	569.957
1552.05	564.044
1551.19	561.04
1550.33	572.569
1549.47	540.505
1548.61	581.088
1547.75	575.178
1546.89	563.461
1546.03	563.364
1545.17	580.688
1544.31	600.909
1543.45	545.659
1542.58	528.153
1541.72	586.091
1540.86	556.981
1540	545.283
1539.14	550.989
1538.28	510.302
1537.41	573.991
1536.55	568.095
1535.69	576.691
1534.82	521.54
1533.96	593.874
1533.1	573.496
1532.24	608.149
1531.37	567.508
1530.51	552.935
1529.64	575.995
1528.78	567.214
1527.92	535.289
1527.05	535.196
1526.19	552.459
1525.32	526.336
1524.46	560.943
1523.59	589.755
1522.73	534.735
1521.86	569.322
1521	548.998
1520.13	560.459
1519.27	583.47
1518.4	574.705
1517.54	539.957
1516.67	539.863
1515.8	545.543
1514.94	582.967
1514.07	548.24
1513.21	533.721
1512.34	513.437
1511.47	547.957
1510.6	579.58
1509.74	591.012
1508.87	539.025
1508	585.044
1507.14	550.365
1506.27	532.984
1505.4	573.219
1504.53	567.36
1503.66	590.298
1502.8	578.68
1501.93	607.365
1501.06	581.358
1500.19	589.89
1499.32	632.944
1498.45	586.81
1497.58	563.7
1496.71	583.732
1495.84	572.131
1494.97	618.024
1494.1	626.54
1493.23	540.225
1492.36	606.212
1491.49	594.617
1490.62	603.13
1489.75	628.87
1488.88	637.374
1488.01	631.523
1487.14	631.413
1486.27	634.174
1485.4	634.064
1484.52	654.034
1483.65	602.296
1482.78	676.749
1481.91	711.037
1481.04	662.182
1480.17	676.398
1479.29	644.759
1478.42	673.298
1477.55	667.453
1476.67	718.891
1475.8	724.494
1474.93	810.262
1474.06	801.534
1473.18	781.36
1472.31	904.275
1471.43	875.507
1470.56	938.29
1469.69	1012.49
1468.81	1032.33
1467.94	1183.69
1467.06	1297.83
1466.19	1346.19
1465.31	1440.26
1464.44	1620.02
1463.56	1779.71
1462.69	1847.95
1461.81	2024.68
1460.94	2252.75
1460.06	2306.6
1459.19	2443.2
1458.31	2417.09
1457.43	2325.37
1456.56	2347.79
1455.68	2261.81
1454.8	2181.57
1453.93	2044.34
1453.05	1978.41
1452.17	1881.16
1451.3	1769.7
1450.42	1763.69
1449.54	1692.17
1448.66	1586.49
1447.78	1475.15
1446.91	1494.82
1446.03	1397.77
1445.15	1300.76
1444.27	1388.75
1443.39	1451.11
1442.51	1479.3
1441.64	1444.91
1440.76	1521.45
1439.88	1660.51
1439	1725.6
1438.12	1861.74
1437.24	1830.15
1436.36	1784.37
1435.48	1727.25
1434.6	1709.9
1433.72	1664.17
1432.84	1573.02
1431.96	1427.96
1431.08	1246.06
1430.2	1123.81
1429.31	995.931
1428.43	890.792
1427.55	901.983
1426.67	751.522
1425.79	796.759
1424.91	737.086
1424.02	714.283
1423.14	725.494
1422.26	728.202
1421.38	719.576
1420.49	716.619
1419.61	764.638
1418.73	750.347
1417.85	747.386
1416.96	846.324
1416.08	914.097
1415.2	979.018
1414.31	956.215
1413.43	851.393
1412.54	780.543
1411.66	760.614
1410.78	650.226
1409.89	689.685
1409.01	627.391
1408.12	599.026
1407.24	593.272
1406.35	607.292
1405.47	516.814
1404.58	513.901
1403.7	558.981
1402.81	572.997
1401.92	522.099
1401.04	499.434
1400.15	527.559
1399.27	519.005
1398.38	547.117
1397.49	535.743
1396.61	549.746
1395.72	535.556
1394.83	510.099
1393.94	484.65
1393.06	546.545
1392.17	594.335
1391.28	557.62
1390.39	554.707
1389.51	546.165
1388.62	526.366
1387.73	543.16
1386.84	498.044
1385.95	571.104
1385.06	554.127
1384.17	562.468
1383.29	548.31
1382.4	584.762
1381.51	590.282
1380.62	615.473
1379.73	592.886
1378.84	651.78
1377.95	676.947
1377.06	699.296
1376.17	727.253
1375.28	713.089
1374.39	707.351
1373.5	690.389
1372.6	757.612
1371.71	751.868
1370.82	779.787
1369.93	785.26
1369.04	782.319
1368.15	793.397
1367.26	745.607
1366.36	779.107
1365.47	795.783
1364.58	784.438
1363.69	781.5
1362.79	842.976
1361.9	887.631
1361.01	988.262
1360.11	993.687
1359.22	1052.29
1358.33	1088.48
1357.43	1077.1
1356.54	973.413
1355.65	925.7
1354.75	908.761
1353.86	819.14
1352.96	754.707
1352.07	732.217
1351.17	692.97
1350.28	687.261
1349.39	698.314
1348.49	740.084
1347.59	692.485
1346.7	664.446
1345.8	686.661
1344.91	672.587
1344.01	708.743
1343.12	719.779
1342.22	624.815
1341.32	697.216
1340.43	736.131
1339.53	736.003
1338.63	752.598
1337.74	783.123
1336.84	869.365
1335.94	844.139
1335.04	924.77
1334.15	955.242
1333.25	1083.16
1332.35	1325.18
1331.45	1433.5
1330.55	1591.88
1329.66	1766.9
1328.76	1830.58
1327.86	1782.98
1326.96	1729.82
1326.06	1587.71
1325.16	1395.61
1324.26	1270.28
1323.36	1156.11
1322.46	1058.66
1321.56	941.791
1320.66	844.408
1319.76	885.918
1318.86	844.112
1317.96	793.993
1317.06	757.769
1316.16	790.939
1315.26	743.63
1314.36	701.886
1313.46	721.179
1312.55	740.466
1311.65	693.199
1310.75	670.899
1309.85	748.392
1308.95	726.09
1308.04	745.359
1307.14	714.754
1306.24	808.805
1305.34	750.506
1304.43	797.445
1303.53	822.221
1302.63	819.309
1301.72	830.235
1300.82	830.09
1299.92	824.411
1299.01	932.14
1298.11	967.928
1297.21	1078.36
1296.3	1238.51
1295.4	1586.57
1294.49	1876.46
1293.59	1992.18
1292.68	1779.11
1291.78	1508.11
1290.87	1170.93
1289.97	947.072
1289.06	786.788
1288.16	728.686
1287.25	662.325
1286.34	695.319
1285.44	604.16
1284.53	593.021
1283.62	609.463
1282.72	601.084
1281.81	567.897
1280.9	545.747
1280	564.942
1279.09	506.98
1278.18	553.724
1277.27	528.837
1276.37	542.514
1275.46	578.212
1274.55	492.771
1273.64	566.999
1272.73	509.109
1271.82	500.765
1270.92	486.922
1270.01	495.088
1269.1	497.751
1268.19	525.159
1267.28	527.815
1266.37	491.991
1265.46	519.385
1264.55	557.76
1263.64	527.444
1262.73	513.618
1261.82	491.559
1260.91	494.218
1260	518.837
1259.09	496.789
1258.18	529.632
1257.27	521.307
1256.35	576.08
1255.44	554.037
1254.53	564.908
1253.62	592.227
1252.71	597.605
1251.79	567.351
1250.88	523.405
1249.97	528.793
1249.06	479.391
1248.14	465.612
1247.23	465.53
1246.32	479.138
1245.41	465.366
1244.49	495.391
1243.58	508.986
1242.66	435.024
1241.75	508.806
1240.84	454.016
1239.92	451.201
1239.01	459.324
1238.09	470.178
1237.18	450.963
1236.26	467.279
1235.35	464.465
1234.43	439.798
1233.52	442.451
1232.6	423.259
1231.69	442.295
1230.77	461.326
1229.86	483.078
1228.94	466.62
1228.02	471.995
1227.11	501.917
1226.19	526.375
1225.27	531.736
1224.36	616.159
1223.44	616.05
1222.52	675.901
1221.6	716.655
1220.69	792.813
1219.77	784.501
1218.85	822.491
1217.93	835.961
1217.01	819.479
1216.1	759.449
1215.18	710.327
1214.26	674.827
1213.34	677.429
1212.42	617.467
1211.5	549.367
1210.58	546.55
1209.66	519.267
1208.74	513.739
1207.82	478.318
1206.9	497.254
1205.98	453.698
1205.06	456.334
1204.14	450.822
1203.22	480.611
1202.3	447.948
1201.38	431.582
1200.46	466.787
1199.54	493.838
1198.61	455.77
1197.69	455.689
1196.77	469.168
1195.85	439.259
1194.93	490.691
1194	430.972
1193.08	457.997
1192.16	419.982
1191.24	449.707
1190.31	422.542
1189.39	473.921
1188.47	465.714
1187.54	454.803
1186.62	465.55
1185.7	462.761
1184.77	457.268
1183.85	462.597
1182.92	500.382
1182	462.433
1181.07	483.982
1180.15	473.083
1179.23	470.296
1178.3	556.689
1177.37	529.572
1176.45	510.568
1175.52	650.926
1174.6	577.899
1173.67	629.096
1172.75	701.871
1171.82	734.135
1170.89	787.976
1169.97	1022.57
1169.04	1054.76
1168.11	1170.55
1167.19	1135.28
1166.26	1116.21
1165.33	1091.75
1164.4	991.834
1163.48	940.459
1162.55	956.457
1161.62	867.393
1160.69	913.026
1159.76	899.4
1158.83	875.009
1157.91	834.476
1156.98	941.983
1156.05	947.198
1155.12	1027.74
1154.19	1172.82
1153.26	1285.57
1152.33	1293.41
1151.4	1389.96
1150.47	1317.14
1149.54	1306.16
1148.61	1201.13
1147.68	1085.39
1146.75	999.241
1145.82	870.152
1144.89	789.443
1143.96	740.978
1143.02	582.477
1142.09	638.732
1141.16	606.42
1140.23	571.436
1139.3	595.475
1138.36	595.369
1137.43	571.131
1136.5	605.881
1135.57	608.454
1134.63	565.467
1133.7	656.468
1132.77	645.636
1131.83	835.695
1130.9	865.005
1129.97	1071.02
1129.03	1207.36
1128.1	1319.57
1127.17	1158.76
1126.23	1118.42
1125.3	882.809
1124.36	826.483
1123.43	673.905
1122.49	639.027
1121.56	601.487
1120.62	566.634
1119.69	534.465
1118.75	494.292
1117.81	534.275
1116.88	480.762
1115.94	461.983
1115.01	475.251
1114.07	499.192
1113.13	459.068
1112.2	458.986
1111.26	493.589
1110.32	498.836
1109.38	480.078
1108.45	501.326
1107.51	506.569
1106.57	519.807
1105.63	503.723
1104.69	527.616
1103.76	532.85
1102.82	543.411
1101.88	540.651
1100.94	551.206
1100	495.198
1099.06	577.628
1098.12	521.636
1097.18	521.543
1096.24	484.203
1095.3	481.457
1094.36	476.052
1093.42	489.263
1092.48	473.224
1091.54	486.43
1090.6	454.452
1089.66	462.342
1088.72	433.037
1087.78	512.645
1086.84	499.275
1085.9	485.91
1084.95	515.026
1084.01	435.305
1083.07	482.996
1082.13	506.79
1081.19	522.617
1080.24	501.305
1079.3	501.215
1078.36	485.217
1077.41	540.801
1076.47	474.442
1075.53	461.107
1074.58	529.913
1073.64	521.872
1072.7	519.13
1071.75	492.556
1070.81	492.468
1069.86	505.616
1068.92	563.754
1067.98	513.374
1067.03	605.885
1066.09	658.683
1065.14	751.135
1064.19	877.93
1063.25	1023.19
1062.3	1075.87
1061.36	1176.11
1060.41	1104.56
1059.46	977.543
1058.52	903.405
1057.57	763.267
1056.63	715.6
1055.68	617.788
1054.73	564.884
1053.78	564.783
1052.84	554.128
1051.89	519.732
1050.94	527.552
1049.99	551.193
1049.05	532.637
1048.1	545.723
1047.15	590.436
1046.2	619.32
1045.25	648.193
1044.3	650.712
1043.35	632.157
1042.4	668.913
1041.45	716.189
1040.5	700.265
1039.55	694.875
1038.6	707.909
1037.65	763.037
1036.7	831.298
1035.75	802.217
1034.8	778.406
1033.85	725.681
1032.9	686.119
1031.95	693.881
1031	583.386
1030.05	588.537
1029.1	538.52
1028.14	509.532
1027.19	559.335
1026.24	527.728
1025.29	488.258
1024.33	498.669
1023.38	477.587
1022.43	516.856
1021.48	501.024
1020.52	466.839
1019.57	435.289
1018.62	453.563
1017.66	461.346
1016.71	482.23
1015.75	450.699
1014.8	458.478
1013.85	403.388
1012.89	463.551
1011.94	429.428
1010.98	473.857
1010.03	481.625
1009.07	439.665
1008.12	481.452
1007.16	525.84
1006.2	486.511
1005.25	504.73
1004.29	520.327
1003.34	533.305
1002.38	588.099
1001.42	621.966
1000.47	695.014
999.508	770.648
998.551	833.195
997.594	822.599
996.636	840.728
995.679	738.768
994.721	696.876
993.763	623.683
992.805	613.135
991.846	594.764
990.888	524.237
989.929	505.89
988.97	474.512
988.011	453.573
987.052	456.098
986.093	450.804
985.133	474.171
984.173	492.32
983.213	458.374
982.253	442.668
981.293	468.624
980.333	528.408
979.372	546.531
978.411	614.086
977.45	702.43
976.489	733.517
975.528	842.613
974.566	949.069
973.605	1102.28
972.643	1094.29
971.681	1107.08
970.719	963.977
969.756	828.715
968.794	797.397
967.831	724.54
966.868	680.27
965.905	547.752
964.942	508.721
963.979	490.464
963.015	513.727
962.052	508.447
961.088	495.387
960.124	474.552
959.159	495.208
958.195	453.643
957.23	417.277
956.266	450.889
955.301	435.262
954.336	432.594
953.37	437.696
952.405	471.28
951.439	406.47
950.473	476.287
949.507	458.085
948.541	489.053
947.575	460.507
946.608	512.157
945.642	501.72
944.675	532.658
943.708	586.852
942.741	612.594
941.773	627.99
940.806	648.547
939.838	674.264
938.87	663.811
937.902	568.141
936.934	619.678
935.965	539.539
934.997	467.172
934.028	474.829
933.059	469.583
932.09	466.919
931.121	456.518
930.151	461.593
929.182	461.51
928.212	448.538
927.242	430.415
926.272	427.761
925.301	479.212
924.331	461.094
923.36	448.133
922.389	432.602
921.418	406.778
920.447	417.001
919.475	375.748
918.504	367.961
917.532	452.793
916.56	408.984
915.588	460.345
914.616	475.689
913.643	449.895
912.671	436.962
911.698	424.034
910.725	431.665
909.752	449.57
908.779	475.174
907.805	446.84
906.831	441.624
905.858	482.618
904.883	495.364
903.909	505.539
902.935	549.065
901.96	559.227
900.986	605.292
900.011	625.697
899.036	610.201
898.06	612.654
897.085	597.165
896.109	589.37
895.133	581.577
894.157	540.487
893.181	560.878
892.205	491.64
891.229	524.833
890.252	534.977
889.275	478.577
888.298	452.903
887.321	486.079
886.343	450.181
885.366	508.919
884.388	473.03
883.41	498.509
882.432	485.639
881.454	477.884
880.475	472.688
879.497	429.174
878.518	459.746
877.539	477.538
876.56	500.431
875.58	467.154
874.601	479.831
873.621	502.71
872.641	530.684
871.661	548.445
870.681	599.354
869.701	499.796
868.72	535.399
867.739	514.909
866.758	519.913
865.777	517.271
864.796	484.057
863.815	540.008
862.833	550.097
861.851	560.183
860.869	565.173
859.887	552.343
858.905	557.333
857.922	554.687
856.939	625.818
855.956	551.943
854.973	574.73
853.99	584.796
853.007	599.943
852.023	632.876
851.039	655.632
850.055	665.676
849.071	754.465
848.087	751.788
847.102	777.045
846.118	880.999
845.133	979.838
844.148	1177.62
843.163	1492.06
842.177	1803.85
841.192	2014.06
840.206	1879.28
839.22	1655.8
838.234	1422.26
837.248	1188.8
836.261	1044.13
835.274	967.925
834.288	856.28
833.301	881.454
832.313	855.969
831.326	807.706
830.339	797.433
829.351	784.633
828.363	809.796
827.375	756.516
826.387	784.205
825.398	703.127
824.409	649.895
823.421	682.644
822.432	712.855
821.443	669.759
820.453	737.865
819.464	752.889
818.474	828.533
817.484	742.513
816.494	833.281
815.504	843.228
814.513	974.332
813.523	1125.58
812.532	1337.33
811.541	1538.91
810.55	1884.19
809.559	2279.78
808.567	2453.34
807.575	2405
806.583	2122.26
805.591	1680.87
804.599	1355.54
803.607	1108.42
802.614	934.425
801.621	831.009
800.628	775.467
799.635	755.187
798.642	679.545
797.649	697.035
796.655	613.883
795.661	654.019
794.667	585.995
793.673	578.344
792.678	608.408
791.684	578.133
790.689	535.304
789.694	592.999
788.699	577.817
787.704	562.641
786.708	555.004
785.713	512.218
784.717	507.104
783.721	532.111
782.724	479.315
781.728	464.173
780.731	466.597
779.735	476.544
778.738	461.411
777.741	468.849
776.743	456.229
775.746	466.171
774.748	468.592
773.75	501.077
772.752	458.401
771.754	490.876
770.756	508.314
769.757	473.172
768.758	485.601
767.759	485.512
766.76	477.917
765.761	497.843
764.761	480.244
763.762	495.161
762.762	482.568
761.762	464.981
760.762	424.905
759.761	454.815
758.761	459.729
757.76	457.147
756.759	472.049
755.758	459.477
754.756	439.419
753.755	466.798
752.753	524.116
751.751	511.543
750.749	531.409
749.747	546.278
748.745	578.6
747.742	491.221
746.739	471.187
745.736	498.519
744.733	461.046
743.73	505.812
742.726	538.105
741.723	503.136
740.719	503.044
739.715	502.952
738.71	500.37
737.706	485.345
736.701	487.745
735.697	537.416
734.692	514.93
733.686	517.323
732.681	517.228
731.675	549.454
730.67	539.41
729.664	544.282
728.658	524.304
727.651	563.958
726.645	548.951
725.638	516.565
724.631	516.471
723.624	548.649
722.617	523.728
721.61	521.15
720.602	521.055
719.595	496.151
718.587	570.47
717.578	528.208
716.57	510.755
715.562	532.972
714.553	560.137
713.544	517.908
712.535	550.022
711.526	569.738
710.516	554.773
709.507	522.481
708.497	524.861
707.487	487.635
706.477	512.294
705.467	519.623
704.456	529.424
703.445	494.698
702.434	504.499
701.423	516.769
700.412	551.284
699.401	551.183
698.389	546.14
697.377	526.273
696.365	528.647
695.353	506.321
694.34	538.33
693.328	493.79
692.315	530.727
691.302	528.162
690.289	542.87
689.276	498.362
688.262	500.737
687.249	547.504
686.235	532.608
685.221	530.045
684.206	606.359
683.192	552.03
682.177	583.96
681.162	601.098
680.147	583.746
679.132	652.591
678.117	566.296
677.101	539.113
676.086	497.173
675.07	514.307
674.054	533.895
673.037	551.016
672.021	590.266
671.004	543.437
669.987	531.044
668.97	526.03
667.953	552.967
666.936	545.494
665.918	562.591
664.9	567.4
663.882	540.281
662.864	537.726
661.846	579.361
660.827	554.71
659.808	571.786
658.789	574.134
657.77	574.028
656.751	593.544
655.731	532.13
654.712	536.935
653.692	605.473
652.672	571.049
651.652	558.692
650.631	585.539
649.611	546.239
648.59	587.772
647.569	607.252
646.548	594.9
645.526	624.163
644.505	597.128
643.483	677.762
642.461	582.23
641.439	645.716
640.417	662.715
639.394	589.243
638.371	657.581
637.348	623.243
636.325	662.226
635.302	620.57
634.279	637.554
633.255	647.206
632.231	669.063
631.207	664.057
630.183	722.517
629.159	654.05
628.134	695.41
627.109	700.161
626.084	695.153
625.059	687.709
624.034	719.279
623.008	721.584
621.983	760.448
620.957	711.57
619.931	735.803
618.904	704
617.878	801.291
616.851	762.182
615.824	749.868
614.797	800.847
613.77	788.531
612.743	871.117
611.715	795.538
610.687	783.229
609.659	746.605
608.631	785.371
607.603	758.484
606.574	792.373
605.546	729.042
604.517	767.783
603.487	772.499
602.458	782.072
601.429	774.642
600.399	774.499
599.369	801.058
598.339	788.774
597.309	771.643
596.278	754.517
595.248	773.783
594.217	802.742
593.186	749.249
592.155	717.595
591.123	727.157
590.091	751.257
589.06	775.347
588.028	784.894
586.996	729.041
585.963	724.063
584.931	740.877
583.898	704.429
582.865	757.545
581.832	735.626
580.798	689.522
579.765	742.611
578.731	776.332
577.697	715.737
576.663	742.198
575.629	804.906
574.594	780.59
573.56	729.705
572.525	736.817
571.49	712.527
570.455	719.64
569.419	683.289
568.384	748.341
567.348	702.345
566.312	692.562
565.276	762.401
564.239	747.786
563.203	759.706
562.166	754.743
561.129	759.425
560.092	817.134
559.054	814.573
558.017	889.117
556.979	852.816
555.941	835.797
554.903	833.234
553.865	825.856
552.826	789.593
551.787	820.736
550.749	798.926
549.709	834.867
548.67	815.468
547.631	812.912
546.591	858.449
545.551	836.652
544.511	850.919
543.471	894.02
542.43	838.589
541.39	848.042
540.349	833.473
539.308	912.568
538.267	924.404
537.225	945.837
536.184	1005.67
535.142	986.281
534.1	1050.88
533.058	1014.7
532.015	1009.72
530.973	1019.12
529.93	1016.53
528.887	1021.14
527.844	1064.09
526.801	1083.06
525.757	1104.42
524.713	1025.17
523.669	1082.45
522.625	986.478
521.581	1065.29
520.537	1029.19
519.492	983.535
518.447	1033.6
517.402	978.385
516.357	947.111
515.311	954.108
514.265	985.011
513.22	968.095
512.174	927.287
511.127	903.219
510.081	883.939
509.034	876.609
507.987	907.491
506.94	876.282
505.893	890.443
504.846	859.249
503.798	871.02
502.75	887.56
501.702	918.405
500.654	834.758
499.606	968.14
