3200.54	50.5175
3199.95	37.8881
3199.35	21.0458
3198.76	42.0852
3198.16	37.8709
3197.57	37.8652
3196.98	46.2727
3196.38	33.6478
3195.79	25.232
3195.19	50.4564
3194.6	46.2447
3194	37.8309
3193.41	42.028
3192.81	21.0108
3192.22	46.2168
3191.62	63.0134
3191.03	42.0025
3190.43	50.3954
3189.84	41.9898
3189.24	46.1818
3188.65	67.1634
3188.05	37.7737
3187.45	46.1609
3186.86	20.979
3186.26	25.171
3185.67	-8.38908
3185.07	62.9086
3184.47	54.5125
3183.88	29.3485
3183.28	54.496
3182.69	54.4878
3182.09	33.5259
3181.49	29.3307
3180.9	25.1368
3180.3	4.18883
3179.7	33.5056
3179.1	50.2507
3178.51	46.0562
3177.91	37.6767
3177.31	25.114
3176.72	29.2952
3176.12	25.1064
3175.52	20.9188
3174.92	66.93
3174.33	46.0074
3173.73	29.273
3173.13	41.8123
3172.53	58.5283
3171.93	33.4397
3171.34	83.5865
3170.74	41.7869
3170.14	41.7806
3169.54	71.0163
3168.94	45.9447
3168.34	25.057
3167.74	25.0532
3167.15	45.9239
3166.55	33.3941
3165.95	41.7363
3165.35	33.384
3164.75	12.5171
3164.15	58.4043
3163.55	50.0532
3162.95	41.7047
3162.35	20.8492
3161.75	33.3536
3161.15	29.18
3160.55	33.3435
3159.95	25.0039
3159.35	12.5
3158.75	37.4944
3158.15	45.8196
3157.55	20.8239
3156.95	41.6415
3156.35	37.4717
3155.75	29.1402
3155.15	41.6226
3154.55	8.32325
3153.95	20.805
3153.35	16.6415
3152.75	49.9168
3152.15	66.5456
3151.54	41.5847
3150.94	58.2098
3150.34	29.1005
3149.74	37.4092
3149.14	37.4035
3148.54	29.0872
3147.94	33.2375
3147.33	33.2324
3146.73	24.9206
3146.13	49.8335
3145.53	53.9781
3144.93	53.9699
3144.32	58.1127
3143.72	20.7514
3143.12	33.1972
3142.52	33.1921
3141.91	62.2258
3141.31	53.9208
3140.71	37.3241
3140.1	49.7579
3139.5	49.7504
3138.9	41.4524
3138.29	53.8799
3137.69	53.8717
3137.09	20.7167
3136.48	28.999
3135.88	62.1313
3135.28	41.4146
3134.67	28.9858
3134.07	37.2618
3133.47	28.977
3132.86	78.6399
3132.26	49.6598
3131.65	33.1015
3131.05	24.8223
3130.45	12.4093
3129.84	45.4938
3129.24	24.811
3128.63	20.6727
3128.03	33.0713
3127.42	53.7327
3126.82	70.2552
3126.21	33.0562
3125.61	28.9198
3125	41.3077
3124.4	57.822
3123.79	66.0723
3123.19	28.9022
3122.58	45.4109
3121.97	33.0211
3121.37	33.0161
3120.76	61.8957
3120.16	41.2575
3119.55	53.6266
3118.94	41.245
3118.34	28.8671
3117.73	32.9859
3117.13	37.1035
3116.52	41.2199
3115.91	32.9709
3115.31	45.3281
3114.7	57.6815
3114.09	53.5532
3113.48	16.4754
3112.88	16.4729
3112.27	57.6464
3111.66	32.9358
3111.06	37.0471
3110.45	45.2729
3109.84	45.266
3109.23	37.0302
3108.63	8.22768
3108.02	53.4718
3107.41	37.0133
3106.8	20.5598
3106.19	57.5587
3105.59	57.5499
3104.98	36.9908
3104.37	20.5473
3103.76	36.9795
3103.15	41.0821
3102.54	32.8607
3101.93	49.2835
3101.33	57.4886
3100.72	57.4799
3100.11	57.4711
3099.5	73.8802
3098.89	57.4536
3098.28	41.032
3097.67	24.6155
3097.06	41.0195
3096.45	16.4053
3095.84	41.007
3095.23	24.6005
3094.62	32.7956
3094.01	16.3953
3093.4	53.2767
3092.79	53.2685
3092.18	57.3574
3091.57	53.2523
3090.96	16.3828
3090.35	73.7115
3089.74	65.5113
3089.13	45.0322
3088.52	32.7457
3087.91	49.111
3087.3	49.1035
3086.69	45.0047
3086.08	49.0886
3085.46	49.0811
3084.85	53.1631
3084.24	44.9773
3083.63	36.794
3083.02	49.0511
3082.41	49.0437
3081.79	44.9498
3081.18	32.6858
3080.57	40.851
3079.96	65.3517
3079.35	65.3417
3078.73	48.9988
3078.12	40.8261
3077.51	53.0658
3076.9	69.3832
3076.28	65.2919
3075.67	65.2819
3075.06	61.1924
3074.45	32.631
3073.83	40.7825
3073.22	53.0092
3072.61	44.8471
3071.99	32.6111
3071.38	85.591
3070.77	57.0519
3070.15	32.5961
3069.54	44.8128
3068.93	40.7327
3068.31	69.235
3067.7	32.5762
3067.08	44.7855
3066.47	52.9202
3065.86	40.7016
3065.24	44.765
3064.63	48.827
3064.01	16.2732
3063.4	36.6091
3062.78	32.5364
3062.17	36.5979
3061.55	56.9214
3060.94	85.369
3060.32	77.2268
3059.71	65.0232
3059.09	44.6966
3058.48	65.0033
3057.86	36.5588
3057.25	69.0449
3056.63	60.9127
3056.02	52.7829
3055.4	48.7152
3054.78	56.8258
3054.17	60.8754
3053.55	68.9816
3052.94	77.0853
3052.32	93.2995
3051.7	68.95
3051.09	44.6079
3050.47	81.0928
3049.85	85.1344
3049.24	40.534
3048.62	32.4222
3048	60.7824
3047.39	52.67
3046.77	64.8147
3046.15	56.7042
3045.53	64.7949
3044.92	40.4906
3044.3	48.5813
3043.68	56.6695
3043.06	36.4248
3042.45	84.9783
3041.83	56.6435
3041.21	72.8162
3040.59	72.8051
3039.97	52.5734
3039.35	76.8263
3038.74	40.4287
3038.12	68.7183
3037.5	60.6245
3036.88	76.7793
3036.26	36.3636
3035.64	64.6364
3035.02	60.5874
3034.41	52.501
3033.79	72.6826
3033.17	68.6342
3032.55	56.5136
3031.93	92.8295
3031.31	72.6381
3030.69	104.906
3030.07	48.4105
3029.45	56.4703
3028.83	36.2968
3028.21	36.2912
3027.59	84.6666
3026.97	52.4046
3026.35	60.4576
3025.73	72.538
3025.11	68.4976
3024.49	52.3725
3023.87	116.813
3023.25	68.4661
3022.63	56.3752
3022	80.5237
3021.38	64.4091
3020.76	88.5489
3020.14	72.438
3019.52	76.4506
3018.9	72.4158
3018.28	68.3822
3017.66	64.3499
3017.03	76.4037
3016.41	56.2889
3015.79	76.3803
3015.17	96.4656
3014.55	72.3381
3013.92	60.2725
3013.3	72.3159
3012.68	84.3556
3012.06	72.2937
3011.43	68.2669
3010.81	80.3017
3010.19	76.2749
3009.57	76.2632
3008.94	64.2118
3008.32	80.2525
3007.7	96.2882
3007.07	84.2392
3006.45	84.2263
3005.83	72.1829
3005.2	96.2291
3004.58	116.259
3003.96	92.1912
3003.33	76.1463
3002.71	100.177
3002.08	108.175
3001.46	76.1112
3000.84	112.147
3000.21	76.0879
2999.59	64.0642
2998.96	108.092
2998.34	104.072
2997.71	120.065
2997.09	108.042
2996.46	68.0159
2995.84	80.0064
2995.21	99.9927
2994.59	67.9846
2993.96	115.956
2993.34	119.936
2992.71	111.923
2992.09	87.926
2991.46	131.869
2990.84	123.858
2990.21	115.849
2989.58	91.8662
2988.96	135.781
2988.33	87.845
2987.71	127.755
2987.08	127.735
2986.45	127.716
2985.83	95.772
2985.2	151.616
2984.57	119.678
2983.95	127.637
2983.32	167.498
2982.69	135.573
2982.07	151.499
2981.44	163.434
2980.81	167.395
2980.18	171.354
2979.56	123.515
2978.93	159.35
2978.3	183.225
2977.67	127.441
2977.05	191.132
2976.42	179.159
2975.79	226.899
2975.16	210.944
2974.53	187.035
2973.91	250.668
2973.28	246.651
2972.65	254.568
2972.02	210.782
2971.39	306.183
2970.76	286.257
2970.13	298.139
2969.5	357.711
2968.88	317.917
2968.25	357.601
2967.62	393.301
2966.99	413.101
2966.36	440.838
2965.73	397.09
2965.1	476.435
2964.47	436.665
2963.84	480.257
2963.21	531.773
2962.58	480.109
2961.95	579.216
2961.32	555.327
2960.69	622.664
2960.06	578.949
2959.43	654.191
2958.8	662.018
2958.17	590.572
2957.53	582.555
2956.9	693.411
2956.27	602.184
2955.64	681.314
2955.01	657.446
2954.38	621.706
2953.75	593.895
2953.12	692.77
2952.48	700.58
2951.85	716.302
2951.22	696.407
2950.59	803.118
2949.96	830.684
2949.33	763.32
2948.69	723.659
2948.06	751.224
2947.43	719.482
2946.8	719.371
2946.16	711.356
2945.53	675.684
2944.9	643.974
2944.26	572.772
2943.63	564.785
2943	564.698
2942.37	572.507
2941.73	596.105
2941.1	548.648
2940.47	505.152
2939.83	580.046
2939.2	619.409
2938.56	607.48
2937.93	575.833
2937.3	603.349
2936.66	607.198
2936.03	591.336
2935.39	681.902
2934.76	740.912
2934.13	685.632
2933.49	693.406
2932.86	803.596
2932.22	752.271
2931.59	862.418
2930.95	834.723
2930.32	846.405
2929.68	893.508
2929.05	999.63
2928.41	964.061
2927.78	1030.8
2927.14	1054.24
2926.5	1140.6
2925.87	1101.1
2925.23	1163.84
2924.6	1250.15
2923.96	1246.03
2923.32	1163.3
2922.69	1249.57
2922.05	1198.31
2921.42	1308.11
2920.78	1272.56
2920.14	1225.24
2919.51	1232.9
2918.87	1311.23
2918.23	1244.3
2917.6	1310.82
2916.96	1310.62
2916.32	1251.57
2915.68	1169
2915.05	1223.73
2914.41	1203.93
2913.77	1239.03
2913.13	1231
2912.5	1266.09
2911.86	1277.65
2911.22	1246.1
2910.58	1320.35
2909.94	1355.4
2909.31	1335.61
2908.67	1394.14
2908.03	1464.41
2907.39	1495.5
2906.75	1608.79
2906.11	1628.1
2905.47	1706.12
2904.83	1729.33
2904.2	1795.56
2903.56	1912.62
2902.92	1869.31
2902.28	1927.67
2901.64	1989.92
2901	1934.89
2900.36	1911.14
2899.72	1996.82
2899.08	1922.27
2898.44	1902.44
2897.8	1890.43
2897.16	1757.36
2896.52	1952.32
2895.88	1955.92
2895.24	1869.74
2894.6	1861.65
2893.96	1845.75
2893.32	1876.68
2892.67	1813.97
2892.03	1973.61
2891.39	1957.7
2890.75	1941.8
2890.11	1933.7
2889.47	2023.06
2888.83	2053.92
2888.19	2115.96
2887.54	2271.47
2886.9	2278.91
2886.26	2372.04
2885.62	2422.3
2884.98	2460.86
2884.33	2623.99
2883.69	2576.88
2883.05	2852.81
2882.41	2856.26
2881.77	3112.6
2881.12	3252.17
2880.48	3461.7
2879.84	3885.06
2879.19	3771.69
2878.55	3872.19
2877.91	3712.21
2877.26	3591.16
2876.62	3392.42
2875.98	3228.71
2875.33	2991.24
2874.69	2664.51
2874.05	2737.88
2873.4	2520.01
2872.76	2445.86
2872.11	2329.03
2871.47	2313.14
2870.83	2254.58
2870.18	2199.91
2869.54	2199.57
2868.89	2280.68
2868.25	2187.25
2867.6	2113.24
2866.96	2205.96
2866.31	2337.41
2865.67	2356.42
2865.02	2390.93
2864.38	2316.95
2863.73	2273.98
2863.09	2374.33
2862.44	2180.32
2861.8	2129.65
2861.15	2082.86
2860.5	2128.99
2859.86	1977.72
2859.21	1880.67
2858.57	1837.82
2857.92	1849.14
2857.27	1798.57
2856.63	1732.54
2855.98	1624.01
2855.33	1701.08
2854.69	1669.89
2854.04	1754.66
2853.39	1843.26
2852.75	1854.57
2852.1	1823.37
2851.45	1869.44
2850.81	1892.32
2850.16	2019.45
2849.51	1995.97
2848.86	2238.85
2848.21	2215.34
2847.57	2249.73
2846.92	2492.45
2846.27	2384.05
2845.62	2507.1
2844.97	2510.57
2844.33	2645.14
2843.68	2621.59
2843.03	2640.46
2842.38	2628.49
2841.73	2739.83
2841.08	2558.32
2840.43	2623.41
2839.78	2553.67
2839.14	2584.08
2838.49	2291.04
2837.84	2375.38
2837.19	2186.4
2836.54	2132.18
2835.89	2031.79
2835.24	2016.09
2834.59	1842.66
2833.94	1642.37
2833.29	1492.13
2832.64	1357.32
2831.99	1280.22
2831.34	1114.73
2830.69	1095.34
2830.04	876.138
2829.39	852.949
2828.74	829.767
2828.08	676.001
2827.43	672.056
2826.78	564.439
2826.13	556.673
2825.48	533.555
2824.83	475.903
2824.18	479.666
2823.53	402.857
2822.87	410.467
2822.22	356.705
2821.57	379.659
2820.92	356.594
2820.27	371.873
2819.61	314.318
2818.96	329.6
2818.31	341.044
2817.66	295.015
2817	283.476
2816.35	314.074
2815.7	268.07
2815.05	271.857
2814.39	279.471
2813.74	225.839
2813.09	214.322
2812.43	260.208
2811.78	237.211
2811.13	221.873
2810.47	248.612
2809.82	202.683
2809.16	179.709
2808.51	225.558
2807.86	221.7
2807.2	202.556
2806.55	206.346
2805.89	198.673
2805.24	221.562
2804.58	232.985
2803.93	183.304
2803.28	179.457
2802.62	190.882
2801.97	164.133
2801.31	202.272
2800.66	175.53
2800	194.579
2799.34	213.622
2798.69	175.448
2798.03	183.047
2797.38	186.831
2796.72	167.741
2796.07	152.468
2795.41	182.933
2794.75	175.283
2794.1	179.066
2793.44	179.038
2792.79	194.245
2792.13	182.79
2791.47	163.724
2790.82	216.996
2790.16	175.092
2789.5	156.036
2788.84	129.375
2788.19	182.619
2787.53	171.179
2786.87	186.365
2786.22	129.295
2785.56	155.89
2784.9	167.27
2784.24	190.05
2783.59	148.216
2782.93	163.392
2782.27	144.37
2781.61	167.14
2780.95	151.921
2780.29	189.872
2779.64	155.671
2778.98	197.405
2778.32	204.966
2777.66	163.188
2777	178.34
2776.34	144.167
2775.68	159.318
2775.02	128.952
2774.36	170.645
2773.71	163.035
2773.05	159.218
2772.39	140.242
2771.73	174.328
2771.07	162.933
2770.41	170.485
2769.75	185.61
2769.09	155.282
2768.43	124.963
2767.77	140.089
2767.11	155.209
2766.45	170.325
2765.79	155.16
2765.12	174.055
2764.46	158.895
2763.8	192.914
2763.14	185.32
2762.48	158.821
2761.82	147.453
2761.16	154.991
2760.5	147.407
2759.83	170.058
2759.17	166.253
2758.51	200.228
2757.85	173.756
2757.19	173.729
2756.53	158.597
2755.86	181.225
2755.2	211.396
2754.54	211.363
2753.88	230.199
2753.21	203.751
2752.55	158.448
2751.89	230.091
2751.23	192.341
2750.56	241.331
2749.9	203.591
2749.24	192.251
2748.57	195.99
2747.91	237.412
2747.25	229.839
2746.58	237.337
2745.92	184.567
2745.25	233.497
2744.59	210.867
2743.93	222.129
2743.26	225.858
2742.6	248.405
2741.93	248.366
2741.27	267.14
2740.61	240.765
2739.94	214.397
2739.28	259.493
2738.61	289.534
2737.95	248.133
2737.28	263.13
2736.62	274.364
2735.95	255.532
2735.29	281.793
2734.62	353.125
2733.95	296.728
2733.29	300.437
2732.62	319.165
2731.96	337.886
2731.29	330.326
2730.62	349.039
2729.96	341.48
2729.29	382.697
2728.63	393.891
2727.96	397.58
2727.29	382.517
2726.63	412.454
2725.96	419.887
2725.29	449.808
2724.62	487.216
2723.96	554.59
2723.29	502.05
2722.62	520.701
2721.96	505.638
2721.29	509.303
2720.62	539.177
2719.95	520.374
2719.28	501.577
2718.62	598.804
2717.95	516.387
2717.28	561.202
2716.61	579.818
2715.94	475.002
2715.27	497.365
2714.61	530.938
2713.94	500.947
2713.27	493.393
2712.6	448.469
2711.93	452.135
2711.26	384.815
2710.59	459.464
2709.92	380.959
2709.25	347.29
2708.58	332.301
2707.91	395.712
2707.24	399.382
2706.57	365.732
2705.9	343.286
2705.23	332.04
2704.56	361.829
2703.89	376.691
2703.22	328.154
2702.55	316.917
2701.88	313.14
2701.21	279.545
2700.54	313.041
2699.87	298.088
2699.2	301.766
2698.53	268.194
2697.86	271.877
2697.19	286.729
2696.51	271.791
2695.84	271.748
2695.17	275.428
2694.5	260.499
2693.83	267.899
2693.15	264.137
2692.48	234.338
2691.81	256.616
2691.14	267.731
2690.47	234.228
2689.79	219.321
2689.12	241.587
2688.45	204.388
2687.77	222.933
2687.1	211.753
2686.43	196.863
2685.76	219.114
2685.08	233.933
2684.41	219.045
2683.74	248.707
2683.06	163.304
2682.39	174.411
2681.71	192.935
2681.04	218.873
2680.37	226.257
2679.69	241.055
2679.02	233.601
2678.34	185.369
2677.67	218.701
2676.99	203.841
2676.32	226.043
2675.65	200.072
2674.97	225.972
2674.3	218.529
2673.62	233.307
2672.95	199.946
2672.27	225.829
2671.59	244.302
2670.92	185.048
2670.24	185.019
2669.57	192.389
2668.89	247.847
2668.22	196.027
2667.54	207.09
2666.86	199.663
2666.19	214.419
2665.51	214.385
2664.83	184.785
2664.16	192.147
2663.48	210.589
2662.8	158.84
2662.13	214.216
2661.45	210.489
2660.77	214.148
2660.1	232.573
2659.42	203.008
2658.74	173.452
2658.06	221.393
2657.39	195.533
2656.71	202.88
2656.03	213.912
2655.35	206.503
2654.68	228.592
2654	250.675
2653.32	232.206
2652.64	228.484
2651.96	191.602
2651.28	243.148
2650.6	268.894
2649.93	209.925
2649.25	220.939
2648.57	213.541
2647.89	276.087
2647.21	228.196
2646.53	209.76
2645.85	209.727
2645.17	231.767
2644.49	198.626
2643.81	209.627
2643.13	235.334
2642.45	216.914
2641.77	260.991
2641.09	231.547
2640.41	180.064
2639.73	205.755
2639.05	220.416
2638.37	231.401
2637.69	183.622
2637.01	194.609
2636.33	176.222
2635.65	212.901
2634.96	190.847
2634.28	198.155
2633.6	216.469
2632.92	176.083
2632.24	165.051
2631.56	220.034
2630.88	208.999
2630.19	216.298
2629.51	175.943
2628.83	157.591
2628.15	175.888
2627.46	175.86
2626.78	183.158
2626.1	186.792
2625.42	205.073
2624.73	179.41
2624.05	190.364
2623.37	215.956
2622.69	172.006
2622	204.91
2621.32	182.927
2620.64	179.24
2619.95	142.638
2619.27	175.526
2618.58	179.155
2617.9	153.537
2617.22	222.959
2616.53	197.342
2615.85	215.58
2615.16	186.32
2614.48	211.859
2613.79	182.609
2613.11	200.838
2612.43	164.296
2611.74	189.823
2611.06	156.944
2610.37	200.71
2609.69	222.571
2609	215.239
2608.31	171.435
2607.63	178.702
2606.94	200.552
2606.26	185.937
2605.57	200.488
2604.89	174.944
2604.2	207.713
2603.51	214.967
2602.83	167.575
2602.14	200.329
2601.45	163.88
2600.77	182.06
2600.08	222.078
2599.39	192.922
2598.71	167.415
2598.02	207.417
2597.33	196.469
2596.65	174.611
2595.96	221.867
2595.27	200.012
2594.58	232.704
2593.9	174.501
2593.21	181.743
2592.52	181.714
2591.83	218.022
2591.14	192.555
2590.46	174.362
2589.77	203.39
2589.08	163.413
2588.39	206.957
2587.7	177.882
2587.01	203.261
2586.32	203.229
2585.64	195.94
2584.95	206.792
2584.26	177.741
2583.57	203.1
2582.88	210.32
2582.19	206.661
2581.5	181.253
2580.81	239.216
2580.12	195.691
2579.43	166.673
2578.74	188.383
2578.05	173.865
2577.36	126.756
2576.67	170.189
2575.98	173.782
2575.29	173.754
2574.6	173.727
2573.91	151.987
2573.22	173.672
2572.52	137.468
2571.83	191.702
2571.14	155.507
2570.45	169.945
2569.76	191.61
2569.07	184.35
2568.38	159.022
2567.68	140.929
2566.99	173.423
2566.3	140.884
2565.61	184.204
2564.92	155.284
2564.22	115.542
2563.53	166.065
2562.84	151.601
2562.14	140.75
2561.45	173.203
2560.76	162.352
2560.07	173.148
2559.37	165.907
2558.68	169.487
2557.99	137.01
2557.29	140.593
2556.6	162.197
2555.91	169.379
2555.21	180.162
2554.52	129.696
2553.82	183.707
2553.13	169.271
2552.44	144.038
2551.74	147.615
2551.05	169.191
2550.35	161.965
2549.66	183.531
2548.96	169.11
2548.27	129.51
2547.57	158.265
2546.88	158.24
2546.18	165.406
2545.49	140.214
2544.79	158.164
2544.1	132.981
2543.4	150.927
2542.7	179.647
2542.01	147.287
2541.31	172.406
2540.62	147.24
2539.92	147.216
2539.22	157.963
2538.53	136.401
2537.83	147.146
2537.13	183.006
2536.44	143.511
2535.74	182.948
2535.04	154.226
2534.35	121.926
2533.65	143.42
2532.95	121.888
2532.25	164.88
2531.56	143.351
2530.86	164.828
2530.16	136.14
2529.46	179.104
2528.76	157.586
2528.07	100.266
2527.37	157.536
2526.67	182.569
2525.97	132.431
2525.27	128.831
2524.57	146.701
2523.88	128.79
2523.18	157.385
2522.48	178.818
2521.78	160.911
2521.08	171.611
2520.38	168.009
2519.68	178.704
2518.98	142.941
2518.28	157.21
2517.58	160.757
2516.88	146.444
2516.18	178.562
2515.48	135.685
2514.78	157.084
2514.08	171.337
2513.38	128.482
2512.68	135.599
2511.98	146.28
2511.28	121.286
2510.58	192.601
2509.88	146.21
2509.17	131.925
2508.47	153.294
2507.77	167.527
2507.07	153.245
2506.37	153.22
2505.67	156.758
2504.97	153.171
2504.26	128.216
2503.56	110.391
2502.86	181.581
2502.16	117.475
2501.45	142.371
2500.75	135.231
2500.05	142.326
2499.35	163.648
2498.64	149.394
2497.94	149.37
2497.24	149.347
2496.53	131.546
2495.83	142.189
2495.13	159.937
2494.42	135.037
2493.72	159.886
2493.02	156.308
2492.31	127.868
2491.61	117.194
2490.9	138.48
2490.2	159.759
2489.5	117.138
2488.79	149.06
2488.09	138.391
2487.38	170.3
2486.68	138.347
2485.97	124.137
2485.27	145.395
2484.56	138.28
2483.86	152.439
2483.15	102.791
2482.45	134.67
2481.74	145.279
2481.04	148.798
2480.33	141.69
2479.62	170.001
2478.92	141.645
2478.21	134.541
2477.51	191.159
2476.8	145.116
2476.09	176.942
2475.39	180.452
2474.68	176.886
2473.97	130.875
2473.27	116.707
2472.56	137.905
2471.85	166.166
2471.14	169.675
2470.44	151.976
2469.73	148.418
2469.02	141.328
2468.31	176.631
2467.61	180.135
2466.9	173.043
2466.19	169.484
2465.48	155.336
2464.77	165.9
2464.07	187.049
2463.36	179.962
2462.65	179.933
2461.94	162.266
2461.23	144.606
2460.52	155.162
2459.81	148.085
2459.1	148.061
2458.4	162.136
2457.69	190.304
2456.98	144.467
2456.27	144.443
2455.56	137.375
2454.85	169.05
2454.14	183.109
2453.43	165.475
2452.72	140.808
2452.01	168.942
2451.3	175.953
2450.59	175.925
2449.88	168.861
2449.16	161.799
2448.45	165.29
2447.74	158.231
2447.03	203.909
2446.32	172.24
2445.61	196.815
2444.9	193.269
2444.19	147.564
2443.47	147.54
2442.76	161.565
2442.05	161.539
2441.34	126.402
2440.63	175.53
2439.91	157.952
2439.2	182.493
2438.49	154.392
2437.78	199.976
2437.06	178.897
2436.35	171.854
2435.64	157.8
2434.93	185.823
2434.21	164.76
2433.5	175.248
2432.79	192.742
2432.07	164.681
2431.36	203.19
2430.64	182.141
2429.93	196.121
2429.22	199.591
2428.5	189.056
2427.79	161.021
2427.07	185.495
2426.36	171.468
2425.65	195.932
2424.93	153.922
2424.22	188.873
2423.5	227.311
2422.79	178.323
2422.07	153.823
2421.36	202.734
2420.64	178.237
2419.92	199.174
2419.21	185.167
2418.49	164.178
2417.78	164.152
2417.06	171.11
2416.35	202.505
2415.63	185.018
2414.91	181.498
2414.2	171
2413.48	160.504
2412.76	191.877
2412.05	188.358
2411.33	174.377
2410.61	170.862
2409.9	181.294
2409.18	209.152
2408.46	174.265
2407.74	177.722
2407.03	205.567
2406.31	149.796
2405.59	191.568
2404.87	198.502
2404.16	174.097
2403.44	156.662
2402.72	215.811
2402	180.973
2401.28	170.505
2400.56	180.915
2399.85	180.886
2399.13	173.901
2398.41	170.395
2397.69	163.414
2396.97	198.151
2396.25	177.264
2395.53	159.86
2394.81	173.733
2394.09	152.86
2393.37	191.044
2392.65	180.595
2391.93	204.873
2391.21	218.727
2390.49	173.565
2389.77	166.595
2389.05	163.098
2388.33	170.011
2387.61	197.736
2386.89	166.488
2386.17	183.801
2385.45	166.434
2384.73	197.609
2384	201.043
2383.28	194.079
2382.56	190.583
2381.84	200.946
2381.12	180.129
2380.4	187.027
2379.67	176.608
2378.95	159.268
2378.23	162.704
2377.51	152.294
2376.79	186.877
2376.06	183.386
2375.34	179.897
2374.62	200.622
2373.9	138.338
2373.17	204.015
2372.45	155.58
2371.73	179.752
2371	158.986
2370.28	186.605
2369.56	165.845
2368.83	228
2368.11	203.785
2367.38	186.485
2366.66	200.266
2365.94	186.425
2365.21	200.202
2364.49	189.816
2363.76	169.081
2363.04	172.504
2362.31	189.724
2361.59	186.244
2360.86	217.25
2360.14	172.393
2359.41	162.023
2358.69	161.997
2357.96	182.648
2357.24	199.846
2356.51	182.589
2355.79	155.003
2355.06	182.53
2354.33	185.943
2353.61	189.356
2352.88	216.864
2352.15	234.037
2351.43	189.264
2350.7	209.878
2349.98	175.443
2349.25	171.975
2348.52	182.264
2347.79	199.427
2347.07	182.205
2346.34	199.362
2345.61	171.836
2344.88	209.606
2344.16	178.652
2343.43	216.409
2342.7	188.898
2341.97	168.263
2341.25	175.103
2340.52	236.866
2339.79	209.369
2339.06	199.04
2338.33	192.145
2337.6	185.253
2336.87	181.793
2336.14	219.488
2335.42	198.879
2334.69	188.562
2333.96	185.103
2333.23	185.073
2332.5	195.323
2331.77	188.439
2331.04	191.835
2330.31	181.528
2329.58	198.621
2328.85	184.894
2328.12	174.593
2327.39	205.371
2326.66	201.915
2325.93	212.148
2325.2	191.586
2324.47	171.031
2323.73	191.524
2323	201.752
2322.27	194.881
2321.54	201.686
2320.81	184.564
2320.08	252.88
2319.35	201.588
2318.61	218.637
2317.88	201.523
2317.15	215.151
2316.42	259.505
2315.69	204.839
2314.95	238.94
2314.22	177.47
2313.49	204.739
2312.76	221.765
2312.02	201.262
2311.29	201.229
2310.56	211.427
2309.82	197.754
2309.09	177.268
2308.36	235.183
2307.62	238.553
2306.89	255.551
2306.16	197.594
2305.42	204.374
2304.69	204.341
2303.95	224.739
2303.22	221.298
2302.48	194.03
2301.75	217.823
2301.02	217.787
2300.28	187.13
2299.55	238.127
2298.81	204.076
2298.08	204.043
2297.34	224.411
2296.6	169.981
2295.87	193.746
2295.13	200.512
2294.4	224.265
2293.66	217.434
2292.93	203.811
2292.19	183.4
2291.45	200.349
2290.72	234.269
2289.98	196.889
2289.24	190.069
2288.51	217.187
2287.77	230.723
2287.03	213.724
2286.3	172.986
2285.56	200.089
2284.82	203.447
2284.08	216.975
2283.35	199.991
2282.61	223.683
2281.87	223.647
2281.13	169.402
2280.4	196.474
2279.66	189.668
2278.92	216.728
2278.18	182.835
2277.44	199.731
2276.7	226.777
2275.97	219.972
2275.23	209.785
2274.49	209.751
2273.75	186.039
2273.01	213.065
2272.27	240.081
2271.53	226.519
2270.79	219.721
2270.05	196.027
2269.31	216.271
2268.57	195.963
2267.83	209.444
2267.09	168.879
2266.35	212.753
2265.61	199.212
2264.87	182.3
2264.13	243.027
2263.39	215.989
2262.65	205.831
2261.91	209.171
2261.17	242.869
2260.42	242.83
2259.68	222.558
2258.94	246.122
2258.2	212.372
2257.46	252.783
2256.72	212.303
2255.97	219.007
2255.23	252.659
2254.49	222.304
2253.75	259.312
2253	228.966
2252.26	235.662
2251.52	215.427
2250.78	215.392
2250.03	232.182
2249.29	259.059
2248.55	201.831
2247.8	232.068
2247.06	215.217
2246.32	208.457
2245.57	215.146
2244.83	235.278
2244.09	228.518
2243.34	258.721
2242.6	235.163
2241.85	241.842
2241.11	208.219
2240.36	235.048
2239.62	265.225
2238.88	221.544
2238.13	231.577
2237.39	244.961
2236.64	244.922
2235.89	201.273
2235.15	248.196
2234.4	231.388
2233.66	207.88
2232.91	207.846
2232.17	217.867
2231.42	237.939
2230.67	234.55
2229.93	204.36
2229.18	221.075
2228.44	200.944
2227.69	217.654
2226.94	231.011
2226.2	207.541
2225.45	207.507
2224.7	214.166
2223.95	220.822
2223.21	244.203
2222.46	217.406
2221.71	224.058
2220.96	207.304
2220.22	230.671
2219.47	227.291
2218.72	250.648
2217.97	177.095
2217.22	213.816
2216.48	243.844
2215.73	237.125
2214.98	250.443
2214.23	196.983
2213.48	226.994
2212.73	203.594
2211.98	226.92
2211.23	226.883
2210.48	210.166
2209.73	216.802
2208.98	216.767
2208.23	213.397
2207.48	263.369
2206.73	213.327
2205.98	199.962
2205.23	196.597
2204.48	233.212
2203.73	223.181
2202.98	233.136
2202.23	219.778
2201.48	209.754
2200.73	223.035
2199.98	193.044
2199.23	226.29
2198.48	242.889
2197.72	262.81
2196.97	186.265
2196.22	256.072
2195.47	212.805
2194.72	246.015
2193.97	252.623
2193.21	265.875
2192.46	235.926
2191.71	225.92
2190.96	245.814
2190.2	215.882
2189.45	259.016
2188.7	239.053
2187.94	248.972
2187.19	225.698
2186.44	222.343
2185.68	275.394
2184.93	278.667
2184.18	235.501
2183.42	281.892
2182.67	258.635
2181.91	271.853
2181.16	258.55
2180.41	278.393
2179.65	271.72
2178.9	251.797
2178.14	248.443
2177.39	261.65
2176.63	245.05
2175.88	281.43
2175.12	261.522
2174.37	268.098
2173.61	238.271
2172.86	248.158
2172.1	267.967
2171.34	264.615
2170.59	297.643
2169.83	264.528
2169.08	290.933
2168.32	224.775
2167.56	208.213
2166.81	257.746
2166.05	241.184
2165.29	221.324
2164.54	217.985
2163.78	244.368
2163.02	224.517
2162.27	264.095
2161.51	250.849
2160.75	224.407
2159.99	221.07
2159.23	247.426
2158.48	230.893
2157.72	257.239
2156.96	240.71
2156.2	247.264
2155.44	257.112
2154.69	247.183
2153.93	286.685
2153.17	243.807
2152.41	243.767
2151.65	243.727
2150.89	243.687
2150.13	246.939
2149.37	246.899
2148.61	250.149
2147.85	220.49
2147.09	230.325
2146.33	243.447
2145.57	256.564
2144.81	240.078
2144.05	213.733
2143.29	200.547
2142.53	203.801
2141.77	210.341
2141.01	262.883
2140.25	200.415
2139.49	259.512
2138.73	239.762
2137.97	206.884
2137.2	219.984
2136.44	242.927
2135.68	226.476
2134.92	219.875
2134.16	246.088
2133.4	278.854
2132.63	249.287
2131.87	236.128
2131.11	252.484
2130.35	252.443
2129.58	219.622
2128.82	255.637
2128.06	239.211
2127.29	275.211
2126.53	265.339
2125.77	232.542
2125	261.976
2124.24	248.837
2123.48	235.701
2122.71	288.032
2121.95	245.441
2121.19	225.769
2120.42	222.46
2119.66	287.842
2118.89	277.984
2118.13	241.969
2117.36	248.468
2116.6	248.427
2115.83	258.191
2115.07	248.346
2114.3	245.037
2113.54	277.663
2112.77	293.948
2112.01	254.713
2111.24	274.261
2110.48	254.629
2109.71	238.267
2108.94	257.809
2108.18	244.715
2107.41	241.412
2106.64	251.158
2105.88	244.594
2105.11	270.639
2104.34	270.595
2103.58	267.29
2102.81	273.764
2102.04	228.099
2101.28	283.448
2100.51	267.114
2099.74	260.556
2098.97	254
2098.21	250.703
2097.44	240.895
2096.67	247.365
2095.9	257.087
2095.13	237.522
2094.36	296.041
2093.6	247.202
2092.83	250.413
2092.06	269.881
2091.29	260.084
2090.52	253.54
2089.75	266.498
2088.98	240.458
2088.21	246.916
2087.44	269.614
2086.67	295.552
2085.9	250.042
2085.13	227.273
2084.36	240.22
2083.59	259.655
2082.82	256.367
2082.05	269.303
2081.28	236.818
2080.51	291.919
2079.74	272.412
2078.97	275.61
2078.2	226.935
2077.43	246.346
2076.65	236.583
2075.88	278.668
2075.11	265.663
2074.34	275.337
2073.57	226.711
2072.8	265.531
2072.02	265.487
2071.25	265.444
2070.48	284.819
2069.71	262.12
2068.93	271.783
2068.16	274.973
2067.39	284.631
2066.61	255.479
2065.84	268.37
2065.07	271.558
2064.29	271.514
2063.52	248.846
2062.75	274.655
2061.97	268.148
2061.2	255.183
2060.43	258.371
2059.65	245.411
2058.88	303.485
2058.1	225.962
2057.33	254.972
2056.55	277.519
2055.78	300.058
2055	293.556
2054.23	248.353
2053.45	316.033
2052.68	309.532
2051.9	228.887
2051.13	273.974
2050.35	296.488
2049.57	277.106
2048.8	241.622
2048.02	257.687
2047.25	254.424
2046.47	235.062
2045.69	263.998
2044.92	280.049
2044.14	273.566
2043.36	286.392
2042.59	276.693
2041.81	270.213
2041.03	254.087
2040.25	279.771
2039.48	305.447
2038.7	244.317
2037.92	247.491
2037.14	279.586
2036.37	292.392
2035.59	269.855
2034.81	279.447
2034.03	298.67
2033.25	288.987
2032.47	304.991
2031.69	292.101
2030.92	259.959
2030.14	288.796
2029.36	311.206
2028.58	291.908
2027.8	256.579
2027.02	243.71
2026.24	266.113
2025.46	269.274
2024.68	301.281
2023.9	253.162
2023.12	297.977
2022.34	275.503
2021.56	272.254
2020.78	329.853
2020	300.981
2019.21	272.119
2018.43	256.069
2017.65	294.431
2016.87	259.184
2016.09	271.938
2015.31	307.079
2014.53	342.208
2013.74	322.965
2012.96	342.095
2012.18	268.516
2011.4	284.452
2010.62	303.578
2009.83	290.747
2009.05	319.449
2008.27	344.948
2007.49	300.183
2006.7	265.011
2005.92	309.66
2005.14	303.225
2004.35	280.835
2003.57	283.98
2002.79	261.601
2002	264.747
2001.22	331.676
2000.43	286.979
1999.65	306.061
1998.87	328.323
1998.08	296.398
1997.3	305.908
1996.51	296.299
1995.73	267.581
1994.94	337.605
1994.16	277.045
1993.37	289.734
1992.59	302.42
1991.8	318.283
1991.02	321.413
1990.23	279.996
1989.44	305.4
1988.66	286.265
1987.87	314.839
1987.09	317.966
1986.3	302.017
1985.51	289.253
1984.73	298.739
1983.94	301.867
1983.15	317.702
1982.37	282.707
1981.58	298.54
1980.79	308.017
1980	301.616
1979.22	355.53
1978.43	304.689
1977.64	320.505
1976.85	310.933
1976.06	310.881
1975.28	301.314
1974.49	336.147
1973.7	332.921
1972.91	288.483
1972.12	297.944
1971.33	301.064
1970.54	323.193
1969.76	326.308
1968.97	307.248
1968.18	281.861
1967.39	297.646
1966.6	307.095
1965.81	351.359
1965.02	310.157
1964.23	316.434
1963.44	351.183
1962.65	310.002
1961.86	306.788
1961.07	344.683
1960.28	306.685
1959.48	325.601
1958.69	319.226
1957.9	312.852
1957.11	331.758
1956.32	338.021
1955.53	319.013
1954.74	347.382
1953.94	391.529
1953.15	363.051
1952.36	366.147
1951.57	334.526
1950.78	325.005
1949.98	312.331
1949.19	350.131
1948.4	353.226
1947.61	365.78
1946.81	343.65
1946.02	359.354
1945.23	334.08
1944.43	368.687
1943.64	330.818
1942.85	359.114
1942.05	355.904
1941.26	343.249
1940.46	340.043
1939.67	349.43
1938.88	377.699
1938.08	314.697
1937.29	339.816
1936.49	399.531
1935.7	345.993
1934.9	358.515
1934.11	339.589
1933.31	352.107
1932.52	358.335
1931.72	351.99
1930.93	370.784
1930.13	358.155
1929.33	342.39
1928.54	336.051
1927.74	326.574
1926.95	339.078
1926.15	392.386
1925.35	332.688
1924.56	345.184
1923.76	417.29
1922.96	382.713
1922.17	319.92
1921.37	376.313
1920.57	348.031
1919.77	344.838
1918.98	363.587
1918.18	376.061
1917.38	385.398
1916.58	382.201
1915.78	385.269
1914.99	366.415
1914.19	347.566
1913.39	325.593
1912.59	366.231
1911.79	375.558
1910.99	366.108
1910.19	387.947
1909.39	369.114
1908.59	378.435
1907.8	368.99
1907	372.055
1906.2	378.244
1905.4	359.428
1904.6	390.618
1903.8	359.308
1903	371.743
1902.2	406.038
1901.39	371.619
1900.59	362.19
1899.79	412.078
1898.99	343.341
1898.19	349.525
1897.39	411.871
1896.59	411.802
1895.79	396.137
1894.99	408.545
1894.18	399.122
1893.38	411.526
1892.58	339.764
1891.78	370.872
1890.98	392.623
1890.17	426.828
1889.37	395.606
1888.57	379.967
1887.76	423.499
1886.96	358.046
1886.16	379.776
1885.36	432.623
1884.55	407.656
1883.75	410.699
1882.94	416.852
1882.14	404.34
1881.34	360.735
1880.53	354.456
1879.73	388.593
1878.92	366.77
1878.12	354.278
1877.32	419.469
1876.51	372.799
1875.71	410.01
1874.9	381.991
1874.1	422.293
1873.29	403.595
1872.49	403.527
1871.68	378.631
1870.87	434.422
1870.07	431.246
1869.26	378.44
1868.46	390.783
1867.65	406.222
1866.84	409.254
1866.04	399.885
1865.23	443.209
1864.42	440.036
1863.62	455.454
1862.81	402.715
1862	384.063
1861.2	430.45
1860.39	396.319
1859.58	374.582
1858.77	464.28
1857.96	427.066
1857.16	433.183
1856.35	423.829
1855.54	463.968
1854.73	392.761
1853.92	439.076
1853.12	442.094
1852.31	395.654
1851.5	411.04
1850.69	435.691
1849.88	435.617
1849.07	413.921
1848.26	398.409
1847.45	416.87
1846.64	438.412
1845.83	419.817
1845.02	459.869
1844.21	404.246
1843.4	413.434
1842.59	407.195
1841.78	465.728
1840.97	425.561
1840.16	425.489
1839.35	459.327
1838.54	440.757
1837.72	440.683
1836.91	443.69
1836.1	406.647
1835.29	412.739
1834.48	437.306
1833.67	431.075
1832.85	437.159
1832.04	412.461
1831.23	397.004
1830.42	443.092
1829.6	455.324
1828.79	442.943
1827.98	430.567
1827.17	387.445
1826.35	427.347
1825.54	458.014
1824.73	414.91
1823.91	464.006
1823.1	482.362
1822.29	485.352
1821.47	491.413
1820.66	463.693
1819.84	460.545
1819.03	432.839
1818.21	481.874
1817.4	417.349
1816.58	423.415
1815.77	457.089
1814.95	401.802
1814.14	512.135
1813.32	426.196
1812.51	462.912
1811.69	422.987
1810.88	487.273
1810.06	441.229
1809.25	398.265
1808.43	456.396
1807.61	493.069
1806.8	459.304
1805.98	474.534
1805.16	495.881
1804.35	477.434
1803.53	504.893
1802.71	486.451
1801.89	510.84
1801.08	461.82
1800.26	434.221
1799.44	428.033
1798.62	461.586
1797.81	501.24
1796.99	470.597
1796.17	446.076
1795.35	473.493
1794.53	455.088
1793.71	461.118
1792.9	482.413
1792.08	467.068
1791.26	488.355
1790.44	473.014
1789.62	497.343
1788.8	488.107
1787.98	460.573
1787.16	454.396
1786.34	469.565
1785.52	478.632
1784.7	530.368
1783.88	454.089
1783.06	484.483
1782.24	450.889
1781.42	475.181
1780.6	453.782
1779.78	496.336
1778.95	505.385
1778.13	453.552
1777.31	447.388
1776.49	511.215
1775.67	498.958
1774.85	477.581
1774.02	459.251
1773.2	471.337
1772.38	513.823
1771.56	541.095
1770.74	525.806
1769.91	440.63
1769.09	537.782
1768.27	489.086
1767.44	516.339
1766.62	488.92
1765.8	440.257
1764.97	546.434
1764.15	500.813
1763.33	528.041
1762.5	479.404
1761.68	530.896
1760.85	521.706
1760.03	527.683
1759.21	524.562
1758.38	518.409
1757.56	500.135
1756.73	503.081
1755.91	521.176
1755.08	502.91
1754.26	511.912
1753.43	478.512
1752.6	499.627
1751.78	566.148
1750.95	517.62
1750.13	511.479
1749.3	526.522
1748.47	490.127
1747.65	514.244
1746.82	511.132
1745.99	517.093
1745.17	492.818
1744.34	522.964
1743.51	492.651
1742.69	562.071
1741.86	534.783
1741.03	522.609
1740.2	561.785
1739.38	468.075
1738.55	564.614
1737.72	492.067
1736.89	555.368
1736.06	531.131
1735.23	512.937
1734.4	579.219
1733.58	542.926
1732.75	506.645
1731.92	515.604
1731.09	548.679
1730.26	533.515
1729.43	536.438
1728.6	557.439
1727.77	509.142
1726.94	548.213
1726.11	584.26
1725.28	542.005
1724.45	544.924
1723.62	553.861
1722.79	523.671
1721.96	550.664
1721.13	553.579
1720.3	487.308
1719.46	517.3
1718.63	544.276
1717.8	541.177
1716.97	529.061
1716.14	498.916
1715.31	555.926
1714.47	576.863
1713.64	570.757
1712.81	588.681
1711.98	546.539
1711.14	498.407
1710.31	543.352
1709.48	612.292
1708.65	510.157
1707.81	591.081
1706.98	542.982
1706.15	569.885
1705.31	560.791
1704.48	587.681
1703.64	560.6
1702.81	593.476
1701.98	566.403
1701.14	500.388
1700.31	587.181
1699.47	569.109
1698.64	586.981
1697.8	556.939
1696.97	595.763
1696.13	595.662
1695.3	589.575
1694.46	580.498
1693.63	586.382
1692.79	580.3
1691.95	577.211
1691.12	574.122
1690.28	603.921
1689.45	606.808
1688.61	567.852
1687.77	606.601
1686.94	543.757
1686.1	609.382
1685.26	582.398
1684.42	555.424
1683.59	549.358
1682.75	576.13
1681.91	596.924
1681.07	558.029
1680.24	614.623
1679.4	611.535
1678.56	566.692
1677.72	587.47
1676.88	626.13
1676.04	605.156
1675.21	602.072
1674.37	551.309
1673.53	551.215
1672.69	619.639
1671.85	565.919
1671.01	583.691
1670.17	574.659
1669.33	625.17
1668.49	631.016
1667.65	613.053
1666.81	589.145
1665.97	609.869
1665.13	565.148
1664.29	603.713
1663.45	609.557
1662.61	630.263
1661.77	606.376
1660.92	576.554
1660.08	612.112
1659.24	582.299
1658.4	579.229
1657.56	576.16
1656.72	593.878
1655.87	611.59
1655.03	578.833
1654.19	620.285
1653.35	587.538
1652.5	578.537
1651.66	622.933
1650.82	590.203
1649.98	634.582
1649.13	628.544
1648.29	533.578
1647.45	595.727
1646.6	646.002
1645.76	616.263
1644.91	556.912
1644.07	613.091
1643.23	527.109
1642.38	633.607
1641.54	615.737
1640.69	624.511
1639.85	645.119
1639	633.174
1638.16	638.982
1637.31	579.718
1636.47	561.876
1635.62	594.304
1634.78	617.852
1633.93	626.613
1633.08	608.775
1632.24	614.58
1631.39	632.2
1630.55	602.555
1629.7	640.844
1628.85	625.97
1628.01	581.581
1627.16	587.384
1626.31	616.796
1625.46	587.183
1624.62	607.734
1623.77	604.68
1622.92	663.56
1622.07	601.525
1621.23	625.007
1620.38	607.214
1619.53	618.899
1618.68	598.166
1617.83	595.118
1616.98	671.602
1616.13	624.365
1615.29	644.871
1614.44	627.096
1613.59	576.947
1612.74	620.995
1611.89	629.716
1611.04	623.724
1610.19	629.5
1609.34	655.862
1608.49	620.463
1607.64	667.398
1606.79	611.432
1605.94	664.23
1605.09	611.222
1604.24	581.737
1603.38	637.451
1602.53	631.467
1601.68	640.169
1600.83	675.291
1599.98	654.627
1599.13	654.515
1598.27	680.813
1597.42	630.818
1596.57	665.912
1595.72	639.401
1594.87	642.223
1594.01	606.929
1593.16	659.592
1592.31	618.445
1591.45	630.061
1590.6	647.533
1589.75	641.563
1588.89	673.672
1588.04	614.986
1587.19	617.808
1586.33	638.195
1585.48	588.326
1584.62	678.947
1583.77	620.31
1582.92	669.937
1582.06	649.347
1581.21	687.254
1580.35	663.744
1579.5	666.554
1578.64	634.286
1577.78	648.79
1576.93	587.317
1576.07	648.567
1575.22	636.772
1574.36	619.14
1573.51	630.713
1572.65	668.558
1571.79	648.01
1570.94	650.817
1570.08	656.541
1569.22	711.86
1568.37	711.738
1567.51	594.957
1566.65	682.334
1565.79	629.738
1564.94	652.95
1564.08	708.212
1563.22	655.639
1562.36	603.084
1561.5	611.719
1560.65	655.301
1559.79	693.043
1558.93	695.836
1558.07	681.161
1557.21	619.925
1556.35	680.927
1555.49	657.534
1554.63	683.602
1553.77	680.576
1552.91	628.115
1552.05	686.156
1551.19	671.503
1550.33	624.885
1549.47	714.861
1548.61	688.589
1547.75	688.471
1546.89	679.639
1546.03	711.465
1545.17	714.246
1544.31	632.841
1543.45	670.464
1542.58	664.544
1541.72	710.853
1540.86	748.443
1540	643.898
1539.14	669.887
1538.28	698.766
1537.41	727.635
1536.55	733.306
1535.69	692.609
1534.82	675.105
1533.96	672.091
1533.1	695.147
1532.24	692.131
1531.37	677.535
1530.51	694.788
1529.64	654.146
1528.78	723.488
1527.92	665.494
1527.05	671.165
1526.19	665.264
1525.32	717.205
1524.46	685.275
1523.59	656.247
1522.73	696.601
1521.86	670.471
1521	710.808
1520.13	681.795
1519.27	719.228
1518.4	678.672
1517.54	747.854
1516.67	750.612
1515.8	738.937
1514.94	704.178
1514.07	637.69
1513.21	701.05
1512.34	692.275
1511.47	718.111
1510.6	706.454
1509.74	657.321
1508.87	720.622
1508	683.032
1507.14	720.373
1506.27	740.416
1505.4	714.363
1504.53	696.96
1503.66	708.358
1502.8	757.178
1501.93	751.291
1501.06	739.649
1500.19	759.664
1499.32	794.057
1498.45	750.772
1497.58	727.634
1496.71	756.263
1495.84	727.382
1494.97	724.382
1494.1	804.73
1493.23	738.499
1492.36	810.198
1491.49	778.459
1490.62	772.581
1489.75	746.603
1488.88	755.087
1488.01	809.497
1487.14	809.357
1486.27	852.261
1485.4	817.685
1484.52	912.206
1483.65	851.819
1482.78	866.009
1481.91	894.53
1481.04	900.109
1480.17	937.212
1479.29	957.109
1478.42	965.539
1477.55	979.695
1476.67	1033.94
1475.8	976.492
1474.93	1093.71
1474.06	1110.7
1473.18	1236.44
1472.31	1284.87
1471.43	1321.84
1470.56	1478.95
1469.69	1452.95
1468.81	1672.89
1467.94	1835.58
1467.06	1986.77
1466.19	2069.31
1465.31	2306.14
1464.44	2511.45
1463.56	2728.13
1462.69	2964.72
1461.81	3084.14
1460.94	3360.56
1460.06	3685.41
1459.19	3619.13
1458.31	3838.24
1457.43	3677.79
1456.56	3545.93
1455.68	3419.82
1454.8	3299.45
1453.93	3059.38
1453.05	2839.34
1452.17	2841.7
1451.3	2650.27
1450.42	2561.48
1449.54	2535.4
1448.66	2403.94
1447.78	2266.83
1446.91	2115.53
1446.03	2231.88
1445.15	2151.8
1444.27	2171.35
1443.39	2190.89
1442.51	2352.66
1441.64	2491.62
1440.76	2593.57
1439.88	2922.94
1439	2882.64
1438.12	3007.2
1437.24	3012.36
1436.36	2903.87
1435.48	2829.5
1434.6	2675.63
1433.72	2513.29
1432.84	2294.22
1431.96	2066.71
1431.08	1867.67
1430.2	1668.69
1429.31	1543.55
1428.43	1364.56
1427.55	1287.74
1426.67	1157.06
1425.79	1128.51
1424.91	1088.62
1424.02	1079.93
1423.14	1011.72
1422.26	994.548
1421.38	1056.7
1420.49	1042.35
1419.61	1087.48
1418.73	1166.58
1417.85	1290.94
1416.96	1381.29
1416.08	1505.57
1415.2	1564.73
1414.31	1539
1413.43	1383.16
1412.54	1136.88
1411.66	1080.13
1410.78	980.994
1409.89	896.026
1409.01	878.913
1408.12	850.504
1407.24	774.078
1406.35	754.171
1405.47	773.809
1404.58	799.087
1403.7	784.832
1402.81	753.647
1401.92	747.871
1401.04	725.168
1400.15	708.114
1399.27	753.122
1398.38	727.609
1397.49	744.4
1396.61	769.644
1395.72	763.872
1394.83	724.284
1393.94	755.153
1393.06	712.763
1392.17	754.89
1391.28	743.493
1390.39	723.653
1389.51	731.973
1388.62	729.031
1387.73	723.275
1386.84	742.846
1385.95	804.609
1385.06	781.966
1384.17	748.082
1383.29	770.446
1382.4	837.785
1381.51	792.665
1380.62	871.217
1379.73	857.016
1378.84	848.438
1377.95	912.895
1377.06	876.226
1376.17	999.622
1375.28	1030.33
1374.39	1069.45
1373.5	1038.39
1372.6	1108.36
1371.71	1018.39
1370.82	1068.7
1369.93	1121.8
1369.04	1110.39
1368.15	1185.89
1367.26	1143.64
1366.36	1028.53
1365.47	1162.85
1364.58	1123.43
1363.69	1210.06
1362.79	1274.27
1361.9	1268.44
1361.01	1394.2
1360.11	1365.97
1359.22	1463.68
1358.33	1538.98
1357.43	1521.92
1356.54	1415.37
1355.65	1311.64
1354.75	1177.19
1353.86	1149.03
1352.96	1056.59
1352.07	1014.48
1351.17	952.833
1350.28	961.048
1349.39	983.226
1348.49	860.173
1347.59	932.621
1346.7	940.834
1345.8	935.087
1344.91	937.714
1344.01	926.389
1343.12	954.125
1342.22	962.326
1341.32	942.636
1340.43	998.239
1339.53	981.337
1338.63	1050.85
1337.74	1100.83
1336.84	1159.15
1335.94	1161.74
1335.04	1339.8
1334.15	1392.48
1333.25	1528.68
1332.35	1734.42
1331.45	2034.74
1330.55	2165.18
1329.66	2420.8
1328.76	2595.64
1327.86	2575.72
1326.96	2388.94
1326.06	2185.53
1325.16	1884.9
1324.26	1823.42
1323.36	1547.97
1322.46	1422.66
1321.56	1308.51
1320.66	1291.61
1319.76	1219.18
1318.86	1116.23
1317.96	1132.69
1317.06	1099.18
1316.16	1032.38
1315.26	1037.75
1314.36	1098.6
1313.46	1059.58
1312.55	1009.47
1311.65	1014.84
1310.75	953.674
1309.85	1039.43
1308.95	1047.57
1308.04	1019.67
1307.14	1091.52
1306.24	1119.03
1305.34	1157.61
1304.43	1234.93
1303.53	1226.41
1302.63	1256.64
1301.72	1314.54
1300.82	1319.84
1299.92	1311.31
1299.01	1366.4
1298.11	1545.92
1297.21	1943.81
1296.3	2485.32
1295.4	3178.66
1294.49	3761.22
1293.59	3782.66
1292.68	3210.14
1291.78	2441.71
1290.87	1916.57
1289.97	1435.79
1289.06	1280.95
1288.16	1098.55
1287.25	1004.53
1286.34	1018.15
1285.44	910.377
1284.53	866.086
1283.62	885.238
1282.72	838.209
1281.81	851.846
1280.9	846.183
1280	771.628
1279.09	845.886
1278.18	842.982
1277.27	762.958
1276.37	765.578
1275.46	724.142
1274.55	748.791
1273.64	718.383
1272.73	776.047
1271.82	822.686
1270.92	756.518
1270.01	786.64
1269.1	778.252
1268.19	739.621
1267.28	764.233
1266.37	742.11
1265.46	785.948
1264.55	769.325
1263.64	700.512
1262.73	719.615
1261.82	741.457
1260.91	763.292
1260	713.745
1259.09	743.81
1258.18	790.331
1257.27	781.961
1256.35	847.661
1255.44	896.881
1254.53	899.466
1253.62	849.955
1252.71	863.512
1251.79	838.692
1250.88	811.141
1249.97	780.86
1249.06	706.759
1248.14	736.763
1247.23	766.755
1246.32	679.007
1245.41	662.462
1244.49	662.346
1243.58	686.857
1242.66	719.568
1241.75	689.351
1240.84	722.05
1239.92	721.922
1239.01	672.582
1238.09	675.197
1237.18	647.747
1236.26	650.365
1235.35	680.304
1234.43	674.721
1233.52	660.946
1232.6	625.33
1231.69	674.364
1230.77	767.056
1229.86	709.606
1228.94	723.125
1228.02	747.552
1227.11	766.515
1226.19	739.106
1225.27	845.323
1224.36	886.069
1223.44	989.497
1222.52	942.99
1221.6	1089.97
1220.69	1149.72
1219.77	1187.65
1218.85	1179.27
1217.93	1263.47
1217.01	1148.9
1216.1	1121.48
1215.18	1091.35
1214.26	1023.13
1213.34	941.327
1212.42	886.758
1211.5	848.527
1210.58	834.781
1209.66	810.165
1208.74	777.404
1207.82	763.678
1206.9	739.088
1205.98	711.79
1205.06	698.083
1204.14	687.096
1203.22	695.121
1202.3	670.564
1201.38	732.876
1200.46	719.177
1199.54	656.642
1198.61	751.478
1197.69	702.521
1196.77	645.446
1195.85	667.023
1194.93	664.194
1194	685.761
1193.08	710.03
1192.16	642.166
1191.24	679.979
1190.31	604.018
1189.39	677.03
1188.47	687.741
1187.54	636.183
1186.62	663.138
1185.7	657.608
1184.77	660.197
1183.85	660.08
1182.92	668.078
1182	722.045
1181.07	708.398
1180.15	656.91
1179.23	778.422
1178.3	835.034
1177.37	767.339
1176.45	802.321
1175.52	802.179
1174.6	839.843
1173.67	934.194
1172.75	1036.61
1171.82	1211.86
1170.89	1481.5
1169.97	1543.3
1169.04	1696.79
1168.11	1855.61
1167.19	1839.11
1166.26	1733.63
1165.33	1657.84
1164.4	1506.62
1163.48	1368.92
1162.55	1247.44
1161.62	1311.87
1160.69	1246.99
1159.76	1244.08
1158.83	1340.78
1157.91	1313.63
1156.98	1361.84
1156.05	1466.54
1155.12	1549.69
1154.19	1745.78
1153.26	1949.87
1152.33	2043.64
1151.4	2121.24
1150.47	2102.05
1149.54	1900.11
1148.61	1786.91
1147.68	1641.52
1146.75	1488.12
1145.82	1208.55
1144.89	1173.42
1143.96	1157.11
1143.02	1020.01
1142.09	952.731
1141.16	936.462
1140.23	882.64
1139.3	901.259
1138.36	898.417
1137.43	908.983
1136.5	911.503
1135.57	940.825
1134.63	1026.42
1133.7	1144.13
1132.77	1259.12
1131.83	1548.18
1130.9	1877.3
1129.97	2249.15
1129.03	2495.04
1128.1	2513.33
1127.17	2247.95
1126.23	2068.28
1125.3	1677.34
1124.36	1425.62
1123.43	1246.19
1122.49	1080.2
1121.56	970.399
1120.62	956.863
1119.69	895.229
1118.75	849.648
1117.81	820.112
1116.88	742.51
1115.94	779.764
1115.01	752.926
1114.07	755.461
1113.13	715.292
1112.2	733.844
1111.26	749.722
1110.32	754.924
1109.38	752.122
1108.45	746.655
1107.51	749.188
1106.57	762.383
1105.63	807.556
1104.69	807.412
1103.76	807.268
1102.82	889.702
1101.88	897.533
1100.94	870.745
1100	822.668
1099.06	806.55
1098.12	843.666
1097.18	792.958
1096.24	808.779
1095.3	750.115
1094.36	784.555
1093.42	733.894
1092.48	755.032
1091.54	746.923
1090.6	704.268
1089.66	807.771
1088.72	767.777
1087.78	762.327
1086.84	786.093
1085.9	748.779
1084.95	828.289
1084.01	788.327
1083.07	782.879
1082.13	793.352
1081.19	769.335
1080.24	793.069
1079.3	792.928
1078.36	768.923
1077.41	787.343
1076.47	773.95
1075.53	760.561
1074.58	826.665
1073.64	728.501
1072.7	802.532
1071.75	805.037
1070.81	815.484
1069.86	791.514
1068.92	857.541
1067.98	865.326
1067.03	976.295
1066.09	1100.45
1065.14	1306.55
1064.19	1539.02
1063.25	1856.01
1062.3	2101.52
1061.36	2085.29
1060.41	1987.14
1059.46	1865.26
1058.52	1582.28
1057.57	1291.48
1056.63	1193.55
1055.68	1021.73
1054.73	1050.58
1053.78	868.289
1052.84	870.772
1051.89	860.064
1050.94	854.634
1049.99	825.471
1049.05	833.234
1048.1	840.994
1047.15	872.474
1046.2	961.922
1045.25	919.591
1044.3	972.116
1043.35	1053.6
1042.4	1000.74
1041.45	1003.19
1040.5	1084.62
1039.55	1058.11
1038.6	1055.28
1037.65	1131.4
1036.7	1170.66
1035.75	1170.45
1034.8	1191.28
1033.85	1101.67
1032.9	1069.92
1031.95	961.971
1031	917.125
1030.05	843.394
1029.1	785.451
1028.14	822.08
1027.19	800.925
1026.24	743.021
1025.29	735.012
1024.33	734.881
1023.38	716.38
1022.43	724.123
1021.48	731.863
1020.52	744.845
1019.57	673.911
1018.62	676.412
1017.66	689.397
1016.71	652.583
1015.75	697.011
1014.8	665.448
1013.85	694.142
1012.89	694.018
1011.94	670.327
1010.98	727.803
1010.03	693.644
1009.07	806.053
1008.12	719.561
1007.16	711.584
1006.2	758.538
1005.25	779.323
1004.29	904.69
1003.34	943.741
1002.38	998.461
1001.42	1100.2
1000.47	1204.52
999.508	1368.88
998.551	1480.94
997.594	1483.29
996.636	1472.58
995.679	1388.78
994.721	1477.27
993.763	1730.13
992.805	1907.24
991.846	1833.86
990.888	1473.6
989.929	1157.81
988.97	907.309
988.011	805.483
987.052	779.276
986.093	802.588
985.133	747.732
984.173	713.734
983.213	737.045
982.253	723.893
981.293	728.97
980.333	819.944
979.372	775.553
978.411	884.701
977.45	923.565
976.489	1102.88
975.528	1237.91
974.566	1419.7
973.605	1570.23
972.643	1575.15
971.681	1494.3
970.719	1384.9
969.756	1244.37
968.794	1085.71
967.831	924.503
966.868	929.529
965.905	804.755
964.942	776.059
963.979	791.49
963.015	762.807
962.052	715.976
961.088	702.879
960.124	733.87
959.159	650.771
958.195	624.732
957.23	679.047
956.266	684.107
955.301	658.075
954.336	647.595
953.37	670.788
952.405	683.614
951.439	693.847
950.473	636.775
949.507	626.308
948.541	677.947
947.575	682.999
946.608	719.089
945.642	711.201
944.675	778.301
943.708	827.281
942.741	899.506
941.773	925.187
940.806	844.92
939.838	950.687
938.87	937.601
937.902	903.86
936.934	831.401
935.965	795.11
934.997	722.697
934.028	696.761
933.059	686.314
932.09	681.031
931.121	670.592
930.151	688.522
929.182	634.254
928.212	659.917
927.242	685.572
926.272	605.565
925.301	618.338
924.331	631.106
923.36	625.841
922.389	643.753
921.418	581.848
920.447	656.391
919.475	622.815
918.504	679.312
917.532	635.454
916.56	619.906
915.588	614.65
914.616	565.685
913.643	655.562
912.671	693.999
911.698	642.475
910.725	611.526
909.752	626.829
908.779	680.655
907.805	685.668
906.831	682.976
905.858	700.823
904.883	690.429
903.909	769.856
902.935	805.637
901.96	777.274
900.986	823.3
900.011	820.586
899.036	887.099
898.06	889.502
897.085	935.474
896.109	848.18
895.133	773.728
894.157	773.588
893.181	755.521
892.205	678.565
891.229	711.725
890.252	706.477
889.275	639.809
888.298	703.662
887.321	670.277
886.343	693.176
885.366	677.706
884.388	641.787
883.41	672.348
882.432	674.782
881.454	684.882
880.475	710.309
879.497	717.844
878.518	692.173
877.539	755.889
876.56	674.049
875.58	671.375
874.601	699.328
873.621	704.305
872.641	706.729
871.661	734.661
870.681	785.536
869.701	719.095
868.72	713.865
867.739	665.304
866.758	739.092
865.777	746.603
864.796	756.658
863.815	759.068
862.833	738.557
861.851	794.441
860.869	786.659
859.887	799.243
858.905	768.56
857.922	847.298
856.939	791.177
855.956	813.925
854.973	859.552
853.99	851.768
853.007	910.083
852.023	937.876
851.039	909.753
850.055	932.454
849.071	1013.57
848.087	1170.86
847.102	1160.49
846.118	1294.84
845.133	1492.6
844.148	1852.73
843.163	2372.58
842.177	2892.25
841.192	3028.7
840.206	2906.41
839.22	2416.5
838.234	2018.03
837.248	1705.89
836.261	1523.11
835.274	1330.26
834.288	1307.22
833.301	1251.26
832.313	1238.37
831.326	1119.14
830.339	1103.75
829.351	1050.4
828.363	984.408
827.375	1027.24
826.387	1062.47
825.398	983.872
824.409	968.52
823.421	955.702
822.432	897.388
821.443	998.32
820.453	927.385
819.464	1020.7
818.474	997.776
817.484	1053.16
816.494	1108.52
815.504	1181.53
814.513	1335.29
813.523	1567.23
812.532	1819.27
811.541	2273.04
810.55	2867.9
809.559	3414.63
808.567	3615.72
807.575	3380.61
806.583	2850.69
805.591	2328.52
804.599	1841.82
803.607	1453.54
802.614	1317.26
801.621	1173.49
800.628	1082.63
799.635	1001.88
798.642	926.194
797.649	931.058
796.655	865.475
795.661	865.317
794.667	787.194
793.673	819.74
792.678	814.562
791.684	754.087
790.689	748.923
789.694	736.223
788.699	693.381
787.704	718.372
786.708	725.775
785.713	723.132
784.717	695.385
783.721	705.298
782.724	680.075
781.728	639.806
780.731	672.301
779.735	649.605
778.738	657.01
777.741	629.31
776.743	631.702
775.746	686.726
774.748	686.6
773.75	631.356
772.752	678.835
771.754	668.693
770.756	653.547
769.757	630.896
768.758	695.861
767.759	675.713
766.76	693.104
765.761	675.466
764.761	680.345
763.762	672.718
762.762	637.59
761.762	644.974
760.762	614.863
759.761	642.239
758.761	667.107
757.76	624.518
756.759	611.916
755.758	619.295
754.756	634.162
753.755	651.52
752.753	603.981
751.751	636.31
750.749	636.193
749.747	656.033
748.745	643.443
747.742	678.234
746.739	650.687
745.736	640.597
744.733	623.035
743.73	645.346
742.726	652.702
741.723	597.785
740.719	630.05
739.715	629.935
738.71	654.714
737.706	622.237
736.701	671.893
735.697	651.866
734.692	636.821
733.686	683.96
732.681	591.828
731.675	666.306
730.67	663.698
729.664	680.974
728.658	651.031
727.651	640.974
726.645	608.566
725.638	675.508
724.631	635.656
723.624	670.296
722.617	647.834
721.61	650.197
720.602	645.115
719.595	684.689
718.587	649.839
717.578	662.119
716.57	614.89
715.562	632.129
714.553	622.1
713.544	656.678
712.535	654.08
711.526	631.666
710.516	616.69
709.507	648.768
708.497	683.309
707.487	613.876
706.477	613.763
705.467	608.702
704.456	667.964
703.445	625.793
702.434	603.42
701.423	593.419
700.412	585.894
699.401	667.352
698.389	635.103
697.377	600.396
696.365	652.163
695.353	642.163
694.34	639.576
693.328	644.396
692.315	617.125
691.302	629.352
690.289	602.092
689.276	609.383
688.262	668.472
687.249	648.619
686.235	628.774
685.221	626.193
684.206	598.964
683.192	675.251
682.177	630.776
681.162	699.638
680.147	647.785
679.132	623.04
678.117	682.017
677.101	672.045
676.086	669.46
675.07	602.896
674.054	624.928
673.037	612.514
672.021	629.617
671.004	656.55
669.987	641.678
668.97	641.56
667.953	661.103
666.936	651.153
665.918	643.663
664.9	687.757
663.882	621.323
662.864	631.031
661.846	633.369
660.827	645.525
659.808	667.493
658.789	657.555
657.77	686.872
656.751	657.313
655.731	637.575
654.712	615.391
653.692	598.119
652.672	651.928
651.652	644.456
650.631	651.687
649.611	634.421
648.59	705.326
647.569	717.439
646.548	751.581
645.526	680.46
644.505	670.545
643.483	697.336
642.461	667.852
641.439	645.716
640.417	696.951
639.394	667.483
638.371	726.028
637.348	684.345
636.325	674.444
635.302	684.093
634.279	688.852
633.255	698.494
632.231	715.458
631.207	688.471
630.183	720.076
629.159	712.622
628.134	683.21
627.109	626.973
626.084	651.249
625.059	695.025
624.034	726.594
623.008	682.58
621.983	704.39
620.957	699.386
619.931	740.676
618.904	733.231
617.878	784.242
616.851	718.35
615.824	708.479
614.797	666.967
613.77	686.314
612.743	710.52
611.715	720.12
610.687	734.581
609.659	700.398
608.631	707.563
607.603	700.139
606.574	707.302
605.546	709.601
604.517	614.712
603.487	699.622
602.458	660.632
601.429	750.359
600.399	687.095
599.369	742.799
598.339	689.268
597.309	737.671
596.278	693.865
595.248	713.142
594.217	693.608
593.186	722.577
592.155	715.17
591.123	666.561
590.091	705.212
589.06	726.888
588.028	695.261
586.996	741.152
585.963	721.642
584.931	670.663
583.898	714.112
582.865	665.575
581.832	658.192
580.798	728.232
579.765	706.327
578.731	720.707
577.697	744.754
576.663	732.528
575.629	715.472
574.594	754.007
573.56	761.116
572.525	753.727
571.49	727.019
570.455	738.959
569.419	770.21
568.384	765.239
567.348	714.412
566.312	711.867
565.276	767.226
564.239	798.443
563.203	762.118
562.166	793.324
561.129	749.781
560.092	773.746
559.054	790.473
558.017	828.879
556.979	804.634
555.941	857.475
554.903	775.437
553.865	768.07
552.826	804.037
551.787	808.702
550.749	830.209
549.709	825.243
548.67	789.008
547.631	848.988
546.591	858.449
545.551	841.46
544.511	829.285
543.471	776.259
542.43	874.631
541.39	864.859
540.349	876.708
539.308	893.356
538.267	909.997
537.225	895.425
536.184	1027.27
535.142	1034.28
534.1	983.699
533.058	990.712
532.015	1091.26
530.973	1040.7
529.93	1086.06
528.887	1028.33
527.844	1145.57
526.801	1104.62
525.757	1085.25
524.713	1113.79
523.669	1039.35
522.625	1053.52
521.581	1050.93
520.537	1022.01
519.492	981.142
518.447	971.389
517.402	990.345
516.357	923.194
515.311	891.936
514.265	882.206
513.22	855.748
512.174	903.387
511.127	869.767
510.081	838.548
509.034	840.78
507.987	790.473
506.94	830.916
505.893	840.311
504.846	849.701
503.798	823.293
502.75	818.368
501.702	818.216
500.654	911.079
499.606	941.909
