3200.54	42.0979
3199.95	42.0979
3199.35	46.3007
3198.76	46.2937
3198.16	46.2867
3197.57	50.487
3196.98	46.2727
3196.38	54.6777
3195.79	63.0801
3195.19	75.6847
3194.6	54.6529
3194	46.2378
3193.41	71.4475
3192.81	67.2346
3192.22	46.2168
3191.62	46.2098
3191.03	58.8036
3190.43	75.5932
3189.84	67.1837
3189.24	88.1653
3188.65	71.3611
3188.05	62.9562
3187.45	92.3218
3186.86	62.9371
3186.26	83.9035
3185.67	50.3345
3185.07	54.5208
3184.47	46.126
3183.88	29.3485
3183.28	41.92
3182.69	46.105
3182.09	46.0981
3181.49	33.5208
3180.9	33.5157
3180.3	33.5106
3179.7	37.6938
3179.1	54.4383
3178.51	62.8039
3177.91	54.4218
3177.31	75.3419
3176.72	71.1455
3176.12	66.9503
3175.52	66.9402
3174.92	46.0144
3174.33	41.8249
3173.73	75.2735
3173.13	62.7184
3172.53	54.3477
3171.93	45.9796
3171.34	75.2279
3170.74	79.3952
3170.14	79.3832
3169.54	37.5968
3168.94	62.6519
3168.34	66.8186
3167.74	79.3351
3167.15	62.6234
3166.55	50.0912
3165.95	45.9099
3165.35	87.633
3164.75	79.275
3164.15	62.576
3163.55	41.711
3162.95	54.2161
3162.35	25.019
3161.75	66.7073
3161.15	25.0114
3160.55	58.3512
3159.95	33.3385
3159.35	54.1668
3158.75	45.8265
3158.15	62.4812
3157.55	41.6478
3156.95	66.6264
3156.35	29.1446
3155.75	58.2804
3155.15	62.4339
3154.55	54.1011
3153.95	45.7709
3153.35	62.4055
3152.75	83.1947
3152.15	58.2274
3151.54	33.2678
3150.94	66.5254
3150.34	70.6726
3149.74	83.1316
3149.14	78.963
3148.54	45.7085
3147.94	29.0828
3147.33	87.2352
3146.73	78.9151
3146.13	62.2919
3145.53	29.0652
3144.93	29.0607
3144.32	12.4527
3143.72	66.4044
3143.12	78.8432
3142.52	58.0862
3141.91	95.4128
3141.31	53.9208
3140.71	45.6184
3140.1	33.172
3139.5	53.8963
3138.9	37.3071
3138.29	45.5907
3137.69	49.7277
3137.09	49.7202
3136.48	24.8563
3135.88	86.9839
3135.28	57.9804
3134.67	62.1125
3134.07	45.5422
3133.47	45.5353
3132.86	70.362
3132.26	45.5215
3131.65	28.9638
3131.05	62.0559
3130.45	33.0914
3129.84	57.9012
3129.24	57.8924
3128.63	62.0181
3128.03	66.1426
3127.42	82.6657
3126.82	78.5205
3126.21	74.3765
3125.61	53.7082
3125	78.4847
3124.4	70.2125
3123.79	49.5542
3123.19	53.6756
3122.58	82.5652
3121.97	53.6593
3121.37	49.5241
3120.76	74.2748
3120.16	82.515
3119.55	45.3764
3118.94	57.743
3118.34	65.9819
3117.73	57.7254
3117.13	90.6975
3116.52	49.4639
3115.91	37.0922
3115.31	82.4147
3114.7	61.8016
3114.09	28.8364
3113.48	37.0697
3112.88	65.8916
3112.27	45.2936
3111.66	65.8716
3111.06	57.6289
3110.45	37.0415
3109.84	53.4962
3109.23	65.8315
3108.63	123.415
3108.02	74.0379
3107.41	78.1392
3106.8	74.0153
3106.19	37.002
3105.59	65.7714
3104.98	90.4219
3104.37	57.5324
3103.76	86.2855
3103.15	49.2985
3102.54	32.8607
3101.93	49.2835
3101.33	53.3823
3100.72	61.5856
3100.11	32.8406
3099.5	45.149
3098.89	69.7651
3098.28	69.7545
3097.67	86.1542
3097.06	77.9371
3096.45	28.7093
3095.84	49.2084
3095.23	57.4011
3094.62	73.7902
3094.01	57.3836
3093.4	65.5713
3092.79	57.3661
3092.18	86.0361
3091.57	102.408
3090.96	73.7227
3090.35	61.4262
3089.74	77.7947
3089.13	73.689
3088.52	85.9574
3087.91	77.7591
3087.3	57.2875
3086.69	16.3654
3086.08	49.0886
3085.46	57.2613
3084.85	61.342
3084.24	61.3326
3083.63	49.0586
3083.02	32.7008
3082.41	57.2176
3081.79	40.8635
3081.18	53.1144
3080.57	61.2765
3079.96	44.9293
3079.35	57.174
3078.73	48.9988
3078.12	97.9826
3077.51	85.7217
3076.9	97.9527
3076.28	77.5341
3075.67	69.362
3075.06	65.2719
3074.45	77.4986
3073.83	36.7043
3073.22	69.3197
3072.61	61.1551
3071.99	52.993
3071.38	85.591
3070.77	57.0519
3070.15	77.4158
3069.54	77.404
3068.93	36.6594
3068.31	65.1624
3067.7	81.4406
3067.08	69.2139
3066.47	61.0618
3065.86	52.9121
3065.24	56.9736
3064.63	61.0338
3064.01	56.9562
3063.4	24.4061
3062.78	56.9388
3062.17	52.8636
3061.55	93.5137
3060.94	77.2386
3060.32	85.356
3059.71	85.3429
3059.09	60.9499
3058.48	60.9406
3057.86	93.428
3057.25	97.4752
3056.63	101.521
3056.02	69.0238
3055.4	56.8344
3054.78	60.8847
3054.17	68.9922
3053.55	60.8661
3052.94	64.9139
3052.32	52.7345
3051.7	81.1176
3051.09	68.9394
3050.47	56.765
3049.85	72.9724
3049.24	44.5874
3048.62	60.7917
3048	76.991
3047.39	40.5154
3046.77	68.8657
3046.15	40.503
3045.53	60.7452
3044.92	93.1284
3044.3	60.7266
3043.68	80.9565
3043.06	60.7081
3042.45	72.8385
3041.83	44.5056
3041.21	68.7709
3040.59	84.9393
3039.97	101.103
3039.35	113.218
3038.74	80.8574
3038.12	44.4648
3037.5	80.8327
3036.88	68.6972
3036.26	76.7675
3035.64	36.358
3035.02	109.057
3034.41	64.6166
3033.79	80.7584
3033.17	92.858
3032.55	100.917
3031.93	104.938
3031.31	92.8153
3030.69	84.7314
3030.07	76.65
3029.45	84.7055
3028.83	68.5606
3028.21	60.4854
3027.59	52.4126
3026.97	60.4669
3026.35	92.7016
3025.73	52.3885
3025.11	76.5561
3024.49	96.6877
3023.87	120.841
3023.25	112.768
3022.63	76.5092
3022	80.5237
3021.38	72.4602
3020.76	100.624
3020.14	104.633
3019.52	80.4743
3018.9	116.67
3018.28	88.4946
3017.66	88.4811
3017.03	76.4037
3016.41	60.3095
3015.79	68.3403
3015.17	92.4462
3014.55	104.488
3013.92	76.3452
3013.3	100.439
3012.68	68.2879
3012.06	88.359
3011.43	76.2983
3010.81	96.3621
3010.19	92.3328
3009.57	60.2078
3008.94	88.2913
3008.32	64.202
3007.7	104.312
3007.07	108.308
3006.45	120.323
3005.83	120.305
3005.2	88.21
3004.58	124.277
3003.96	120.249
3003.33	120.231
3002.71	124.22
3002.08	120.194
3001.46	136.199
3000.84	104.136
3000.21	92.1064
2999.59	108.108
2998.96	116.098
2998.34	120.083
2997.71	132.071
2997.09	148.057
2996.46	80.0187
2995.84	96.0077
2995.21	99.9927
2994.59	99.9773
2993.96	111.957
2993.34	131.93
2992.71	131.909
2992.09	127.892
2991.46	119.881
2990.84	155.821
2990.21	127.833
2989.58	155.773
2988.96	135.781
2988.33	135.76
2987.71	135.74
2987.08	179.628
2986.45	155.653
2985.83	179.572
2985.2	151.616
2984.57	167.549
2983.95	171.512
2983.32	195.414
2982.69	199.372
2982.07	187.381
2981.44	199.31
2980.81	219.208
2980.18	199.249
2979.56	215.156
2978.93	243.009
2978.3	211.107
2977.67	262.847
2977.05	258.825
2976.42	218.972
2975.79	290.591
2975.16	286.566
2974.53	314.378
2973.91	358.097
2973.28	350.085
2972.65	397.763
2972.02	397.702
2971.39	397.641
2970.76	405.531
2970.13	504.848
2969.5	500.796
2968.88	560.328
2968.25	504.615
2967.62	568.101
2966.99	595.819
2966.36	659.271
2965.73	639.315
2965.1	678.92
2964.47	710.573
2963.84	746.185
2963.21	754.007
2962.58	809.441
2961.95	876.759
2961.32	868.691
2960.69	932.013
2960.06	999.281
2959.43	911.902
2958.8	975.189
2958.17	1006.75
2957.53	962.999
2956.9	986.625
2956.27	958.741
2955.64	998.204
2955.01	998.051
2954.38	1057.3
2953.75	1025.46
2953.12	1025.3
2952.48	1112.22
2951.85	1116.01
2951.22	1167.27
2950.59	1159.18
2949.96	1210.43
2949.33	1178.6
2948.69	1095.37
2948.06	1249.4
2947.43	1095.04
2946.8	1134.39
2946.16	1039.37
2945.53	1011.55
2944.9	900.774
2944.26	936.186
2943.63	837.303
2943	742.4
2942.37	750.182
2941.73	746.118
2941.1	710.479
2940.47	690.637
2939.83	651.072
2939.2	662.807
2938.56	745.543
2937.93	690.211
2937.3	662.5
2936.66	713.655
2936.03	689.892
2935.39	697.668
2934.76	736.971
2934.13	784.142
2933.49	819.479
2932.86	807.535
2932.22	878.305
2931.59	984.495
2930.95	980.406
2930.32	1047.18
2929.68	1066.7
2929.05	1094.08
2928.41	1180.48
2927.78	1239.32
2927.14	1329.6
2926.5	1380.52
2925.87	1439.3
2925.23	1517.72
2924.6	1619.69
2923.96	1513.32
2923.32	1548.45
2922.69	1548.21
2922.05	1536.19
2921.42	1626.3
2920.78	1618.19
2920.14	1566.89
2919.51	1535.24
2918.87	1538.93
2918.23	1546.54
2917.6	1522.75
2916.96	1616.69
2916.32	1577.21
2915.68	1537.74
2915.05	1561.03
2914.41	1509.81
2913.77	1509.58
2913.13	1489.74
2912.5	1513.03
2911.86	1430.5
2911.22	1504.73
2910.58	1598.52
2909.94	1633.53
2909.31	1609.78
2908.67	1640.86
2908.03	1671.93
2907.39	1804.78
2906.75	1976.73
2906.11	1949.03
2905.47	2066.12
2904.83	2202.74
2904.2	2206.31
2903.56	2342.86
2902.92	2354.23
2902.28	2287.4
2901.64	2353.51
2901	2341.41
2900.36	2282.43
2899.72	2203.92
2899.08	2277.81
2898.44	2132.92
2897.8	2081.82
2897.16	2159.6
2896.52	2026.51
2895.88	2065.23
2895.24	2010.27
2894.6	2033.37
2893.96	2138.42
2893.32	2259.04
2892.67	2184.57
2892.03	2137.42
2891.39	2125.39
2890.75	2214.75
2890.11	2183.21
2889.47	2315.41
2888.83	2326.74
2888.19	2419.9
2887.54	2435.11
2886.9	2598.35
2886.26	2671.95
2885.62	2655.96
2884.98	2900.86
2884.33	2814.76
2883.69	2911.64
2883.05	3047.4
2882.41	3136.43
2881.77	3139.84
2881.12	3197.7
2880.48	3220.55
2879.84	3153.93
2879.19	3169
2878.55	3082.98
2877.91	3090.27
2877.26	2926.56
2876.62	2654.09
2875.98	2743.04
2875.33	2688.23
2874.69	2586.83
2874.05	2504.87
2873.4	2438.47
2872.76	2414.8
2872.11	2410.54
2871.47	2254.93
2870.83	2293.38
2870.18	2355.1
2869.54	2370.26
2868.89	2400.92
2868.25	2439.33
2867.6	2446.7
2866.96	2488.97
2866.31	2612.63
2865.67	2495.95
2865.02	2557.56
2864.38	2468.05
2863.73	2382.44
2863.09	2517.64
2862.44	2300.38
2861.8	2257.43
2861.15	1986.07
2860.5	1865.77
2859.86	1753.24
2859.21	1640.75
2858.57	1493.47
2857.92	1384.92
2857.27	1249.33
2856.63	1152.45
2855.98	1136.8
2855.33	1047.71
2854.69	1059.14
2854.04	1070.57
2853.39	1089.73
2852.75	1043.19
2852.1	1000.54
2851.45	923.133
2850.81	1023.4
2850.16	1023.24
2849.51	1053.97
2848.86	1142.58
2848.21	1115.39
2847.57	1200.11
2846.92	1142.05
2846.27	1311.61
2845.62	1334.55
2844.97	1419.19
2844.33	1330.28
2843.68	1542.11
2843.03	1476.34
2842.38	1587.88
2841.73	1668.56
2841.08	1729.95
2840.43	1864.51
2839.78	1860.37
2839.14	1817.71
2838.49	1971.45
2837.84	2028.89
2837.19	1947.74
2836.54	1939.74
2835.89	1770.12
2835.24	1685.2
2834.59	1708.02
2833.94	1523.13
2833.29	1426.76
2832.64	1353.48
2831.99	1187.95
2831.34	1060.92
2830.69	930.081
2830.04	887.666
2829.39	779.949
2828.74	706.839
2828.08	629.91
2827.43	625.972
2826.78	564.439
2826.13	468.373
2825.48	495.17
2824.83	402.982
2824.18	402.92
2823.53	437.388
2822.87	360.597
2822.22	406.567
2821.57	337.475
2820.92	318.251
2820.27	314.367
2819.61	325.818
2818.96	275.944
2818.31	222.253
2817.66	275.858
2817	226.015
2816.35	256.621
2815.7	298.706
2815.05	275.686
2814.39	245.016
2813.74	233.495
2813.09	237.285
2812.43	248.728
2811.78	221.907
2811.13	241
2810.47	256.261
2809.82	210.331
2809.16	233.24
2808.51	179.681
2807.86	164.364
2807.2	183.447
2806.55	171.955
2805.89	213.955
2805.24	171.901
2804.58	229.166
2803.93	156.572
2803.28	152.73
2802.62	167.976
2801.97	160.316
2801.31	187.006
2800.66	171.714
2800	209.84
2799.34	179.29
2798.69	148.749
2798.03	137.285
2797.38	167.767
2796.72	118.181
2796.07	163.903
2795.41	121.955
2794.75	167.662
2794.1	133.347
2793.44	118.089
2792.79	125.688
2792.13	133.284
2791.47	140.879
2790.82	102.787
2790.16	144.641
2789.5	171.259
2788.84	175.037
2788.19	133.16
2787.53	114.119
2786.87	133.118
2786.22	125.492
2785.56	171.098
2784.9	186.278
2784.24	178.647
2783.59	148.216
2782.93	182.391
2782.27	167.166
2781.61	155.744
2780.95	163.315
2780.29	167.087
2779.64	136.686
2778.98	132.869
2778.32	132.848
2777.66	121.442
2777	132.807
2776.34	98.6409
2775.68	121.385
2775.02	113.781
2774.36	155.476
2773.71	170.618
2773.05	181.964
2772.39	147.823
2771.73	140.22
2771.07	140.198
2770.41	125.022
2769.75	155.306
2769.09	106.046
2768.43	121.177
2767.77	132.516
2767.11	128.71
2766.45	193.035
2765.79	155.16
2765.12	143.785
2764.46	136.196
2763.8	143.74
2763.14	132.371
2762.48	143.695
2761.82	109.645
2761.16	162.551
2760.5	151.187
2759.83	113.372
2759.17	170.032
2758.51	166.227
2757.85	166.201
2757.19	158.622
2756.53	173.701
2755.86	181.225
2755.2	181.197
2754.54	207.589
2753.88	203.783
2753.21	218.843
2752.55	215.037
2751.89	207.459
2751.23	162.17
2750.56	211.165
2749.9	158.349
2749.24	229.947
2748.57	188.451
2747.91	263.791
2747.25	188.392
2746.58	218.501
2745.92	237.3
2745.25	210.9
2744.59	248.522
2743.93	192.01
2743.26	199.508
2742.6	222.059
2741.93	229.551
2741.27	240.802
2740.61	214.431
2739.94	267.057
2739.28	233.168
2738.61	255.692
2737.95	285.729
2737.28	270.648
2736.62	225.505
2735.95	296.868
2735.29	281.793
2734.62	308.045
2733.95	259.168
2733.29	266.638
2732.62	330.429
2731.96	330.377
2731.29	326.572
2730.62	371.558
2729.96	345.232
2729.29	382.697
2728.63	352.626
2727.96	375.076
2727.29	420.019
2726.63	386.207
2725.96	374.899
2725.29	442.312
2724.62	453.486
2723.96	445.92
2723.29	517.036
2722.62	460.764
2721.96	468.183
2721.29	505.558
2720.62	554.155
2719.95	569.042
2719.28	550.237
2718.62	550.151
2717.95	531.355
2717.28	497.599
2716.61	445.151
2715.94	411.419
2715.27	445.011
2714.61	373.9
2713.94	381.318
2713.27	448.539
2712.6	369.987
2711.93	328.825
2711.26	332.51
2710.59	354.87
2709.92	306.261
2709.25	384.633
2708.58	336.034
2707.91	332.249
2707.24	298.603
2706.57	332.144
2705.9	354.48
2705.23	324.578
2704.56	320.797
2703.89	302.099
2703.22	257.303
2702.55	294.547
2701.88	305.684
2701.21	287
2700.54	212.421
2699.87	245.922
2699.2	178.824
2698.53	212.321
2697.86	216.012
2697.19	204.806
2696.51	234.559
2695.84	208.464
2695.17	189.822
2694.5	197.235
2693.83	189.762
2693.15	197.173
2692.48	208.301
2691.81	189.672
2691.14	185.924
2690.47	167.305
2689.79	174.714
2689.12	170.969
2688.45	185.807
2687.77	215.502
2687.1	189.464
2686.43	189.434
2685.76	170.835
2685.08	204.227
2684.41	152.218
2683.74	144.77
2683.06	200.419
2682.39	196.677
2681.71	152.122
2681.04	192.905
2680.37	181.747
2679.69	196.553
2679.02	203.938
2678.34	192.784
2677.67	226.114
2676.99	207.548
2676.32	200.104
2675.65	218.597
2674.97	174.109
2674.3	162.97
2673.62	188.868
2672.95	203.649
2672.27	214.723
2671.59	159.166
2670.92	166.543
2670.24	151.715
2669.57	177.59
2668.89	166.464
2668.22	199.726
2667.54	207.09
2666.86	177.478
2666.19	221.812
2665.51	192.207
2664.83	192.177
2664.16	166.281
2663.48	206.894
2662.8	181.004
2662.13	162.509
2661.45	199.411
2660.77	206.764
2660.1	206.731
2659.42	166.097
2658.74	173.452
2658.06	217.703
2657.39	188.154
2656.71	210.257
2656.03	191.783
2655.35	213.878
2654.68	184.349
2654	202.752
2653.32	217.463
2652.64	180.576
2651.96	210.025
2651.28	198.94
2650.6	239.426
2649.93	202.56
2649.25	209.892
2648.57	202.496
2647.89	209.826
2647.21	172.987
2646.53	195.04
2645.85	169.253
2645.17	198.657
2644.49	202.304
2643.81	194.917
2643.13	213.271
2642.45	191.179
2641.77	169.093
2641.09	180.092
2640.41	161.69
2639.73	157.99
2639.05	154.292
2638.37	124.883
2637.69	168.933
2637.01	146.875
2636.33	165.208
2635.65	157.84
2634.96	113.774
2634.28	165.13
2633.6	135.752
2632.92	121.057
2632.24	143.044
2631.56	135.687
2630.88	124.666
2630.19	131.978
2629.51	164.947
2628.83	117.277
2628.15	164.895
2627.46	135.559
2626.78	117.221
2626.1	124.528
2625.42	135.494
2624.73	150.119
2624.05	157.417
2623.37	113.468
2622.69	135.409
2622	120.751
2621.32	117.073
2620.64	135.344
2619.95	142.638
2619.27	124.331
2618.58	109.687
2617.9	138.914
2617.22	164.478
2616.53	138.87
2615.85	109.617
2615.16	138.826
2614.48	171.679
2613.79	146.087
2613.11	186.231
2612.43	146.041
2611.74	142.367
2611.06	135.045
2610.37	113.128
2609.69	113.11
2609	142.277
2608.31	153.197
2607.63	131.291
2606.94	123.977
2606.26	153.124
2605.57	145.809
2604.89	123.918
2604.2	112.967
2603.51	116.592
2602.83	160.289
2602.14	109.27
2601.45	149.313
2600.77	138.365
2600.08	127.422
2599.39	141.962
2598.71	149.218
2598.02	160.111
2597.33	152.809
2596.65	145.509
2595.96	163.672
2595.27	134.553
2594.58	134.532
2593.9	141.782
2593.21	141.759
2592.52	199.885
2591.83	181.685
2591.14	127.159
2590.46	177.995
2589.77	134.383
2589.08	148.887
2588.39	170.648
2587.7	163.361
2587.01	166.965
2586.32	148.793
2585.64	137.884
2584.95	166.885
2584.26	141.467
2583.57	123.311
2582.88	116.039
2582.19	152.277
2581.5	90.6265
2580.81	137.73
2580.12	126.837
2579.43	123.193
2578.74	105.06
2578.05	152.132
2577.36	152.108
2576.67	133.978
2575.98	133.957
2575.29	133.936
2574.6	112.199
2573.91	137.512
2573.22	144.726
2572.52	155.556
2571.83	141.063
2571.14	137.425
2570.45	151.866
2569.76	130.15
2569.07	119.286
2568.38	148.18
2567.68	130.088
2566.99	108.39
2566.3	133.659
2565.61	133.638
2564.92	137.228
2564.22	133.596
2563.53	115.524
2562.84	115.505
2562.14	115.487
2561.45	151.553
2560.76	122.666
2560.07	158.719
2559.37	140.66
2558.68	144.244
2557.99	137.01
2557.29	122.569
2556.6	144.175
2555.91	108.114
2555.21	126.113
2554.52	111.683
2553.82	97.2565
2553.13	97.241
2552.44	129.634
2551.74	133.214
2551.05	111.594
2550.35	100.778
2549.66	125.953
2548.96	133.129
2548.27	107.925
2547.57	122.296
2546.88	100.698
2546.18	115.065
2545.49	93.4757
2544.79	111.434
2544.1	104.228
2543.4	111.399
2542.7	122.16
2542.01	100.586
2541.31	93.3864
2540.62	125.692
2539.92	140.035
2539.22	147.193
2538.53	125.632
2537.83	107.668
2537.13	104.062
2536.44	107.634
2535.74	111.204
2535.04	125.532
2534.35	93.2378
2533.65	121.907
2532.95	125.472
2532.25	136.206
2531.56	125.432
2530.86	111.08
2530.16	111.062
2529.46	114.626
2528.76	114.608
2528.07	118.171
2527.37	114.571
2526.67	114.553
2525.97	150.327
2525.27	139.567
2524.57	121.655
2523.88	132.368
2523.18	100.154
2522.48	125.173
2521.78	168.062
2521.08	135.859
2520.38	132.262
2519.68	125.093
2518.98	89.3378
2518.28	114.334
2517.58	146.467
2516.88	132.157
2516.18	142.849
2515.48	117.832
2514.78	124.953
2514.08	160.629
2513.38	114.207
2512.68	103.483
2511.98	139.145
2511.28	135.555
2510.58	89.1669
2509.88	114.115
2509.17	124.794
2508.47	124.774
2507.77	121.19
2507.07	103.351
2506.37	96.2081
2505.67	96.1927
2504.97	106.864
2504.26	103.285
2503.56	85.4637
2502.86	99.6917
2502.16	121.035
2501.45	96.1006
2500.75	78.2917
2500.05	92.5117
2499.35	106.727
2498.64	120.938
2497.94	117.362
2497.24	124.455
2496.53	103.104
2495.83	88.8683
2495.13	131.504
2494.42	167.019
2493.72	117.25
2493.02	95.9165
2492.31	103.005
2491.61	85.2318
2490.9	127.827
2490.2	124.257
2489.5	134.886
2488.79	138.413
2488.09	163.23
2487.38	113.533
2486.68	85.1365
2485.97	138.325
2485.27	117.025
2484.56	120.552
2483.86	113.443
2483.15	127.603
2482.45	134.67
2481.74	145.279
2481.04	127.541
2480.33	106.267
2479.62	106.25
2478.92	92.069
2478.21	102.676
2477.51	102.659
2476.8	113.261
2476.09	138.015
2475.39	123.84
2474.68	127.358
2473.97	123.8
2473.27	130.854
2472.56	120.225
2471.85	109.599
2471.14	98.9768
2470.44	102.495
2469.73	74.2088
2469.02	105.996
2468.31	109.511
2467.61	81.2373
2466.9	113.008
2466.19	123.582
2465.48	112.971
2464.77	112.953
2464.07	102.348
2463.36	105.86
2462.65	116.427
2461.94	98.7709
2461.23	95.2281
2460.52	141.056
2459.81	116.353
2459.1	130.435
2458.4	102.216
2457.69	123.345
2456.98	147.99
2456.27	112.736
2455.56	147.943
2454.85	119.744
2454.14	137.331
2453.43	112.664
2452.72	133.767
2452.01	144.305
2451.3	102.053
2450.59	116.11
2449.88	130.163
2449.16	105.521
2448.45	101.987
2447.74	119.552
2447.03	123.049
2446.32	186.301
2445.61	144.096
2444.9	105.419
2444.19	115.943
2443.47	119.437
2442.76	115.906
2442.05	122.91
2441.34	108.846
2440.63	129.892
2439.91	136.891
2439.2	119.322
2438.49	129.83
2437.78	105.25
2437.06	154.342
2436.35	143.796
2435.64	140.266
2434.93	129.725
2434.21	94.6493
2433.5	105.149
2432.79	105.132
2432.07	150.665
2431.36	161.151
2430.64	182.141
2429.93	136.584
2429.22	112.051
2428.5	101.53
2427.79	154.02
2427.07	108.497
2426.36	111.979
2425.65	111.961
2424.93	143.427
2424.22	146.901
2423.5	122.398
2422.79	111.889
2422.07	108.375
2421.36	111.853
2420.64	118.825
2419.92	111.817
2419.21	150.23
2418.49	150.206
2417.78	164.152
2417.06	167.618
2416.35	132.676
2415.63	101.236
2414.91	122.162
2414.2	108.183
2413.48	122.123
2412.76	108.149
2412.05	129.06
2411.33	90.6762
2410.61	125.531
2409.9	115.052
2409.18	125.491
2408.46	156.839
2407.74	118.481
2407.03	101.041
2406.31	139.345
2405.59	132.356
2404.87	146.265
2404.16	167.133
2403.44	111.404
2402.72	125.309
2402	135.73
2401.28	153.107
2400.56	125.249
2399.85	194.8
2399.13	97.3844
2398.41	107.801
2397.69	107.784
2396.97	97.3373
2396.25	118.176
2395.53	125.108
2394.81	125.088
2394.09	180.653
2393.37	149.362
2392.65	152.811
2391.93	128.479
2391.21	121.515
2390.49	152.737
2389.77	166.595
2389.05	114.516
2388.33	97.1493
2387.61	121.417
2386.89	117.929
2386.17	121.378
2385.45	107.489
2384.73	131.739
2384	110.92
2383.28	110.903
2382.56	121.28
2381.84	117.796
2381.12	121.241
2380.4	131.612
2379.67	152.368
2378.95	124.645
2378.23	103.854
2377.51	107.298
2376.79	124.584
2376.06	155.705
2375.34	114.166
2374.62	114.147
2373.9	117.587
2373.17	117.568
2372.45	131.378
2371.73	93.3328
2371	120.967
2370.28	107.125
2369.56	124.383
2368.83	120.909
2368.11	158.883
2367.38	89.789
2366.66	110.492
2365.94	127.735
2365.21	120.811
2364.49	117.341
2363.76	134.575
2363.04	131.103
2362.31	120.733
2361.59	124.163
2360.86	120.694
2360.14	134.466
2359.41	151.681
2358.69	127.529
2357.96	103.385
2357.24	110.26
2356.51	137.803
2355.79	93.0018
2355.06	117.094
2354.33	120.519
2353.61	130.828
2352.88	110.153
2352.15	137.669
2351.43	151.412
2350.7	175.471
2349.98	165.123
2349.25	144.459
2348.52	134.119
2347.79	144.412
2347.07	140.951
2346.34	123.742
2345.61	113.412
2344.88	106.521
2344.16	144.296
2343.43	130.532
2342.7	127.077
2341.97	127.056
2341.25	106.435
2340.52	123.582
2339.79	151.02
2339.06	140.701
2338.33	120.091
2337.6	123.502
2336.87	120.052
2336.14	120.033
2335.42	140.587
2334.69	209.132
2333.96	140.541
2333.23	140.519
2332.5	133.642
2331.77	143.899
2331.04	123.322
2330.31	133.577
2329.58	133.556
2328.85	150.654
2328.12	167.747
2327.39	136.914
2326.66	130.047
2325.93	106.074
2325.2	164.217
2324.47	143.666
2323.73	123.123
2323	129.942
2322.27	119.664
2321.54	153.829
2320.81	119.625
2320.08	109.354
2319.35	140.087
2318.61	102.486
2317.88	170.782
2317.15	146.849
2316.42	150.24
2315.69	150.215
2314.95	167.258
2314.22	156.992
2313.49	167.204
2312.76	167.177
2312.02	126.215
2311.29	153.48
2310.56	126.174
2309.82	129.563
2309.09	170.45
2308.36	109.07
2307.62	139.724
2306.89	153.331
2306.16	146.492
2305.42	156.687
2304.69	153.256
2303.95	160.041
2303.22	122.565
2302.48	156.585
2301.75	132.736
2301.02	156.535
2300.28	173.521
2299.55	146.278
2298.81	112.242
2298.08	136.029
2297.34	163.208
2296.6	132.585
2295.87	122.366
2295.13	118.948
2294.4	142.714
2293.66	118.909
2292.93	166.446
2292.19	142.645
2291.45	105.268
2290.72	132.413
2289.98	125.602
2289.24	122.187
2288.51	122.168
2287.77	145.899
2287.03	105.166
2286.3	159.419
2285.56	115.305
2284.82	128.85
2284.08	145.78
2283.35	166.095
2282.61	145.733
2281.87	172.818
2281.13	155.849
2280.4	132.112
2279.66	132.09
2278.92	145.614
2278.18	176.063
2277.44	142.182
2276.7	145.543
2275.97	145.52
2275.23	128.578
2274.49	145.472
2273.75	152.214
2273.01	142.043
2272.27	179.216
2271.53	152.139
2270.79	172.397
2270.05	145.33
2269.31	158.824
2268.57	121.632
2267.83	138.503
2267.09	121.593
2266.35	158.72
2265.61	155.318
2264.87	168.796
2264.13	145.141
2263.39	205.865
2262.65	161.966
2261.91	145.07
2261.17	192.271
2260.42	182.122
2259.68	165.232
2258.94	161.834
2258.2	198.888
2257.46	158.411
2256.72	148.275
2255.97	138.143
2255.23	124.645
2254.49	154.939
2253.75	158.282
2253	185.193
2252.26	161.597
2251.52	178.401
2250.78	154.813
2250.03	151.423
2249.29	127.847
2248.55	121.099
2247.8	131.169
2247.06	131.148
2246.32	154.662
2245.57	151.275
2244.83	147.889
2244.09	134.423
2243.34	141.121
2242.6	147.817
2241.85	127.639
2241.11	144.41
2240.36	171.249
2239.62	151.078
2238.88	167.837
2238.13	164.453
2237.39	151.004
2236.64	147.624
2235.89	181.145
2235.15	144.222
2234.4	127.431
2233.66	157.586
2232.91	124.037
2232.17	130.72
2231.42	123.997
2230.67	140.73
2229.93	117.256
2229.18	147.383
2228.44	140.661
2227.69	127.244
2226.94	187.487
2226.2	150.634
2225.45	147.263
2224.7	153.932
2223.95	150.561
2223.21	150.536
2222.46	133.788
2221.71	137.11
2220.96	123.714
2220.22	153.781
2219.47	127.016
2218.72	153.731
2217.97	136.998
2217.22	153.68
2216.48	106.891
2215.73	170.329
2214.98	140.248
2214.23	160.257
2213.48	140.202
2212.73	130.167
2211.98	103.449
2211.23	116.778
2210.48	113.423
2209.73	140.088
2208.98	150.069
2208.23	116.702
2207.48	126.684
2206.73	149.996
2205.98	139.973
2205.23	99.9646
2204.48	116.606
2203.73	133.242
2202.98	126.56
2202.23	159.839
2201.48	146.495
2200.73	169.773
2199.98	103.178
2199.23	103.162
2198.48	116.454
2197.72	113.108
2196.97	146.351
2196.22	109.745
2195.47	126.353
2194.72	126.332
2193.97	156.227
2193.21	142.908
2192.46	149.53
2191.71	199.341
2190.96	159.447
2190.2	136.172
2189.45	166.036
2188.7	126.167
2187.94	136.105
2187.19	142.721
2186.44	119.468
2185.68	139.356
2184.93	139.333
2184.18	99.5075
2183.42	129.339
2182.67	132.633
2181.91	159.134
2181.16	106.072
2180.41	139.196
2179.65	119.292
2178.9	155.716
2178.14	178.879
2177.39	172.225
2176.63	208.624
2175.88	168.858
2175.12	158.899
2174.37	142.324
2173.61	135.682
2172.86	122.425
2172.1	152.179
2171.34	178.615
2170.59	155.436
2169.83	148.797
2169.08	155.385
2168.32	122.304
2167.56	138.809
2166.81	138.786
2166.05	165.195
2165.29	148.651
2164.54	148.626
2163.78	122.184
2163.02	125.466
2162.27	132.047
2161.51	115.522
2160.75	125.404
2159.99	112.185
2159.23	125.363
2158.48	148.431
2157.72	118.726
2156.96	131.896
2156.2	141.765
2155.44	141.741
2154.69	135.126
2153.93	168.057
2153.17	164.734
2152.41	171.296
2151.65	174.561
2150.89	158.067
2150.13	121.823
2149.37	115.219
2148.61	108.618
2147.85	154.672
2147.09	128.324
2146.33	161.201
2145.57	138.15
2144.81	174.303
2144.05	161.122
2143.29	131.506
2142.53	138.059
2141.77	128.176
2141.01	151.158
2140.25	118.278
2139.49	118.258
2138.73	157.652
2137.97	137.923
2137.2	141.183
2136.44	157.574
2135.68	141.137
2134.92	127.987
2134.16	150.934
2133.4	127.945
2132.63	137.764
2131.87	147.58
2131.11	137.719
2130.35	160.646
2129.58	144.229
2128.82	170.425
2128.06	154.013
2127.29	173.645
2126.53	206.374
2125.77	189.964
2125	167.01
2124.24	140.789
2123.48	160.408
2122.71	140.743
2121.95	166.9
2121.19	134.152
2120.42	183.203
2119.66	179.901
2118.89	156.979
2118.13	163.493
2117.36	104.618
2116.6	134.02
2115.83	153.607
2115.07	166.653
2114.3	179.694
2113.54	160.065
2112.77	146.974
2112.01	150.215
2111.24	156.721
2110.48	159.959
2109.71	127.294
2108.94	182.75
2108.18	166.406
2107.41	143.542
2106.64	153.304
2105.88	136.972
2105.11	143.471
2104.34	146.708
2103.58	127.126
2102.81	195.546
2102.04	208.548
2101.28	192.224
2100.51	169.389
2099.74	172.618
2098.97	136.769
2098.21	172.561
2097.44	149.746
2096.67	146.466
2095.9	159.459
2095.13	191.97
2094.36	204.951
2093.6	159.38
2092.83	172.362
2092.06	188.592
2091.29	169.054
2090.52	175.528
2089.75	178.749
2088.98	142.975
2088.21	162.445
2087.44	155.922
2086.67	165.639
2085.9	129.892
2085.13	139.611
2084.36	165.557
2083.59	155.793
2082.82	171.993
2082.05	165.475
2081.28	149.228
2080.51	178.395
2079.74	139.449
2078.97	149.154
2078.2	110.226
2077.43	145.863
2076.65	126.394
2075.88	158.776
2075.11	126.352
2074.34	165.202
2073.57	155.459
2072.8	168.386
2072.02	158.645
2071.25	178.041
2070.48	178.012
2069.71	168.274
2068.93	152.069
2068.16	148.809
2067.39	164.957
2066.61	151.994
2065.84	155.202
2065.07	164.875
2064.29	161.615
2063.52	161.588
2062.75	206.799
2061.97	161.535
2061.2	164.738
2060.43	177.63
2059.65	158.226
2058.88	158.2
2058.1	148.489
2057.33	180.74
2056.55	180.71
2055.78	209.718
2055	225.813
2054.23	212.874
2053.45	138.668
2052.68	164.439
2051.9	154.74
2051.13	161.161
2050.35	180.471
2049.57	183.663
2048.8	209.406
2048.02	212.592
2047.25	151.366
2046.47	154.561
2045.69	186.731
2044.92	173.824
2044.14	148.048
2043.36	183.42
2042.59	167.303
2041.81	176.925
2041.03	189.761
2040.25	170.435
2039.48	173.622
2038.7	186.452
2037.92	147.851
2037.14	163.895
2036.37	186.36
2035.59	212.029
2034.81	183.086
2034.03	176.633
2033.25	157.337
2032.47	170.153
2031.69	227.903
2030.92	192.562
2030.14	173.277
2029.36	202.123
2028.58	173.22
2027.8	182.813
2027.02	192.403
2026.24	166.721
2025.46	189.133
2024.68	173.076
2023.9	173.048
2023.12	237.1
2022.34	205.025
2021.56	176.164
2020.78	198.552
2020	195.318
2019.21	172.875
2018.43	185.65
2017.65	172.818
2016.87	188.788
2016.09	195.156
2015.31	195.123
2014.53	236.667
2013.74	246.221
2012.96	249.377
2012.18	201.387
2011.4	198.157
2010.62	204.516
2009.83	198.092
2009.05	223.615
2008.27	213.996
2007.49	197.993
2006.7	175.61
2005.92	175.58
2005.14	210.662
2004.35	220.2
2003.57	172.302
2002.79	210.557
2002	194.573
2001.22	220.054
2000.43	239.15
1999.65	191.288
1998.87	197.631
1998.08	235.843
1997.3	226.244
1996.51	203.905
1995.73	210.242
1994.94	251.611
1994.16	213.356
1993.37	206.953
1992.59	226.019
1991.8	210.067
1991.02	225.944
1990.23	209.997
1989.44	206.781
1988.66	254.457
1987.87	187.631
1987.09	206.678
1986.3	209.823
1985.51	219.324
1984.73	251.068
1983.94	231.961
1983.15	200.152
1982.37	203.295
1981.58	222.317
1980.79	231.806
1980	253.992
1979.22	241.252
1978.43	238.038
1977.64	199.919
1976.85	244.305
1976.06	256.953
1975.28	250.567
1974.49	247.354
1973.7	221.947
1972.91	253.612
1972.12	180.668
1971.33	212.329
1970.54	256.654
1969.76	304.131
1968.97	262.903
1968.18	247.024
1967.39	256.483
1966.6	262.772
1965.81	284.886
1965.02	221.541
1964.23	240.49
1963.44	268.924
1962.65	221.43
1961.86	259.346
1961.07	262.465
1960.28	240.29
1959.48	271.861
1958.69	252.852
1957.9	252.81
1957.11	284.364
1956.32	284.316
1955.53	274.793
1954.74	240.009
1953.94	249.442
1953.15	268.342
1952.36	239.889
1951.57	252.473
1950.78	280.829
1949.98	290.247
1949.19	280.735
1948.4	258.612
1947.61	293.255
1946.81	283.748
1946.02	290.005
1945.23	289.956
1944.43	271.001
1943.64	277.257
1942.85	289.811
1942.05	292.912
1941.26	324.354
1940.46	330.597
1939.67	248.693
1938.88	248.652
1938.08	261.198
1937.29	298.912
1936.49	308.3
1935.7	267.358
1934.9	298.762
1934.11	273.558
1933.31	295.519
1932.52	279.753
1931.72	301.705
1930.93	245.095
1930.13	263.904
1929.33	285.848
1928.54	276.378
1927.74	301.453
1926.95	310.822
1926.15	320.187
1925.35	307.579
1924.56	316.942
1923.76	279.239
1922.96	294.877
1922.17	301.101
1921.37	310.458
1920.57	304.135
1919.77	282.14
1918.98	282.093
1918.18	325.92
1917.38	281.999
1916.58	260.022
1915.78	310.095
1914.99	319.438
1914.19	325.647
1913.39	325.593
1912.59	322.408
1911.79	294.187
1910.99	281.622
1910.19	312.861
1909.39	297.168
1908.59	353.414
1907.8	356.482
1907	328.284
1906.2	306.347
1905.4	321.923
1904.6	281.245
1903.8	315.566
1903	324.885
1902.2	343.571
1901.39	340.39
1900.59	346.578
1899.79	324.667
1898.99	362.068
1898.19	393.215
1897.39	349.466
1896.59	368.126
1895.79	336.872
1894.99	333.697
1894.18	411.595
1893.38	346.056
1892.58	367.818
1891.78	361.523
1890.98	296.025
1890.17	364.517
1889.37	370.686
1888.57	323.907
1887.76	345.65
1886.96	367.386
1886.16	398.454
1885.36	333.027
1884.55	336.083
1883.75	360.917
1882.94	304.862
1882.14	332.803
1881.34	360.735
1880.53	338.91
1879.73	326.418
1878.92	382.312
1878.12	354.278
1877.32	366.647
1876.51	366.586
1875.71	372.737
1874.9	378.885
1874.1	344.666
1873.29	353.921
1872.49	310.405
1871.68	322.767
1870.87	356.846
1870.07	400.221
1869.26	344.319
1868.46	356.667
1867.65	341.102
1866.84	356.547
1866.04	365.787
1865.23	325.433
1864.42	347.071
1863.62	319.127
1862.81	365.541
1862	365.479
1861.2	359.225
1860.39	349.875
1859.58	380.774
1858.77	334.282
1857.96	380.646
1857.16	349.64
1856.35	349.582
1855.54	417.572
1854.73	355.649
1853.92	358.682
1853.12	367.896
1852.31	383.289
1851.5	395.587
1850.69	367.71
1849.88	386.186
1849.07	383.032
1848.26	373.702
1847.45	404.518
1846.64	382.838
1845.83	401.295
1845.02	370.364
1844.21	376.474
1843.4	342.472
1842.59	401.025
1841.78	391.705
1840.97	397.807
1840.16	419.322
1839.35	403.838
1838.54	422.264
1837.72	471.5
1836.91	434.446
1836.1	434.373
1835.29	403.498
1834.48	372.634
1833.67	335.622
1832.85	338.644
1832.04	409.383
1831.23	390.849
1830.42	393.86
1829.6	378.411
1828.79	384.499
1827.98	387.51
1827.17	384.37
1826.35	356.635
1825.54	387.314
1824.73	390.322
1823.91	408.694
1823.1	384.046
1822.29	439.275
1821.47	457.629
1820.66	439.127
1819.84	380.717
1819.03	429.769
1818.21	417.42
1817.4	368.249
1816.58	411.143
1815.77	346.651
1814.95	346.593
1814.14	392.535
1813.32	413.931
1812.51	438.387
1811.69	472.029
1810.88	471.95
1810.06	428.973
1809.25	407.455
1808.43	373.693
1807.61	385.88
1806.8	456.242
1805.98	404.119
1805.16	394.868
1804.35	428.466
1803.53	437.574
1802.71	406.906
1801.89	394.601
1801.08	443.469
1800.26	412.815
1799.44	431.09
1798.62	446.302
1797.81	452.339
1796.99	479.765
1796.17	461.352
1795.35	424.617
1794.53	421.491
1793.71	403.097
1792.9	387.763
1792.08	442.646
1791.26	418.154
1790.44	384.514
1789.62	430.217
1788.8	451.499
1787.98	423.972
1787.16	417.801
1786.34	378.091
1785.52	387.173
1784.7	420.637
1783.88	451.042
1783.06	402.212
1782.24	417.377
1781.42	392.938
1780.6	408.099
1779.78	411.075
1778.95	414.05
1778.13	392.673
1777.31	404.78
1776.49	422.969
1775.67	422.898
1774.85	434.994
1774.02	380.175
1773.2	401.397
1772.38	404.369
1771.56	413.421
1770.74	407.272
1769.91	434.552
1769.09	413.211
1768.27	419.216
1767.44	458.63
1766.62	446.405
1765.8	467.584
1764.97	428.04
1764.15	427.967
1763.33	458.242
1762.5	458.165
1761.68	476.289
1760.85	473.175
1760.03	476.128
1759.21	433.597
1758.38	445.65
1757.56	466.793
1756.73	436.407
1755.91	463.604
1755.08	508.97
1754.26	517.971
1753.43	496.683
1752.6	466.318
1751.78	457.157
1750.95	438.917
1750.13	469.108
1749.3	472.054
1748.47	468.949
1747.65	426.52
1746.82	459.717
1745.99	444.519
1745.17	492.818
1744.34	474.597
1743.51	450.338
1742.69	471.415
1741.86	459.249
1741.03	555.839
1740.2	501.378
1739.38	528.472
1738.55	443.841
1737.72	464.897
1736.89	461.8
1736.06	497.935
1735.23	449.574
1734.4	476.649
1733.58	419.259
1732.75	476.487
1731.92	464.346
1731.09	500.443
1730.26	452.131
1729.43	488.219
1728.6	479.096
1727.77	524.205
1726.94	490.982
1726.11	505.957
1725.28	502.86
1724.45	484.711
1723.62	475.598
1722.79	481.537
1721.96	538.628
1721.13	514.468
1720.3	478.283
1719.46	481.21
1718.63	472.107
1717.8	529.151
1716.97	526.055
1716.14	477.877
1715.31	501.836
1714.47	510.764
1713.64	528.701
1712.81	495.573
1711.98	537.531
1711.14	522.427
1710.31	564.365
1709.48	597.285
1708.65	534.164
1707.81	552.076
1706.98	563.982
1706.15	494.9
1705.31	554.793
1704.48	536.709
1703.64	551.607
1702.81	578.489
1701.98	587.381
1701.14	530.351
1700.31	551.231
1699.47	551.138
1698.64	536.07
1697.8	580.893
1696.97	511.937
1696.13	619.608
1695.3	607.531
1694.46	538.606
1693.63	526.547
1692.79	532.44
1691.95	523.377
1691.12	481.425
1690.28	523.199
1689.45	532.078
1688.61	523.021
1687.77	552.814
1686.94	567.658
1686.1	549.638
1685.26	564.478
1684.42	585.285
1683.59	528.458
1682.75	528.368
1681.91	525.294
1681.07	537.14
1680.24	599.705
1679.4	536.957
1678.56	533.883
1677.72	551.685
1676.88	599.296
1676.04	587.27
1675.21	578.228
1674.37	548.329
1673.53	575.051
1672.69	628.576
1671.85	565.919
1671.01	556.889
1670.17	574.659
1669.33	556.699
1668.49	523.863
1667.65	568.413
1666.81	598.071
1665.97	511.695
1665.13	550.276
1664.29	568.025
1663.45	567.928
1662.61	597.561
1661.77	615.294
1660.92	576.554
1660.08	549.712
1659.24	564.473
1658.4	597.051
1657.56	593.979
1656.72	576.062
1655.87	572.995
1655.03	596.644
1654.19	602.478
1653.35	599.407
1652.5	563.703
1651.66	599.203
1650.82	584.271
1649.98	610.859
1649.13	542.564
1648.29	545.436
1647.45	560.161
1646.6	574.882
1645.76	604.412
1644.91	583.573
1644.07	636.785
1643.23	574.49
1642.38	524.058
1641.54	577.253
1640.69	547.557
1639.85	624.404
1639	582.875
1638.16	547.276
1637.31	556.056
1636.47	618.063
1635.62	591.347
1634.78	573.508
1633.93	605.923
1633.08	558.536
1632.24	543.667
1631.39	590.841
1630.55	543.481
1629.7	623.124
1628.85	655.497
1628.01	625.863
1627.16	587.384
1626.31	602.04
1625.46	616.69
1624.62	563.482
1623.77	578.134
1622.92	542.645
1622.07	557.295
1621.23	616.163
1620.38	574.79
1619.53	574.692
1618.68	604.06
1617.83	583.333
1616.98	615.635
1616.13	633.201
1615.29	624.258
1614.44	565.269
1613.59	571.06
1612.74	597.45
1611.89	609.118
1611.04	611.956
1610.19	641.267
1609.34	599.982
1608.49	558.711
1607.64	540.974
1606.79	626.129
1605.94	637.778
1605.09	628.853
1604.24	567.046
1603.38	543.449
1602.53	596.222
1601.68	610.803
1600.83	628.315
1599.98	610.594
1599.13	601.684
1598.27	598.646
1597.42	592.675
1596.57	613.108
1595.72	624.735
1594.87	609.966
1594.01	589.337
1593.16	589.236
1592.31	594.997
1591.45	627.13
1590.6	618.233
1589.75	568.325
1588.89	626.807
1588.04	617.914
1587.19	562.176
1586.33	608.92
1585.48	661.501
1584.62	678.947
1583.77	643.718
1582.92	582.172
1582.06	649.347
1581.21	579.048
1580.35	634.504
1579.5	602.237
1578.64	640.132
1577.78	619.565
1576.93	610.693
1576.07	613.509
1575.22	610.483
1574.36	569.492
1573.51	630.713
1572.65	610.168
1571.79	586.712
1570.94	656.654
1570.08	604.018
1569.22	685.603
1568.37	592.143
1567.51	647.453
1566.65	574.443
1565.79	638.485
1564.94	629.63
1564.08	617.864
1563.22	620.672
1562.36	655.526
1561.5	667.065
1560.65	637.826
1559.79	646.452
1558.93	695.836
1558.07	625.853
1557.21	573.358
1556.35	640.188
1555.49	689.538
1554.63	724.327
1553.77	666.033
1552.91	657.195
1552.05	715.231
1551.19	729.642
1550.33	659.762
1549.47	662.554
1548.61	601.426
1547.75	636.182
1546.89	644.786
1546.03	612.731
1545.17	644.564
1544.31	696.706
1543.45	658.854
1542.58	647.133
1541.72	644.12
1540.86	664.315
1540	652.599
1539.14	614.788
1538.28	669.771
1537.41	695.746
1536.55	681.134
1535.69	692.609
1534.82	709.874
1533.96	689.473
1533.1	660.39
1532.24	700.819
1531.37	692.012
1530.51	706.367
1529.64	662.829
1528.78	723.488
1527.92	708.896
1527.05	705.88
1526.19	653.695
1525.32	668.042
1524.46	662.144
1523.59	708.285
1522.73	687.929
1521.86	696.48
1521	650.129
1520.13	661.573
1519.27	661.459
1518.4	710.44
1517.54	707.43
1516.67	707.308
1515.8	663.889
1514.94	675.318
1514.07	657.888
1513.21	669.315
1512.34	646.123
1511.47	663.316
1510.6	671.852
1509.74	720.747
1508.87	694.68
1508	743.554
1507.14	700.203
1506.27	668.391
1505.4	665.395
1504.53	734.4
1503.66	725.635
1502.8	688.082
1501.93	728.263
1501.06	733.893
1500.19	704.991
1499.32	739.393
1498.45	745.019
1497.58	793.782
1496.71	762.014
1495.84	730.257
1494.97	776.123
1494.1	747.249
1493.23	761.487
1492.36	715.387
1491.49	815.803
1490.62	772.581
1489.75	818.392
1488.88	792.411
1488.01	803.756
1487.14	760.566
1486.27	803.478
1485.4	797.601
1484.52	806.069
1483.65	828.874
1482.78	880.347
1481.91	880.195
1481.04	862.843
1480.17	877.024
1479.29	914.125
1478.42	931.157
1477.55	962.507
1476.67	1011.03
1475.8	1005.13
1474.93	1019.27
1474.06	1176.54
1473.18	1150.57
1472.31	1267.7
1471.43	1296.09
1470.56	1444.62
1469.69	1544.48
1468.81	1621.42
1467.94	1824.14
1467.06	2032.51
1466.19	2183.64
1465.31	2446.16
1464.44	2780.03
1463.56	2930.95
1462.69	3338.88
1461.81	3689.55
1460.94	4031.53
1460.06	4427.64
1459.19	4563.87
1458.31	4637.28
1457.43	4448.16
1456.56	4507.3
1455.68	4172.8
1454.8	3858.39
1453.93	3703.75
1453.05	3628.99
1452.17	3346.19
1451.3	3126.18
1450.42	2943.28
1449.54	2808.88
1448.66	2623.26
1447.78	2486.11
1446.91	2317.69
1446.03	2200.57
1445.15	2094.87
1444.27	2054.67
1443.39	1963.26
1442.51	2014.13
1441.64	1979.65
1440.76	1967.93
1439.88	2050.04
1439	2191.83
1438.12	2171.55
1437.24	2412.73
1436.36	2406.63
1435.48	2528.37
1434.6	2621.66
1433.72	2484.89
1432.84	2444.71
1431.96	2146.2
1431.08	1802.38
1430.2	1555.17
1429.31	1342.1
1428.43	1265.27
1427.55	1165.77
1426.67	1057.8
1425.79	1091.64
1424.91	955.377
1424.02	963.715
1423.14	926.706
1422.26	901.043
1421.38	929.216
1420.49	948.882
1419.61	892.078
1418.73	900.417
1417.85	900.26
1416.96	911.426
1416.08	902.777
1415.2	956.381
1414.31	845.883
1413.43	876.849
1412.54	859.729
1411.66	870.889
1410.78	865.084
1409.89	876.24
1409.01	878.913
1408.12	875.935
1407.24	844.706
1406.35	830.436
1405.47	855.709
1404.58	807.558
1403.7	807.417
1402.81	807.277
1401.92	801.492
1401.04	857.786
1400.15	792.749
1399.27	792.611
1398.38	829.136
1397.49	854.369
1396.61	857.039
1395.72	825.884
1394.83	879.286
1393.94	842.503
1393.06	819.818
1392.17	873.194
1391.28	822.349
1390.39	872.889
1389.51	906.521
1388.62	931.696
1387.73	869.619
1386.84	908.86
1385.95	903.075
1385.06	925.421
1384.17	928.072
1383.29	944.781
1382.4	947.428
1381.51	997.858
1380.62	986.443
1379.73	1000.32
1378.84	1115.33
1377.95	1154.46
1377.06	1193.58
1376.17	1235.49
1375.28	1325.11
1374.39	1305.23
1373.5	1285.36
1372.6	1282.33
1371.71	1259.66
1370.82	1265.05
1369.93	1287.27
1369.04	1194.51
1368.15	1270
1367.26	1320.23
1366.36	1305.98
1365.47	1342.18
1364.58	1496.04
1363.69	1422.95
1362.79	1632.74
1361.9	1699.66
1361.01	1819.75
1360.11	1948.19
1359.22	2029.01
1358.33	1969.89
1357.43	2014.31
1356.54	1890.88
1355.65	1773.09
1354.75	1638.57
1353.86	1506.88
1352.96	1433.94
1352.07	1338.67
1351.17	1179.17
1350.28	1114.7
1349.39	1159.2
1348.49	1145.03
1347.59	1169.97
1346.7	1080.42
1345.8	1108.15
1344.91	1135.86
1344.01	1130.08
1343.12	1180.1
1342.22	1216.16
1341.32	1207.58
1340.43	1279.86
1339.53	1332.61
1338.63	1424.36
1337.74	1474.28
1336.84	1613.34
1335.94	1783
1335.04	1818.9
1334.15	2033.02
1333.25	2132.91
1332.35	2594.68
1331.45	2992.26
1330.55	3292.31
1329.66	3595.02
1328.76	3931.02
1327.86	3732.84
1326.96	3359.53
1326.06	3161.52
1325.16	2743.95
1324.26	2459.95
1323.36	2070.44
1322.46	1817.22
1321.56	1683.56
1320.66	1561.04
1319.76	1483.01
1318.86	1288.38
1317.96	1324.25
1317.06	1287.93
1316.16	1151.72
1315.26	1201.46
1314.36	1087.51
1313.46	1051.26
1312.55	1026.11
1311.65	1084.16
1310.75	1014.66
1309.85	1056.06
1308.95	1061.42
1308.04	1088.94
1307.14	1055.51
1306.24	1196.59
1305.34	1235.15
1304.43	1212.78
1303.53	1201.5
1302.63	1170.84
1301.72	1181.7
1300.82	1162.13
1299.92	1181.29
1299.01	1147.89
1298.11	1194.7
1297.21	1282.97
1296.3	1208.1
1295.4	1343.33
1294.49	1367.97
1293.59	1315.23
1292.68	1198.97
1291.78	1154.56
1290.87	1090.84
1289.97	947.072
1289.06	899.975
1288.16	897.056
1287.25	855.504
1286.34	805.688
1285.44	783.476
1284.53	739.207
1283.62	766.655
1282.72	708.617
1281.81	697.466
1280.9	675.293
1280	688.953
1279.09	713.63
1278.18	683.201
1277.27	677.573
1276.37	691.223
1275.46	633.28
1274.55	652.439
1273.64	663.334
1272.73	710.001
1271.82	668.604
1270.92	668.486
1270.01	638.113
1269.1	627.001
1268.19	635.14
1267.28	563.553
1266.37	651.407
1265.46	612.82
1264.55	590.731
1263.64	612.604
1262.73	601.51
1261.82	664.565
1260.91	667.194
1260	678.057
1259.09	705.385
1258.18	716.238
1257.27	757.267
1256.35	803.769
1255.44	872.196
1254.53	929.631
1253.62	860.922
1252.71	849.805
1251.79	745.504
1250.88	816.622
1249.97	739.762
1249.06	676.626
1248.14	679.246
1247.23	621.62
1246.32	591.393
1245.41	635.088
1244.49	550.13
1243.58	618.445
1242.66	623.808
1241.75	577.194
1240.84	694.699
1239.92	596.133
1239.01	623.369
1238.09	595.923
1237.18	606.75
1236.26	606.643
1235.35	606.536
1234.43	598.234
1233.52	595.398
1232.6	576.178
1231.69	638.871
1230.77	627.839
1229.86	676.855
1228.94	684.922
1228.02	722.998
1227.11	750.148
1226.19	714.56
1225.27	779.879
1224.36	880.617
1223.44	1019.48
1222.52	1212.81
1221.6	1335.21
1220.69	1288.66
1219.77	1413.74
1218.85	1432.55
1217.93	1503.1
1217.01	1415.71
1216.1	1344.69
1215.18	1238.31
1214.26	1066.66
1213.34	1036.55
1212.42	1011.88
1211.5	883.882
1210.58	859.253
1209.66	788.416
1208.74	733.913
1207.82	701.171
1206.9	643.985
1205.98	641.154
1205.06	616.594
1204.14	581.18
1203.22	602.8
1202.3	575.545
1201.38	570.015
1200.46	605.194
1199.54	550.819
1198.61	613.119
1197.69	583.174
1196.77	610.19
1195.85	601.948
1194.93	585.575
1194	547.525
1193.08	514.907
1192.16	547.331
1191.24	585.161
1190.31	552.555
1189.39	560.581
1188.47	492.791
1187.54	517.068
1186.62	514.27
1185.7	535.829
1184.77	511.382
1183.85	503.176
1182.92	592.344
1182	573.309
1181.07	551.577
1180.15	597.436
1179.23	613.548
1178.3	594.522
1177.37	710.599
1176.45	750.994
1175.52	777.87
1174.6	823.641
1173.67	926.094
1172.75	1012.31
1171.82	1182.17
1170.89	1327.69
1169.97	1575.67
1169.04	1718.37
1168.11	1896.07
1167.19	1946.97
1166.26	1860.35
1165.33	1784.54
1164.4	1733.01
1163.48	1657.26
1162.55	1597.69
1161.62	1551.61
1160.69	1502.86
1159.76	1507.98
1158.83	1556.17
1157.91	1663.57
1156.98	1792.46
1156.05	1886.32
1155.12	2060.87
1154.19	2380.6
1153.26	2587.27
1152.33	2737.4
1151.4	2841.76
1150.47	2749.87
1149.54	2633.81
1148.61	2189.98
1147.68	2012.27
1146.75	1719.12
1145.82	1538.88
1144.89	1313.05
1143.96	1159.79
1143.02	1092.48
1142.09	963.466
1141.16	920.362
1140.23	791.425
1139.3	740.32
1138.36	705.325
1137.43	713.244
1136.5	694.351
1135.57	651.341
1134.63	629.785
1133.7	594.841
1132.77	605.451
1131.83	565.166
1130.9	605.236
1129.97	631.904
1129.03	637.145
1128.1	639.709
1127.17	669.033
1126.23	634.13
1125.3	596.565
1124.36	679.375
1123.43	596.353
1122.49	553.467
1121.56	628.22
1120.62	515.851
1119.69	513.087
1118.75	446.199
1117.81	483.519
1116.88	451.382
1115.94	472.665
1115.01	491.271
1114.07	480.505
1113.13	493.765
1112.2	499.014
1111.26	522.938
1110.32	544.185
1109.38	496.081
1108.45	586.658
1107.51	546.561
1106.57	597.111
1105.63	612.996
1104.69	695.494
1103.76	687.377
1102.82	743.194
1101.88	727.082
1100.94	684.347
1100	700.199
1099.06	574.966
1098.12	566.879
1097.18	540.169
1096.24	558.696
1095.3	526.677
1094.36	489.35
1093.42	518.512
1092.48	497.151
1091.54	438.585
1090.6	457.11
1089.66	496.885
1088.72	502.11
1087.78	475.459
1086.84	475.374
1085.9	504.497
1084.95	485.823
1084.01	485.737
1083.07	522.804
1082.13	501.484
1081.19	474.865
1080.24	482.738
1079.3	511.823
1078.36	543.549
1077.41	527.546
1076.47	548.656
1075.53	527.358
1074.58	482.221
1073.64	452.995
1072.7	505.887
1071.75	503.148
1070.81	484.525
1069.86	553.265
1068.92	555.813
1067.98	574.238
1067.03	560.907
1066.09	558.161
1065.14	563.351
1064.19	613.493
1063.25	676.837
1062.3	623.848
1061.36	681.881
1060.41	636.837
1059.46	634.082
1058.52	644.534
1057.57	599.521
1056.63	646.945
1055.68	601.947
1054.73	625.596
1053.78	585.897
1052.84	620.095
1051.89	641.09
1050.94	664.716
1049.99	672.509
1049.05	682.936
1048.1	724.995
1047.15	777.583
1046.2	861.777
1045.25	874.797
1044.3	932.599
1043.35	1021.99
1042.4	1058.67
1041.45	1063.75
1040.5	1134.64
1039.55	1221.3
1038.6	1231.6
1037.65	1202.44
1036.7	1278.52
1035.75	1246.72
1034.8	1212.31
1033.85	1122.7
1032.9	1019.98
1031.95	896.263
1031	856.684
1030.05	798.728
1029.1	788.078
1028.14	714.396
1027.19	701.138
1026.24	648.502
1025.29	606.385
1024.33	632.522
1023.38	587.799
1022.43	561.458
1021.48	592.835
1020.52	558.634
1019.57	587.378
1018.62	561.055
1017.66	492.801
1016.71	505.817
1015.75	518.828
1014.8	547.554
1013.85	534.358
1012.89	547.357
1011.94	555.115
1010.98	628.319
1010.03	628.206
1009.07	601.923
1008.12	669.846
1007.16	620.02
1006.2	690.531
1005.25	706.098
1004.29	719.045
1003.34	870.542
1002.38	922.661
1001.42	1037.48
1000.47	1207.13
999.508	1371.49
998.551	1674.23
997.594	1509.4
996.636	1524.8
995.679	1326.13
994.721	1132.75
993.763	1049.04
992.805	868.825
991.846	766.933
990.888	704.2
989.929	610.197
988.97	597.051
988.011	550.022
987.052	555.136
986.093	560.248
985.133	557.542
984.173	565.256
983.213	559.946
982.253	549.43
981.293	624.831
980.333	684.588
979.372	798.976
978.411	884.701
977.45	1079.66
976.489	1292.76
975.528	1479.77
974.566	1713.53
973.605	1890
972.643	2006.62
971.681	1858.13
970.719	1678.51
969.756	1410.63
968.794	1215.58
967.831	1020.59
966.868	838.653
965.905	724.279
964.942	705.98
963.979	721.424
963.015	695.348
962.052	677.064
961.088	640.631
960.124	578.279
959.159	547.063
958.195	544.372
957.23	552.049
956.266	559.724
955.301	554.441
954.336	518.076
953.37	476.544
952.405	484.227
951.439	468.606
950.473	494.406
949.507	571.959
948.541	587.381
947.575	561.404
946.608	561.303
945.642	659.477
944.675	711.072
943.708	749.723
942.741	834.886
941.773	891.59
940.806	948.274
939.838	888.686
938.87	875.611
937.902	831.551
936.934	741.031
935.965	678.941
934.997	642.684
934.028	598.698
933.059	490.225
932.09	492.716
931.121	518.419
930.151	500.274
929.182	440.884
928.212	443.382
927.242	471.653
926.272	443.222
925.301	419.954
924.331	404.423
923.36	489.341
922.389	435.177
921.418	435.098
920.447	404.131
919.475	447.809
918.504	419.424
917.532	383.331
916.56	434.706
915.588	442.343
914.616	455.119
913.643	444.754
912.671	434.392
911.698	426.604
910.725	459.929
909.752	475.26
908.779	475.174
907.805	464.816
906.831	457.029
905.858	472.349
904.883	546.697
903.909	585.091
902.935	669.654
901.96	713.142
900.986	772.004
900.011	848.794
899.036	848.641
898.06	797.219
897.085	753.505
896.109	737.994
895.133	668.686
894.157	627.58
893.181	578.806
892.205	527.489
891.229	504.352
890.252	542.656
889.275	499.051
888.298	465.696
887.321	501.428
886.343	447.623
885.366	437.312
884.388	483.258
883.41	460.162
882.432	521.423
881.454	516.217
880.475	534.009
879.497	516.03
878.518	485.287
877.539	487.753
876.56	543.835
875.58	472.26
874.601	495.145
873.621	561.403
872.641	566.404
871.661	665.786
870.681	655.464
869.701	660.445
868.72	594.038
867.739	570.989
866.758	578.531
865.777	573.33
864.796	568.131
863.815	616.424
862.833	687.622
861.851	712.96
860.869	651.731
859.887	651.613
858.905	738.021
857.922	753.154
856.939	740.297
855.956	796.12
854.973	793.433
853.99	823.8
853.007	955.841
852.023	970.918
851.039	1011.4
850.055	1092.52
849.071	1150.75
848.087	1325.79
847.102	1434.74
846.118	1678.21
845.133	1946.98
844.148	2426.31
843.163	3105.92
842.177	3934.98
841.192	4177.78
840.206	3898.04
839.22	3334.41
838.234	2786.2
837.248	2273.68
836.261	1999.56
835.274	1857.3
834.288	1715.09
833.301	1671.72
832.313	1603.04
831.326	1430.58
830.339	1415.13
829.351	1278.19
828.363	1270.37
827.375	1323.27
826.387	1254.73
825.398	1219.09
824.409	1135.42
823.421	1122.57
822.432	1081.92
821.443	1028.65
820.453	1061.31
819.464	1015.64
818.474	1172.07
817.484	1161.76
816.494	1265.07
815.504	1436.52
814.513	1633.14
813.523	1960.93
812.532	2475.32
811.541	3082.86
810.55	3758.29
809.559	4683.13
808.567	4863.82
807.575	4736.89
806.583	3984.91
805.591	3165.17
804.599	2446.52
803.607	1980.03
802.614	1556.54
801.621	1354.8
800.628	1228.66
799.635	1064.81
798.642	1019.32
797.649	996.484
796.655	988.755
795.661	822.554
794.667	762.044
793.673	779.507
792.678	716.513
791.684	706.328
790.689	678.555
789.694	590.486
788.699	582.842
787.704	595.294
786.708	640.39
785.713	562.436
784.717	599.99
783.721	562.231
782.724	469.277
781.728	479.227
780.731	464.088
779.735	408.825
778.738	403.735
777.741	433.748
776.743	386.04
775.746	453.64
774.748	415.969
773.75	398.356
772.752	458.401
771.754	463.327
770.756	435.698
769.757	430.611
768.758	402.999
767.759	457.983
766.76	515.45
765.761	457.816
764.761	470.238
763.762	507.665
762.762	505.072
761.762	412.483
760.762	362.419
759.761	387.343
758.761	407.26
757.76	372.213
756.759	364.652
755.758	359.591
754.756	401.969
753.755	391.911
752.753	434.267
751.751	429.197
750.749	441.593
749.747	434.029
748.745	541.19
747.742	526.13
746.739	436.284
745.736	401.308
744.733	376.313
743.73	408.636
742.726	443.439
741.723	410.977
740.719	418.373
739.715	438.216
738.71	415.731
737.706	380.809
736.701	420.556
735.697	425.455
734.692	415.426
733.686	410.376
732.681	432.681
731.675	472.381
730.67	442.466
729.664	509.488
728.658	484.546
727.651	424.832
726.645	385.011
725.638	402.325
724.631	437.014
723.624	367.421
722.617	364.872
721.61	411.957
720.602	394.513
719.595	374.594
718.587	406.77
717.578	433.973
716.57	411.579
715.562	409.025
714.553	413.907
713.544	406.397
712.535	356.771
711.526	388.908
710.516	364.07
709.507	396.194
708.497	465.443
707.487	381.197
706.477	309.356
705.467	393.429
704.456	403.253
703.445	413.073
702.434	343.752
701.423	358.524
700.412	341.154
699.401	407.826
698.389	420.107
697.377	397.793
696.365	400.191
695.353	397.647
694.34	412.391
693.328	367.874
692.315	402.365
691.302	412.164
690.289	375.074
689.276	362.669
688.262	370.003
687.249	374.867
686.235	399.456
685.221	369.799
684.206	372.196
683.192	409.094
682.177	394.235
681.162	431.115
680.147	428.573
679.132	455.583
678.117	504.742
677.101	509.573
676.086	364.265
675.07	371.581
674.054	334.607
673.037	344.385
672.021	393.511
671.004	373.766
669.987	400.742
668.97	385.919
667.953	385.848
666.936	363.663
665.918	368.509
664.9	336.51
663.882	375.741
662.864	380.583
661.846	351.054
660.827	400.078
659.808	429.453
658.789	385.21
657.77	390.045
656.751	412.047
655.731	365.379
654.712	348.15
653.692	387.306
652.672	401.94
651.652	360.209
650.631	335.644
649.611	362.526
648.59	352.663
647.569	413.813
646.548	433.322
645.526	447.928
644.505	418.479
643.483	442.87
642.461	472.144
641.439	423.139
640.417	437.734
639.394	378.974
638.371	479.13
637.348	459.489
636.325	434.968
635.302	459.319
634.279	361.525
633.255	356.574
632.231	376.043
631.207	393.063
630.183	417.4
629.159	458.811
628.134	424.566
627.109	407.411
626.084	404.896
625.059	451.157
624.034	416.938
623.008	431.488
621.983	387.536
620.957	385.028
619.931	416.63
618.904	450.657
617.878	409.17
616.851	389.614
615.824	413.888
614.797	443.022
613.77	406.434
612.743	518.29
611.715	498.732
610.687	503.504
609.659	418.293
608.631	408.49
607.603	493.501
606.574	447.229
605.546	461.727
604.517	398.47
603.487	403.254
602.458	449.327
601.429	429.817
600.399	434.593
599.369	463.642
598.339	531.513
597.309	478.03
596.278	443.976
595.248	388.104
594.217	424.411
593.186	419.483
592.155	438.799
591.123	387.817
590.091	441.06
589.06	448.248
588.028	511.15
586.996	460.192
585.963	460.107
584.931	438.231
583.898	423.626
582.865	401.765
581.832	479.125
580.798	433.068
579.765	493.461
578.731	575.598
577.697	493.278
576.663	481.099
575.629	517.267
574.594	517.171
573.56	488.081
572.525	509.732
571.49	509.638
570.455	473.32
569.419	511.863
568.384	497.285
567.348	492.365
566.312	511.579
565.276	509.071
564.239	511.389
563.203	511.294
562.166	612.475
561.129	650.935
560.092	588.144
559.054	624.184
558.017	599.973
556.979	674.544
555.941	599.751
554.903	633.354
553.865	618.79
552.826	628.305
551.787	592.085
550.749	596.788
549.709	635.173
548.67	627.838
547.631	673.418
546.591	678.102
545.551	632.297
544.511	651.41
543.471	639.272
542.43	622.334
541.39	706.302
540.349	679.749
539.308	778.084
538.267	789.945
537.225	840.211
536.184	828.054
535.142	895.092
534.1	954.907
533.058	985.915
532.015	966.544
530.973	997.538
529.93	1004.54
528.887	1021.14
527.844	1025.74
526.801	1003.98
525.757	1003.8
524.713	996.426
523.669	1041.74
522.625	1036.76
521.581	1007.84
520.537	988.505
519.492	854.311
518.447	856.545
517.402	820.503
516.357	827.526
515.311	784.329
514.265	686.161
513.22	676.471
512.174	659.616
511.127	853.04
510.081	771.655
509.034	661.637
507.987	637.632
506.94	599.31
505.893	613.522
504.846	634.889
503.798	670.566
502.75	679.985
501.702	648.847
500.654	708.352
499.606	796.45
