3200.53	113.664
3199.94	117.874
3199.34	105.228
3198.75	84.17
3198.15	117.82
3197.56	58.9012
3196.96	109.371
3196.37	117.767
3195.78	79.9011
3195.18	105.117
3194.59	105.101
3193.99	113.492
3193.4	75.65
3192.8	109.256
3192.21	71.4256
3191.61	109.223
3191.02	84.0048
3190.42	67.1936
3189.83	75.5814
3189.23	104.958
3188.63	75.5586
3188.04	79.7442
3187.44	83.9286
3186.85	88.1116
3186.25	96.4886
3185.66	54.5288
3185.06	83.8778
3184.46	96.4448
3183.87	83.8524
3183.27	67.0718
3182.67	113.166
3182.08	88.005
3181.48	75.4215
3180.88	92.1679
3180.29	87.9651
3179.69	79.5754
3179.09	71.1883
3178.5	75.3644
3177.9	75.353
3177.3	71.156
3176.7	46.0351
3176.11	92.0563
3175.51	71.1236
3174.91	92.0284
3174.31	96.197
3173.72	87.8187
3173.12	71.0806
3172.52	33.4446
3171.92	100.319
3171.32	75.2276
3170.73	117.003
3170.13	66.8487
3169.53	100.258
3168.93	87.7123
3168.33	104.404
3167.73	87.6858
3167.13	104.372
3166.54	58.4395
3165.94	108.514
3165.34	79.2867
3164.74	116.826
3164.14	95.9495
3163.54	108.448
3162.94	75.0682
3162.34	95.9059
3161.74	58.3686
3161.14	70.8655
3160.54	108.366
3159.94	75.0113
3159.34	70.8332
3158.74	41.6603
3158.14	54.1502
3157.54	66.6363
3156.94	79.1186
3156.34	87.4336
3155.74	79.0946
3155.14	99.8938
3154.54	99.8786
3153.94	66.5756
3153.34	37.4431
3152.74	145.59
3152.13	124.773
3151.53	91.486
3150.93	112.261
3150.33	95.6154
3149.73	78.9747
3149.13	99.7423
3148.53	78.9507
3147.92	37.392
3147.32	83.0808
3146.72	124.602
3146.12	70.5972
3145.52	120.412
3144.91	83.0304
3144.31	91.3195
3143.71	78.8549
3143.11	87.1422
3142.5	95.4269
3141.9	74.6706
3141.3	91.2502
3140.7	107.825
3140.09	82.9296
3139.49	62.1877
3138.89	124.357
3138.28	41.4459
3137.68	95.3111
3137.08	107.727
3136.47	115.996
3135.87	45.5628
3135.27	78.6874
3134.66	99.3795
3134.06	99.3644
3133.45	107.628
3132.85	95.1953
3132.25	91.0426
3131.64	107.579
3131.04	111.7
3130.43	119.956
3129.83	136.481
3129.22	82.7031
3128.62	95.0941
3128.02	78.5441
3127.41	95.0652
3126.81	78.5202
3126.2	95.0363
3125.6	82.6277
3124.99	103.269
3124.38	66.0821
3123.78	86.7195
3123.17	115.608
3122.57	107.334
3121.96	41.2762
3121.36	90.7938
3120.75	90.78
3120.15	94.8919
3119.54	82.5022
3118.93	78.3651
3118.33	94.8486
3117.72	78.3413
3117.11	78.3294
3116.51	65.9515
3115.9	144.247
3115.29	86.5351
3114.69	111.242
3114.08	107.106
3113.47	115.327
3112.87	74.1278
3112.26	53.5286
3111.65	90.573
3111.04	90.5593
3110.44	148.165
3109.83	69.9563
3109.22	115.205
3108.61	111.073
3108.01	115.17
3107.4	86.364
3106.79	65.7911
3106.18	82.2264
3105.57	94.546
3104.97	90.4215
3104.36	53.4228
3103.75	98.6116
3103.14	69.8392
3102.53	94.474
3101.92	127.315
3101.31	131.402
3100.71	119.065
3100.1	82.1013
3099.49	119.029
3098.88	94.3877
3098.27	69.7542
3097.66	82.0513
3097.05	77.9368
3096.44	82.0263
3095.83	77.9131
3095.22	73.8011
3094.61	114.784
3094	81.9763
3093.39	98.3565
3092.78	135.22
3092.17	94.2296
3091.56	90.1189
3090.95	106.488
3090.34	90.0915
3089.73	73.7
3089.12	73.6887
3088.51	90.0503
3087.9	126.87
3087.29	65.4711
3086.68	90.0091
3086.06	122.721
3085.45	94.0717
3084.84	102.236
3084.23	94.043
3083.62	102.205
3083.01	106.277
3082.4	65.3913
3081.78	69.4677
3081.17	118.486
3080.56	69.4465
3079.95	142.956
3079.34	73.5091
3078.72	81.6643
3078.11	151.056
3077.5	89.8033
3076.89	130.603
3076.27	85.6952
3075.66	130.563
3075.05	81.5896
3074.43	114.208
3073.82	89.7211
3073.21	122.328
3072.6	142.695
3071.98	93.7564
3071.37	122.272
3070.76	126.329
3070.14	97.788
3069.53	81.4776
3068.91	85.5384
3068.3	89.5979
3067.69	73.2962
3067.07	81.4278
3066.46	93.6277
3065.84	93.6134
3065.23	89.5295
3064.62	93.5848
3064	109.844
3063.39	122.03
3062.77	122.011
3062.16	101.66
3061.54	93.5133
3060.93	85.3687
3060.31	105.678
3059.7	93.4704
3059.08	146.279
3058.47	101.567
3057.85	125.924
3057.24	117.782
3056.62	89.3382
3056	93.3848
3055.39	125.847
3054.77	73.0614
3054.16	93.3419
3053.54	101.443
3052.92	129.827
3052.31	133.864
3051.69	141.955
3051.07	125.713
3050.46	105.42
3049.84	129.728
3049.22	129.708
3048.61	137.794
3047.99	117.512
3047.37	149.906
3046.76	133.68
3046.14	133.659
3045.52	113.391
3044.9	133.619
3044.29	141.695
3043.67	121.434
3043.05	97.1325
3042.43	133.537
3041.82	93.0568
3041.2	101.133
3040.58	93.0283
3039.96	121.323
3039.34	133.435
3038.72	153.628
3038.11	109.14
3037.49	169.748
3036.87	157.599
3036.25	109.09
3035.63	145.431
3035.01	76.7437
3034.39	141.348
3033.77	137.289
3033.16	121.119
3032.54	141.283
3031.92	133.19
3031.3	145.276
3030.68	92.8007
3030.06	112.957
3029.44	121.007
3028.82	108.89
3028.2	137.1
3027.58	161.269
3026.96	157.213
3026.34	120.915
3025.72	157.165
3025.1	145.053
3024.48	185.317
3023.86	173.205
3023.23	161.096
3022.61	165.098
3021.99	161.047
3021.37	173.099
3020.75	169.047
3020.13	108.657
3019.51	140.829
3018.89	84.4847
3018.27	164.921
3017.64	120.655
3017.02	148.786
3016.4	140.722
3015.78	180.9
3015.16	120.582
3014.53	221.032
3013.91	140.635
3013.29	180.789
3012.67	232.981
3012.04	180.734
3011.42	188.737
3010.8	176.663
3010.18	192.694
3009.55	228.789
3008.93	176.582
3008.31	192.605
3007.69	224.672
3007.06	176.501
3006.44	184.495
3005.82	240.609
3005.19	204.486
3004.57	260.579
3003.94	192.398
3003.32	224.43
3002.7	200.353
3002.07	232.374
3001.45	244.356
3000.82	208.272
3000.2	204.235
2999.58	184.184
2998.95	200.169
2998.33	236.163
2997.7	196.105
2997.08	276.106
2996.45	224.052
2995.83	252.019
2995.2	251.981
2994.58	267.938
2993.95	295.886
2993.33	203.89
2992.7	287.801
2992.08	247.79
2991.45	295.704
2990.82	323.627
2990.2	287.624
2989.57	335.51
2988.95	335.458
2988.32	371.343
2987.69	347.332
2987.07	335.304
2986.44	371.172
2985.82	351.162
2985.19	387.017
2984.56	367.012
2983.94	406.842
2983.31	354.935
2982.68	402.729
2982.05	466.456
2981.43	466.384
2980.8	454.356
2980.17	530
2979.54	521.95
2978.92	525.854
2978.29	617.385
2977.66	541.622
2977.03	641.086
2976.41	656.913
2975.78	744.386
2975.15	768.152
2974.52	752.116
2973.89	807.704
2973.27	863.275
2972.64	851.21
2972.01	906.757
2971.38	1029.89
2970.75	1045.63
2970.12	1144.85
2969.49	1248.01
2968.86	1331.27
2968.23	1374.77
2967.6	1442.1
2966.98	1473.65
2966.35	1640.23
2965.72	1616.15
2965.09	1639.72
2964.46	1806.2
2963.83	1924.99
2963.2	1956.44
2962.57	2130.72
2961.94	2197.84
2961.31	2229.23
2960.68	2280.45
2960.05	2343.54
2959.42	2414.55
2958.78	2481.57
2958.15	2524.78
2957.52	2623.47
2956.89	2595.33
2956.26	2594.93
2955.63	2527.19
2955	2518.88
2954.37	2629.37
2953.74	2727.95
2953.1	2739.4
2952.47	2889.38
2951.84	2916.64
2951.21	3003.24
2950.58	2975.09
2949.95	3045.83
2949.31	3088.86
2948.68	2949.98
2948.05	2969.3
2947.42	2858.15
2946.78	2699.61
2946.15	2620.15
2945.52	2410.33
2944.89	2342.79
2944.25	2184.43
2943.62	2002.41
2942.99	1919.17
2942.35	1895.19
2941.72	1804.1
2941.09	1728.83
2940.45	1574.65
2939.82	1629.65
2939.19	1582.05
2938.55	1589.7
2937.92	1719.6
2937.28	1648.36
2936.65	1762.45
2936.02	1699.1
2935.38	1761.9
2934.75	1907.45
2934.11	1867.75
2933.48	2107.79
2932.84	1957.77
2932.21	2185.91
2931.57	2370.65
2930.94	2307.29
2930.3	2527.39
2929.67	2723.81
2929.03	2750.94
2928.4	2742.64
2927.76	2915.33
2927.13	2981.75
2926.49	3205.48
2925.86	3275.77
2925.22	3255.6
2924.58	3392.7
2923.95	3439.34
2923.31	3485.97
2922.68	3579.74
2922.04	3622.4
2921.4	3633.63
2920.77	3530.95
2920.13	3648.21
2919.49	3506.3
2918.86	3611.75
2918.22	3528.77
2917.58	3488.97
2916.95	3539.45
2916.31	3460.43
2915.67	3561.89
2915.03	3455.44
2914.4	3486.28
2913.76	3505.34
2913.12	3489.12
2912.48	3531.7
2911.85	3601.7
2911.21	3667.76
2910.57	3577.08
2909.93	3776.31
2909.29	3963.73
2908.65	3967.03
2908.02	4154.36
2907.38	4275.08
2906.74	4454.48
2906.1	4774.71
2905.46	4801.36
2904.82	4902.35
2904.18	5069.8
2903.54	5315.42
2902.9	5224.66
2902.27	5450.63
2901.63	5473.25
2900.99	5206.6
2900.35	5358.21
2899.71	5185.45
2899.07	5309.67
2898.43	5133.06
2897.79	4909.63
2897.15	4967.45
2896.51	4990.11
2895.87	4977.62
2895.23	4969.05
2894.59	4901.93
2893.94	4944.09
2893.3	4958.94
2892.66	5145.42
2892.02	5246.03
2891.38	5112.62
2890.74	5466.66
2890.1	5543.78
2889.46	5503.94
2888.82	5822.68
2888.17	5903.61
2887.53	6210.49
2886.89	6151.09
2886.25	6356.57
2885.61	6417.9
2884.96	6740.09
2884.32	6941.49
2883.68	6823.63
2883.04	7258.47
2882.4	7128.94
2881.75	7302.91
2881.11	7379.58
2880.47	7366.77
2879.82	7396.74
2879.18	7166.18
2878.54	7176.74
2877.9	7004.59
2877.25	6937.43
2876.61	6598.28
2875.97	6445.73
2875.32	6425.31
2874.68	6078.63
2874.03	6031.08
2873.39	5944.72
2872.75	5559.45
2872.1	5473.2
2871.46	5724.62
2870.81	5479.26
2870.17	5334.85
2869.53	5438.77
2868.88	5496.1
2868.24	5355.64
2867.59	5599.09
2866.95	5675.76
2866.3	5826.05
2865.66	5894.91
2865.01	5766.12
2864.37	5803.97
2863.72	5520.27
2863.08	5469.06
2862.43	5212.62
2861.78	4735.55
2861.14	4413.48
2860.49	4242.47
2859.85	3607.09
2859.2	3413.05
2858.55	3122.34
2857.91	2978.72
2857.26	2738.45
2856.62	2548.53
2855.97	2447.6
2855.32	2238.45
2854.68	2098.95
2854.03	2253.22
2853.38	2082.84
2852.73	2070.92
2852.09	2128.55
2851.44	2081.87
2850.79	2185.81
2850.15	2231.81
2849.5	2219.88
2848.85	2319.9
2848.2	2516.37
2847.55	2570
2846.91	2527.16
2846.26	2700.37
2845.61	2811.8
2844.96	2942.48
2844.31	3161.81
2843.67	3300.11
2843.02	3368.98
2842.37	3565.01
2841.72	3687.77
2841.07	3922.22
2840.42	3875.38
2839.77	4286.91
2839.12	4055.18
2838.47	4193.17
2837.82	4354.21
2837.18	4338.13
2836.53	4225.85
2835.88	4232.89
2835.23	4101.41
2834.58	3819.95
2833.93	3634.74
2833.28	3299.6
2832.63	2910.73
2831.98	2671.92
2831.33	2321.71
2830.67	2202.21
2830.02	2094.27
2829.37	1848.05
2828.72	1590.38
2828.07	1444.18
2827.42	1374.83
2826.77	1217.19
2826.12	1186.28
2825.47	1040.24
2824.82	982.506
2824.16	917.118
2823.51	813.384
2822.86	843.946
2822.21	786.282
2821.56	782.325
2820.91	655.67
2820.25	682.404
2819.6	674.632
2818.95	620.871
2818.3	643.766
2817.64	636.003
2816.99	540.135
2816.34	566.862
2815.69	509.331
2815.03	582.001
2814.38	543.627
2813.73	547.37
2813.07	528.149
2812.42	493.628
2811.77	512.68
2811.11	489.648
2810.46	447.499
2809.81	485.672
2809.15	481.772
2808.5	496.989
2807.84	462.51
2807.19	443.329
2806.54	431.796
2805.88	416.446
2805.23	378.181
2804.57	359.025
2803.92	393.339
2803.26	374.186
2802.61	423.757
2801.95	343.533
2801.3	381.644
2800.64	347.242
2799.99	343.373
2799.33	312.802
2798.68	350.894
2798.02	392.787
2797.37	331.72
2796.71	343.105
2796.05	312.558
2795.4	331.564
2794.74	342.944
2794.09	312.411
2793.43	449.498
2792.77	358.018
2792.12	338.922
2791.46	319.832
2790.8	395.92
2790.15	342.57
2789.49	323.488
2788.83	315.827
2788.18	281.536
2787.52	311.924
2786.86	323.286
2786.2	304.221
2785.55	247.141
2784.89	323.134
2784.23	281.273
2783.57	296.43
2782.91	311.583
2782.26	303.936
2781.6	265.903
2780.94	300.043
2780.28	307.591
2779.62	280.965
2778.97	299.903
2778.31	284.673
2777.65	280.834
2776.99	254.229
2776.33	261.777
2775.67	337.601
2775.01	295.829
2774.35	322.327
2773.69	295.736
2773.03	299.481
2772.37	272.902
2771.71	322.126
2771.05	257.66
2770.39	268.986
2769.73	348.49
2769.07	291.626
2768.41	280.22
2767.75	283.962
2767.09	261.204
2766.43	363.358
2765.77	276.26
2765.11	344.325
2764.45	351.838
2763.79	249.652
2763.13	298.779
2762.47	359.235
2761.81	279.782
2761.15	317.54
2760.48	366.626
2759.82	389.243
2759.16	336.284
2758.5	377.788
2757.84	389.06
2757.18	385.223
2756.51	358.73
2755.85	366.225
2755.19	441.666
2754.53	426.499
2753.86	433.98
2753.2	403.727
2752.54	418.754
2751.88	437.548
2751.21	384.68
2750.55	384.62
2749.89	444.883
2749.22	463.661
2748.56	467.358
2747.9	508.737
2747.23	418.229
2746.57	485.974
2745.91	489.665
2745.24	497.12
2744.58	463.153
2743.91	538.378
2743.25	527.001
2742.59	485.518
2741.92	492.968
2741.26	489.128
2740.59	511.623
2739.93	545.395
2739.26	594.199
2738.6	560.265
2737.93	609.051
2737.27	642.787
2736.6	590.068
2735.94	608.765
2735.27	642.484
2734.61	619.844
2733.94	702.379
2733.28	675.981
2732.61	687.14
2731.94	660.752
2731.28	735.722
2730.61	698.076
2729.95	727.986
2729.28	832.926
2728.61	727.758
2727.95	798.908
2727.28	832.534
2726.61	873.648
2725.95	888.507
2725.28	899.613
2724.61	1019.4
2723.94	936.803
2723.28	1007.84
2722.61	1086.35
2721.94	1108.65
2721.28	1217.08
2720.61	1130.77
2719.94	1197.98
2719.27	1179.08
2718.6	1175.15
2717.94	1145.03
2717.27	1088.73
2716.6	1010
2715.93	912.599
2715.26	901.237
2714.59	904.834
2713.92	766.371
2713.26	885.861
2712.59	829.663
2711.92	848.216
2711.25	777.098
2710.58	803.124
2709.91	881.43
2709.24	765.529
2708.57	769.142
2707.9	761.555
2707.23	731.575
2706.56	776.244
2705.89	768.659
2705.22	697.654
2704.55	712.465
2703.88	760.837
2703.21	652.577
2702.54	697.215
2701.87	577.815
2701.2	540.451
2700.53	588.813
2699.86	573.816
2699.19	566.275
2698.51	566.186
2697.84	528.854
2697.17	562.284
2696.5	484.009
2695.83	487.656
2695.16	431.75
2694.49	416.796
2693.81	491.147
2693.14	461.308
2692.47	509.59
2691.8	461.162
2691.13	416.468
2690.45	483.325
2689.78	449.793
2689.11	442.289
2688.43	431.071
2687.76	438.434
2687.09	423.505
2686.42	416.01
2685.74	438.227
2685.07	423.305
2684.4	412.101
2683.72	438.02
2683.05	385.991
2682.38	441.593
2681.7	426.682
2681.03	430.325
2680.35	426.548
2679.68	441.315
2679.01	433.829
2678.33	433.761
2677.66	400.332
2676.98	437.331
2676.31	478.024
2675.63	385.323
2674.96	463.055
2674.28	492.613
2673.61	433.283
2672.93	403.593
2672.26	403.53
2671.58	444.183
2670.91	436.711
2670.23	484.747
2669.55	429.174
2668.88	458.7
2668.2	447.532
2667.53	395.689
2666.85	458.483
2666.17	399.261
2665.5	406.59
2664.82	428.7
2664.15	417.547
2663.47	454.427
2662.79	472.825
2662.11	461.67
2661.44	472.676
2660.76	516.908
2660.08	465.144
2659.41	472.452
2658.73	516.663
2658.05	468.613
2657.37	501.743
2656.7	483.22
2656.02	483.144
2655.34	556.819
2654.66	497.739
2653.98	457.111
2653.31	501.268
2652.63	515.93
2651.95	497.425
2651.27	475.242
2650.59	482.534
2649.91	534.019
2649.23	427.147
2648.55	504.396
2647.88	496.954
2647.2	482.154
2646.52	529.917
2645.84	529.834
2645.16	437.779
2644.48	500.24
2643.8	415.575
2643.12	437.572
2642.44	466.915
2641.76	430.082
2641.08	407.962
2640.4	426.271
2639.72	422.53
2639.04	411.442
2638.36	334.244
2637.68	392.95
2636.99	429.607
2636.31	334.086
2635.63	352.386
2634.95	322.97
2634.27	333.927
2633.59	333.874
2632.91	352.164
2632.23	348.44
2631.54	341.051
2630.86	337.33
2630.18	315.28
2629.5	333.558
2628.82	333.505
2628.13	377.424
2627.45	351.718
2626.77	296.715
2626.09	325.969
2625.4	318.594
2624.72	358.819
2624.04	307.51
2623.36	333.083
2622.67	322.052
2621.99	307.364
2621.31	321.95
2620.62	288.977
2619.94	281.617
2619.25	288.886
2618.57	365.62
2617.89	288.794
2617.2	339.919
2616.52	361.792
2615.83	321.542
2615.15	361.678
2614.47	314.135
2613.78	328.694
2613.1	346.9
2612.41	328.59
2611.73	335.839
2611.04	335.786
2610.36	379.524
2609.67	328.382
2608.99	346.57
2608.3	328.278
2607.62	357.401
2606.93	342.759
2606.24	280.726
2605.56	357.232
2604.87	357.175
2604.19	313.39
2603.5	324.27
2602.81	382.506
2602.13	346.022
2601.44	316.833
2600.75	342.271
2600.07	338.576
2599.38	291.202
2598.69	374.863
2598.01	323.86
2597.32	349.276
2596.63	392.874
2595.95	305.52
2595.26	330.927
2594.57	341.783
2593.88	334.458
2593.2	370.753
2592.51	337.986
2591.82	374.269
2591.13	319.713
2590.44	366.886
2589.75	312.348
2589.07	344.981
2588.38	355.819
2587.69	337.611
2587	326.668
2586.31	330.246
2585.62	370.107
2584.93	304.745
2584.24	326.461
2583.55	348.17
2582.87	326.358
2582.18	333.557
2581.49	344.379
2580.8	318.953
2580.11	304.407
2579.42	322.475
2578.73	355.029
2578.04	340.484
2577.35	344.051
2576.66	296.923
2575.96	325.84
2575.27	329.408
2574.58	296.782
2573.89	289.497
2573.2	325.633
2572.51	285.788
2571.82	314.679
2571.13	282.081
2570.44	289.268
2569.75	321.759
2569.05	321.708
2568.36	321.657
2567.67	310.765
2566.98	317.942
2566.29	314.279
2565.59	292.558
2564.9	303.345
2564.21	259.969
2563.52	306.859
2562.82	252.667
2562.13	295.934
2561.44	256.195
2560.75	252.547
2560.05	259.721
2559.36	248.86
2558.67	223.577
2557.97	310.074
2557.28	299.21
2556.59	230.68
2555.89	288.304
2555.2	266.638
2554.5	281.007
2553.81	270.156
2553.12	270.113
2552.42	280.873
2551.73	284.428
2551.03	295.182
2550.34	266.342
2549.64	341.871
2548.95	309.434
2548.25	305.787
2547.56	244.591
2546.86	251.744
2546.17	327.216
2545.47	258.855
2544.78	255.219
2544.08	262.366
2543.39	283.885
2542.69	301.805
2541.99	280.203
2541.3	240.649
2540.6	251.384
2539.91	290.841
2539.21	301.565
2538.51	279.98
2537.82	244.046
2537.12	258.36
2536.42	308.548
2535.73	269.04
2535.03	294.103
2534.33	243.852
2533.63	301.181
2532.94	279.623
2532.24	308.253
2531.54	265.199
2530.84	257.99
2530.15	243.619
2529.45	232.834
2528.75	272.193
2528.05	297.216
2527.35	282.847
2526.66	329.339
2525.96	311.391
2525.26	264.819
2524.56	264.776
2523.86	289.777
2523.16	282.577
2522.46	296.837
2521.76	278.911
2521.07	278.866
2520.37	243.075
2519.67	289.5
2518.97	275.159
2518.27	296.553
2517.57	264.354
2516.87	232.166
2516.17	285.697
2515.47	260.657
2514.77	289.176
2514.07	306.978
2513.37	296.222
2512.67	260.491
2511.96	249.746
2511.26	274.677
2510.56	299.6
2509.86	299.552
2509.16	288.807
2508.46	274.501
2507.76	235.249
2507.06	270.85
2506.35	274.37
2505.65	317.078
2504.95	274.282
2504.25	259.992
2503.55	202.975
2502.85	238.547
2502.14	284.787
2501.44	334.571
2500.74	238.433
2500.04	266.86
2499.33	192.108
2498.63	270.331
2497.93	227.611
2497.22	224.019
2496.52	223.983
2495.82	216.838
2495.11	238.128
2494.41	223.876
2493.71	319.771
2493	223.804
2492.3	230.872
2491.6	277.002
2490.89	266.306
2490.19	237.862
2489.48	244.923
2488.78	273.276
2488.07	269.684
2487.37	276.737
2486.66	227.03
2485.96	297.929
2485.25	255.327
2484.55	273.014
2483.84	237.52
2483.14	230.393
2482.43	297.691
2481.73	209.059
2481.02	230.282
2480.32	230.245
2479.61	247.917
2478.9	283.288
2478.2	233.675
2477.49	276.117
2476.79	261.916
2476.08	300.801
2475.37	279.523
2474.67	300.705
2473.96	254.674
2473.25	261.706
2472.55	275.808
2471.84	187.378
2471.13	254.511
2470.42	243.867
2469.72	240.294
2469.01	264.988
2468.3	268.478
2467.59	250.775
2466.89	229.546
2466.18	271.88
2465.47	293.019
2464.76	225.906
2464.05	303.512
2463.34	264.649
2462.64	306.943
2461.93	257.509
2461.22	243.36
2460.51	285.637
2459.8	239.756
2459.09	278.495
2458.38	236.154
2457.67	303.075
2456.96	317.12
2456.25	331.162
2455.54	288.839
2454.83	299.359
2454.12	246.491
2453.41	320.387
2452.7	313.295
2451.99	299.167
2451.28	320.233
2450.57	306.108
2449.86	281.433
2449.15	298.975
2448.44	295.41
2447.73	284.814
2447.02	323.441
2446.31	284.723
2445.59	291.706
2444.88	281.117
2444.17	288.099
2443.46	281.027
2442.75	309.08
2442.04	284.449
2441.32	287.914
2440.61	270.315
2439.9	291.332
2439.19	284.266
2438.48	319.309
2437.76	294.7
2437.05	312.191
2436.34	256.026
2435.62	273.518
2434.91	294.511
2434.2	276.936
2433.48	290.911
2432.77	315.395
2432.06	360.894
2431.34	290.771
2430.63	276.713
2429.92	227.639
2429.2	245.11
2428.49	304.588
2427.77	280.036
2427.06	283.491
2426.35	311.44
2425.63	283.4
2424.92	300.845
2424.2	248.332
2423.49	293.754
2422.77	293.707
2422.06	293.66
2421.34	248.173
2420.63	328.514
2419.91	335.45
2419.2	289.978
2418.48	359.794
2417.76	314.332
2417.05	331.742
2416.33	275.825
2415.62	258.326
2414.9	296.679
2414.18	314.08
2413.47	307.051
2412.75	310.49
2412.03	310.44
2411.32	306.903
2410.6	303.366
2409.88	282.399
2409.16	313.726
2408.45	282.308
2407.73	282.263
2407.01	348.416
2406.3	264.754
2405.58	320.44
2404.86	309.941
2404.14	316.855
2403.42	278.509
2402.71	323.714
2401.99	323.662
2401.27	313.171
2400.55	292.246
2399.83	330.463
2399.11	316.498
2398.39	278.195
2397.67	281.627
2396.96	239.866
2396.24	298.915
2395.52	288.441
2394.8	333.565
2394.08	319.615
2393.36	305.67
2392.64	298.675
2391.92	295.154
2391.2	302.05
2390.48	270.76
2389.76	347.072
2389.04	267.202
2388.32	312.264
2387.6	287.931
2386.87	274.01
2386.15	329.453
2385.43	332.867
2384.71	294.679
2383.99	311.962
2383.27	273.789
2382.55	322.257
2381.83	291.024
2381.1	308.297
2380.38	301.321
2379.66	315.124
2378.94	318.535
2378.22	325.407
2377.49	276.898
2376.77	266.471
2376.05	297.569
2375.33	280.223
2374.6	328.604
2373.88	266.299
2373.16	280.088
2372.43	280.042
2371.71	318.021
2370.99	311.058
2370.26	259.173
2369.54	297.137
2368.82	324.725
2368.09	300.495
2367.37	321.167
2366.65	296.945
2365.92	307.254
2365.2	286.494
2364.47	293.35
2363.75	358.865
2363.02	293.255
2362.3	289.759
2361.57	289.712
2360.85	341.391
2360.12	351.679
2359.4	265.44
2358.67	320.545
2357.95	279.139
2357.22	323.887
2356.5	265.269
2355.77	279.004
2355.05	358.17
2354.32	320.235
2353.59	296.083
2352.87	333.9
2352.14	320.079
2351.41	299.381
2350.69	337.179
2349.96	337.124
2349.23	309.554
2348.51	340.454
2347.78	378.221
2347.05	378.16
2346.33	343.726
2345.6	353.981
2344.87	322.998
2344.14	336.688
2343.41	340.069
2342.69	350.317
2341.96	326.223
2341.23	374.238
2340.5	326.118
2339.77	394.71
2339.05	356.898
2338.32	343.115
2337.59	308.754
2336.86	349.864
2336.13	342.949
2335.4	356.609
2334.67	353.123
2333.94	455.9
2333.21	400.99
2332.48	445.473
2331.75	376.877
2331.02	390.519
2330.29	380.18
2329.56	356.147
2328.83	376.633
2328.1	376.572
2327.37	332.014
2326.64	407.251
2325.91	369.546
2325.18	369.486
2324.45	369.426
2323.72	359.106
2322.99	396.663
2322.26	393.179
2321.53	376.024
2320.79	369.127
2320.06	362.233
2319.33	351.924
2318.6	334.786
2317.87	355.225
2317.14	402.979
2316.4	334.623
2315.67	327.741
2314.94	372.062
2314.21	402.717
2313.47	392.415
2312.74	416.234
2312.01	378.643
2311.27	306.958
2310.54	364.88
2309.81	300.04
2309.08	303.4
2308.34	381.745
2307.61	354.42
2306.87	385.028
2306.14	350.898
2305.41	357.654
2304.67	364.407
2303.94	364.348
2303.2	398.334
2302.47	401.674
2301.74	360.767
2301	367.514
2300.27	360.65
2299.53	319.77
2298.8	374.138
2298.06	340.07
2297.33	384.217
2296.59	394.353
2295.85	333.106
2295.12	356.842
2294.38	336.396
2293.65	370.315
2292.91	373.652
2292.18	387.177
2291.44	363.344
2290.7	346.309
2289.97	308.911
2289.23	386.925
2288.49	380.075
2287.76	335.905
2287.02	379.952
2286.28	356.147
2285.54	359.48
2284.81	298.388
2284.07	339.022
2283.33	379.643
2282.59	335.523
2281.86	362.577
2281.12	379.458
2280.38	281.16
2279.64	362.4
2278.9	382.659
2278.17	311.495
2277.43	368.994
2276.69	368.934
2275.95	399.331
2275.21	351.896
2274.47	301.093
2273.73	365.311
2272.99	355.106
2272.26	348.285
2271.52	344.848
2270.78	327.89
2270.04	385.293
2269.3	405.506
2268.56	361.517
2267.82	374.971
2267.08	388.42
2266.34	418.75
2265.6	388.293
2264.86	371.351
2264.11	388.167
2263.37	371.23
2262.63	388.041
2261.89	408.22
2261.15	350.809
2260.41	374.361
2259.67	333.835
2258.93	384.353
2258.18	370.807
2257.44	444.896
2256.7	390.905
2255.96	417.796
2255.22	326.771
2254.47	383.978
2253.73	431.063
2252.99	404.056
2252.25	377.057
2251.5	380.362
2250.76	373.569
2250.02	376.873
2249.28	383.54
2248.53	370.022
2247.79	369.962
2247.05	386.715
2246.3	363.117
2245.56	383.228
2244.81	349.554
2244.07	376.382
2243.33	386.4
2242.58	379.618
2241.84	433.299
2241.09	369.42
2240.35	423.084
2239.6	396.157
2238.86	362.525
2238.12	389.316
2237.37	369.118
2236.63	372.413
2235.88	392.48
2235.13	415.894
2234.39	365.524
2233.64	398.993
2232.9	385.519
2232.15	405.567
2231.41	395.447
2230.66	375.278
2229.91	385.267
2229.17	381.855
2228.42	375.094
2227.67	391.776
2226.93	354.884
2226.18	415.08
2225.43	418.359
2224.69	351.364
2223.94	371.381
2223.19	391.392
2222.44	377.949
2221.7	334.414
2220.95	377.826
2220.2	347.677
2219.45	320.88
2218.71	324.17
2217.96	327.458
2217.21	354.131
2216.46	390.817
2215.71	347.336
2214.96	333.923
2214.21	347.223
2213.47	320.461
2212.72	350.447
2211.97	383.76
2211.22	350.332
2210.47	343.603
2209.72	343.547
2208.97	326.816
2208.22	290.086
2207.47	353.38
2206.72	333.323
2205.97	393.256
2205.22	343.21
2204.47	393.128
2203.72	323.112
2202.97	369.686
2202.22	313.016
2201.47	352.918
2200.71	366.175
2199.96	362.787
2199.21	356.072
2198.46	382.632
2197.71	415.836
2196.96	355.898
2196.21	379.119
2195.45	365.756
2194.7	392.293
2193.95	385.58
2193.2	312.402
2192.45	342.257
2191.69	348.845
2190.94	358.754
2190.19	371.98
2189.44	385.202
2188.68	375.178
2187.93	328.642
2187.18	305.355
2186.42	371.675
2185.67	345.071
2184.92	364.919
2184.16	354.908
2183.41	311.738
2182.65	358.108
2181.9	351.419
2181.15	367.935
2180.39	364.56
2179.64	397.637
2178.88	357.815
2178.13	380.944
2177.37	334.513
2176.62	380.819
2175.86	367.513
2175.11	387.315
2174.35	334.294
2173.6	387.188
2172.84	383.816
2172.09	420.143
2171.33	370.459
2170.57	343.941
2169.82	340.578
2169.06	357.053
2168.31	343.772
2167.55	350.326
2166.79	333.746
2166.04	360.123
2165.28	386.49
2164.52	340.188
2163.76	343.434
2163.01	353.283
2162.25	379.634
2161.49	429.081
2160.74	333.308
2159.98	425.641
2159.22	392.581
2158.46	392.517
2157.7	346.281
2156.95	382.496
2156.19	365.949
2155.43	402.148
2154.67	369.124
2153.91	365.769
2153.15	375.592
2152.39	385.413
2151.63	372.176
2150.88	401.752
2150.12	378.638
2149.36	371.992
2148.6	335.725
2147.84	375.161
2147.08	355.357
2146.32	384.907
2145.56	401.29
2144.8	378.203
2144.04	355.124
2143.28	450.407
2142.52	430.61
2141.76	354.949
2140.99	341.746
2140.23	384.401
2139.47	341.634
2138.71	407.266
2137.95	400.631
2137.19	443.248
2136.43	387.368
2135.67	393.869
2134.9	439.748
2134.14	452.8
2133.38	413.358
2132.62	364.089
2131.86	393.545
2131.09	426.271
2130.33	413.087
2129.57	399.907
2128.81	435.892
2128.04	353.9
2127.28	386.604
2126.52	432.402
2125.75	383.202
2124.99	415.886
2124.23	399.447
2123.46	373.192
2122.7	418.954
2121.93	418.885
2121.17	405.728
2120.41	405.661
2119.64	382.698
2118.88	412.068
2118.11	421.81
2117.35	346.546
2116.58	424.94
2115.82	375.846
2115.05	411.729
2114.29	424.73
2113.52	414.86
2112.76	378.865
2111.99	385.333
2111.23	404.86
2110.46	463.553
2109.69	388.407
2108.93	404.66
2108.16	394.805
2107.4	375.166
2106.63	375.104
2105.86	443.528
2105.1	417.369
2104.33	423.821
2103.56	456.347
2102.79	430.199
2102.03	449.68
2101.26	387.703
2100.49	420.214
2099.73	361.52
2098.96	426.588
2098.19	367.912
2097.42	419.937
2096.65	403.594
2095.89	416.544
2095.12	364.416
2094.35	396.888
2093.58	351.285
2092.81	413.017
2092.04	442.213
2091.27	429.136
2090.5	416.063
2089.74	396.495
2088.97	419.176
2088.2	406.111
2087.43	445.024
2086.66	418.968
2085.89	373.437
2085.12	428.57
2084.35	451.223
2083.58	460.885
2082.81	425.113
2082.04	415.309
2081.27	463.901
2080.49	431.389
2079.72	385.916
2078.95	382.61
2078.18	414.966
2077.41	489.449
2076.64	392.143
2075.87	434.202
2075.1	424.411
2074.32	430.819
2073.55	459.896
2072.78	385.343
2072.01	453.269
2071.24	430.535
2070.46	459.593
2069.69	430.392
2068.92	407.673
2068.14	443.19
2067.37	420.476
2066.6	504.487
2065.83	472.07
2065.05	423.5
2064.28	471.914
2063.51	458.909
2062.73	397.44
2061.96	403.836
2061.18	400.539
2060.41	416.621
2059.64	445.613
2058.86	435.854
2058.09	432.554
2057.31	451.847
2056.54	451.773
2055.76	454.924
2054.99	441.945
2054.21	432.196
2053.44	515.97
2052.66	419.156
2051.89	412.639
2051.11	419.017
2050.33	454.397
2049.56	434.989
2048.78	451.025
2048.01	463.835
2047.23	473.42
2046.45	460.461
2045.68	457.166
2044.9	437.776
2044.12	389.428
2043.35	463.374
2042.57	443.994
2041.79	456.787
2041.02	440.63
2040.24	472.715
2039.46	450.13
2038.68	424.338
2037.91	427.482
2037.13	491.683
2036.35	424.127
2035.57	533.283
2034.79	446.47
2034.01	475.3
2033.24	504.12
2032.46	500.826
2031.68	455.804
2030.9	462.147
2030.12	494.159
2029.34	494.077
2028.56	551.735
2027.78	455.426
2027	484.211
2026.22	439.245
2025.44	471.228
2024.66	439.099
2023.88	490.299
2023.1	438.953
2022.32	458.101
2021.54	461.228
2020.76	486.771
2019.98	441.864
2019.2	505.818
2018.42	451.32
2017.64	444.844
2016.86	435.171
2016.07	419.103
2015.29	467.014
2014.51	460.54
2013.73	514.824
2012.95	469.978
2012.16	498.67
2011.38	473.019
2010.6	524.069
2009.82	527.177
2009.04	517.506
2008.25	485.48
2007.47	526.914
2006.69	453.39
2005.9	501.2
2005.12	494.733
2004.34	475.503
2003.55	507.332
2002.77	497.677
2001.99	468.887
2001.2	529.403
2000.42	542.07
1999.63	526.039
1998.85	468.575
1998.07	478.058
1997.28	544.896
1996.5	541.62
1995.71	579.755
1994.93	515.96
1994.14	506.321
1993.36	496.685
1992.57	560.27
1991.79	483.789
1991	531.443
1990.21	566.354
1989.43	515.36
1988.64	537.539
1987.86	508.828
1987.07	527.821
1986.28	518.196
1985.5	495.86
1984.71	549.804
1983.92	552.89
1983.14	521.028
1982.35	501.883
1981.56	489.095
1980.77	530.294
1979.99	530.206
1979.2	571.384
1978.41	549.072
1977.62	545.808
1976.84	542.544
1976.05	548.798
1975.26	526.505
1974.47	545.444
1973.68	602.425
1972.89	554.773
1972.11	535.663
1971.32	545.081
1970.53	608.361
1969.74	573.412
1968.95	592.321
1968.16	547.885
1967.37	538.294
1966.58	535.039
1965.79	534.95
1965	613.982
1964.21	563.25
1963.42	594.794
1962.63	569.389
1961.84	604.084
1961.05	537.577
1960.26	603.883
1959.47	569.009
1958.68	572.075
1957.89	553.019
1957.09	625.597
1956.3	508.608
1955.51	552.743
1954.72	596.862
1953.93	622.023
1953.14	602.977
1952.34	587.094
1951.55	549.126
1950.76	608.986
1949.97	659.362
1949.18	627.709
1948.38	573.99
1947.59	643.266
1946.8	617.937
1946	589.463
1945.21	639.792
1944.42	579.813
1943.62	630.127
1942.83	639.472
1942.04	598.42
1941.24	557.383
1940.45	623.409
1939.65	651.637
1938.86	654.675
1938.07	654.566
1937.27	604.114
1936.48	676.369
1935.68	607.058
1934.89	654.129
1934.09	647.731
1933.3	650.767
1932.5	663.231
1931.71	732.261
1930.91	650.44
1930.11	596.923
1929.32	584.258
1928.52	665.818
1927.73	609.184
1926.93	684.433
1926.13	649.788
1925.34	712.451
1924.54	724.884
1923.74	718.488
1922.95	661.902
1922.15	664.928
1921.35	664.817
1920.55	658.435
1919.76	736.696
1918.96	620.602
1918.16	730.182
1917.36	679.927
1916.57	679.814
1915.77	704.758
1914.97	667.059
1914.17	635.636
1913.37	707.535
1912.57	698.026
1911.77	726.076
1910.98	672.76
1910.18	753.99
1909.38	678.791
1908.58	713.08
1907.78	706.706
1906.98	725.347
1906.18	668.958
1905.38	737.606
1904.58	749.982
1903.78	659.249
1902.98	762.227
1902.18	721.495
1901.38	708.883
1900.58	771.211
1899.78	696.159
1898.98	711.648
1898.17	714.65
1897.37	742.612
1896.57	745.607
1895.77	736.125
1894.97	770.307
1894.17	720.288
1893.37	710.814
1892.56	766.802
1891.76	694.993
1890.96	785.242
1890.16	713.453
1889.35	732.024
1888.55	781.732
1887.75	756.69
1886.95	756.563
1886.14	709.742
1885.34	753.197
1884.54	743.735
1883.73	746.721
1882.93	740.375
1882.12	724.699
1881.32	761.895
1880.52	696.473
1879.71	730.552
1878.91	752.187
1878.1	705.445
1877.3	736.398
1876.49	773.555
1875.69	754.788
1874.88	767.084
1874.08	729.694
1873.27	723.362
1872.47	741.865
1871.66	772.776
1870.86	722.998
1870.05	778.721
1869.25	744.469
1868.44	797.069
1867.63	716.311
1866.83	759.596
1866.02	722.27
1865.21	759.341
1864.41	734.423
1863.6	694.021
1862.79	771.35
1861.99	743.345
1861.18	805.155
1860.37	774.057
1859.56	792.501
1858.76	776.892
1857.95	767.478
1857.14	773.537
1856.33	739.377
1855.52	736.16
1854.72	825.721
1853.91	785.385
1853.1	769.796
1852.29	856.215
1851.48	778.808
1850.67	806.487
1849.86	756.92
1849.05	790.771
1848.24	806.08
1847.43	805.945
1846.62	833.596
1845.81	719.241
1845	842.575
1844.19	820.832
1843.38	783.67
1842.57	851.404
1841.76	854.345
1840.95	718.516
1840.14	823.225
1839.33	823.086
1838.52	798.29
1837.71	822.809
1836.9	794.94
1836.09	754.758
1835.27	813.153
1834.46	769.902
1833.65	812.88
1832.84	828.136
1832.03	809.528
1831.21	818.624
1830.4	766.177
1829.59	815.272
1828.78	793.603
1827.96	830.375
1827.15	821.01
1826.34	863.914
1825.52	854.546
1824.71	817.522
1823.9	817.384
1823.08	771.161
1822.27	826.324
1821.45	810.828
1820.64	835.258
1819.83	789.063
1819.01	804.279
1818.2	804.143
1817.38	779.458
1816.57	859.1
1815.75	825.21
1814.94	837.34
1814.12	855.599
1813.31	840.124
1812.49	861.441
1811.68	809.189
1810.86	833.569
1810.04	842.621
1809.23	796.526
1808.41	808.643
1807.6	869.757
1806.78	863.487
1805.96	841.911
1805.15	841.769
1804.33	866.11
1803.51	869.024
1802.69	819.926
1801.88	887.084
1801.06	874.701
1800.24	847.032
1799.42	843.832
1798.61	800.894
1797.79	861.885
1796.97	925.911
1796.15	898.257
1795.33	913.38
1794.52	849.086
1793.7	873.372
1792.88	894.598
1792.06	894.446
1791.24	863.773
1790.42	900.248
1789.6	811.612
1788.78	823.677
1787.96	936.393
1787.14	966.731
1786.32	914.733
1785.5	881.044
1784.68	886.991
1783.86	947.792
1783.04	938.491
1782.22	862.169
1781.4	901.622
1780.58	941.061
1779.76	907.407
1778.94	928.565
1778.12	907.1
1777.29	888.686
1776.47	973.738
1775.65	976.615
1774.83	942.989
1774.01	954.995
1773.19	936.588
1772.36	924.269
1771.54	902.833
1770.72	920.917
1769.9	890.373
1769.07	899.337
1768.25	868.807
1767.43	1002.3
1766.6	911.027
1765.78	895.692
1764.96	962.326
1764.13	937.882
1763.31	998.417
1762.49	901.154
1761.66	967.742
1760.84	897.816
1760.01	927.99
1759.19	946.026
1758.36	945.865
1757.54	972.985
1756.71	930.392
1755.89	984.776
1755.06	975.52
1754.24	884.484
1753.41	935.819
1752.59	981.081
1751.76	959.722
1750.94	980.748
1750.11	950.317
1749.28	950.156
1748.46	1001.43
1747.63	992.183
1746.8	955.722
1745.98	985.799
1745.15	952.375
1744.32	928.03
1743.5	979.253
1742.67	930.737
1741.84	1000.07
1741.01	981.776
1740.19	963.487
1739.36	1093.18
1738.53	948.064
1737.7	978.091
1736.87	959.816
1736.05	980.777
1735.22	1001.73
1734.39	977.428
1733.56	1037.59
1732.73	1031.38
1731.9	949.793
1731.07	991.838
1730.24	1012.77
1729.41	1009.58
1728.58	1021.46
1727.75	1075.52
1726.92	1075.34
1726.09	1126.35
1725.26	1014.75
1724.43	1062.75
1723.6	1020.42
1722.77	1020.25
1721.94	1134.42
1721.11	1086.09
1720.28	1055.83
1719.45	1058.66
1718.62	1064.49
1717.78	1028.23
1716.95	1154.31
1716.12	1154.11
1715.29	1042.73
1714.46	1141.7
1713.62	1006.33
1712.79	1072.24
1711.96	1138.12
1711.13	1158.94
1710.29	1020.66
1709.46	1176.56
1708.63	1122.34
1707.79	1110.15
1706.96	1106.96
1706.13	1130.77
1705.29	1079.59
1704.46	1100.4
1703.63	1175.16
1702.79	1243.9
1701.96	1147.79
1701.12	1207.52
1700.29	1243.26
1699.45	1237.06
1698.62	1254.82
1697.78	1200.71
1696.95	1146.61
1696.11	1149.41
1695.28	1116.3
1694.44	1169.97
1693.61	1166.78
1692.77	1181.53
1691.94	1145.44
1691.1	1148.24
1690.26	1195.88
1689.43	1144.86
1688.59	1180.53
1687.75	1231.13
1686.92	1207.01
1686.08	1081.35
1685.24	1179.72
1684.41	1170.56
1683.57	1173.35
1682.73	1205.99
1681.89	1184.89
1681.06	1166.78
1680.22	1178.52
1679.38	1181.3
1678.54	1127.41
1677.7	1142.13
1676.87	1213.49
1676.03	1168.57
1675.19	1156.45
1674.35	1194.99
1673.51	1090.51
1672.67	1179.69
1671.83	1179.49
1670.99	1140.57
1670.15	1247.57
1669.31	1107.44
1668.47	1151.9
1667.63	1202.29
1666.79	1160.43
1665.95	1142.38
1665.11	1139.21
1664.27	1183.63
1663.43	1180.45
1662.59	1177.28
1661.75	1221.66
1660.91	1194.71
1660.07	1152.9
1659.22	1173.5
1658.38	1161.42
1657.54	1173.1
1656.7	1134.3
1655.86	1163.8
1655.01	1181.41
1654.17	1225.72
1653.33	1284.86
1652.49	1234.21
1651.64	1198.4
1650.8	1233.78
1649.96	1221.71
1649.12	1185.93
1648.27	1268.72
1647.43	1203.3
1646.58	1152.72
1645.74	1217.71
1644.9	1158.25
1644.05	1214.33
1643.21	1211.16
1642.36	1228.72
1641.52	1231.47
1640.67	1266.77
1639.83	1154.11
1638.99	1292.97
1638.14	1153.71
1637.29	1242.25
1636.45	1176.98
1635.6	1218.17
1634.76	1215
1633.91	1244.35
1633.07	1220.5
1632.22	1235.06
1631.37	1211.22
1630.53	1190.34
1629.68	1166.51
1628.83	1207.64
1627.99	1236.96
1627.14	1307.59
1626.29	1159.81
1625.45	1195.02
1624.6	1259.71
1623.75	1197.56
1622.9	1188.5
1622.06	1220.74
1621.21	1226.42
1620.36	1220.32
1619.51	1234.84
1618.66	1255.26
1617.81	1278.61
1616.97	1228.32
1616.12	1183.93
1615.27	1280.9
1614.42	1230.63
1613.57	1221.59
1612.72	1194.89
1611.87	1282.97
1611.02	1212.14
1610.17	1194.28
1609.32	1202.9
1608.47	1226.22
1607.62	1255.41
1606.77	1261.07
1605.92	1340.21
1605.07	1281.21
1604.22	1204.6
1603.37	1213.21
1602.52	1183.63
1601.66	1233.35
1600.81	1241.94
1599.96	1276.96
1599.11	1209.23
1598.26	1299.99
1597.4	1241.09
1596.55	1205.68
1595.7	1187.87
1594.85	1252.18
1594	1193.33
1593.14	1322.11
1592.29	1251.54
1591.44	1257.18
1590.58	1204.23
1589.73	1286.05
1588.88	1171.6
1588.02	1209.47
1587.17	1244.39
1586.31	1358.35
1585.46	1261.53
1584.61	1232.05
1583.75	1220.13
1582.9	1214.07
1582.04	1196.31
1581.19	1263.37
1580.33	1274.85
1579.48	1274.63
1578.62	1265.64
1577.77	1280.04
1576.91	1250.6
1576.06	1311.74
1575.2	1340.72
1574.34	1220.75
1573.49	1322.74
1572.63	1287.48
1571.77	1243.47
1570.92	1252.01
1570.06	1342.26
1569.2	1333.27
1568.35	1198.86
1567.49	1359.06
1566.63	1341.33
1565.78	1279.88
1564.92	1349.62
1564.06	1302.75
1563.2	1285.05
1562.34	1261.52
1561.49	1331.21
1560.63	1328.07
1559.77	1287.07
1558.91	1345.08
1558.05	1292.45
1557.19	1359.17
1556.33	1393.86
1555.47	1352.88
1554.61	1279.93
1553.75	1364.05
1552.89	1352.19
1552.03	1378.12
1551.17	1357.53
1550.31	1281.73
1549.45	1348.35
1548.59	1321.97
1547.73	1330.46
1546.87	1382.51
1546.01	1315.48
1545.15	1315.25
1544.29	1323.73
1543.43	1346.73
1542.57	1340.69
1541.71	1282.43
1540.84	1343.13
1539.98	1351.6
1539.12	1302.07
1538.26	1455.51
1537.39	1353.8
1536.53	1347.77
1535.67	1408.39
1534.81	1335.72
1533.94	1361.56
1533.08	1433.73
1532.22	1340.82
1531.35	1427.45
1530.49	1409.83
1529.63	1400.91
1528.76	1374.62
1527.9	1458.29
1527.03	1397.29
1526.17	1399.94
1525.31	1367.89
1524.44	1419.7
1523.58	1387.65
1522.71	1384.52
1521.85	1459.42
1520.98	1392.71
1520.12	1378.03
1519.25	1450
1518.38	1446.86
1517.52	1409.08
1516.65	1463.69
1515.79	1359.52
1514.92	1402.58
1514.05	1373.48
1513.19	1404.98
1512.32	1450.89
1511.45	1453.52
1510.59	1415.78
1509.72	1453.02
1508.85	1524.83
1507.98	1432.34
1507.12	1570.41
1506.25	1492.35
1505.38	1422.96
1504.51	1503.35
1503.65	1583.72
1502.78	1485.56
1501.91	1640.74
1501.04	1548.36
1500.17	1522.2
1499.3	1588.11
1498.43	1541.81
1497.56	1599.06
1496.69	1581.53
1495.82	1538.13
1494.95	1678.72
1494.08	1638.19
1493.21	1643.66
1492.34	1617.51
1491.47	1677.56
1490.6	1731.84
1489.73	1754.51
1488.86	1642.24
1487.99	1702.23
1487.12	1770.82
1486.25	1756.17
1485.38	1721.43
1484.51	1916.2
1483.63	1749.52
1482.76	1889.73
1481.89	1995.48
1481.02	2121.26
1480.15	2011.99
1479.27	2063.22
1478.4	2074.32
1477.53	2177.09
1476.66	2299.87
1475.78	2442.65
1474.91	2522.39
1474.04	2584.93
1473.16	2681.8
1472.29	2964.63
1471.42	3141.51
1470.54	3432.75
1469.67	3649.53
1468.79	3986.33
1467.92	4511.72
1467.04	4999.77
1466.17	5624.84
1465.29	6238.26
1464.42	6965.75
1463.54	7964.38
1462.67	8699.89
1461.79	9595.06
1460.92	10632.7
1460.04	11184.6
1459.17	11804.9
1458.29	12031.2
1457.41	11820.8
1456.54	11256.8
1455.66	10789.9
1454.78	10502.9
1453.91	9668.49
1453.03	9196.44
1452.15	8610.55
1451.28	8098.96
1450.4	7382.39
1449.52	6891.13
1448.64	6411.42
1447.77	5886.32
1446.89	5523.7
1446.01	5314.93
1445.13	5086.3
1444.25	4849.22
1443.37	4837
1442.5	4745.12
1441.62	4684.57
1440.74	4848.7
1439.86	4773.93
1438.98	5014.74
1438.1	5354.95
1437.22	5729.14
1436.34	5972.5
1435.46	6397.59
1434.58	6629.39
1433.7	6437.97
1432.82	6076.25
1431.94	5234.89
1431.06	4541.41
1430.18	3726.15
1429.3	3350.97
1428.41	3001.45
1427.53	2660.55
1426.65	2501.28
1425.77	2330.72
1424.89	2140.37
1424.01	2094.65
1423.12	2080.12
1422.24	1986.25
1421.36	1923.58
1420.48	1960.07
1419.59	1954.07
1418.71	1826.31
1417.83	1908.09
1416.94	1879.45
1416.06	2009.31
1415.18	1864.65
1414.29	1853.01
1413.41	1793.29
1412.53	1787.32
1411.64	1869.01
1410.76	1857.38
1409.87	1763.78
1408.99	1729.56
1408.1	1839.45
1407.22	1858.91
1406.33	1799.27
1405.45	1762.24
1404.56	1807.11
1403.68	1775.74
1402.79	1735.92
1401.91	1823.1
1401.02	1822.79
1400.13	1830.93
1399.25	1836.25
1398.36	1759.79
1397.47	1860.99
1396.59	1719.71
1395.7	1868.8
1394.81	1820.56
1393.93	1828.7
1393.04	1850.92
1392.15	1887.22
1391.26	1799.58
1390.38	1855.58
1389.49	1872.15
1388.6	1930.94
1387.71	1913.71
1386.82	1871.17
1385.93	1989.01
1385.04	2028.04
1384.16	2038.94
1383.27	2103.25
1382.38	2212.53
1381.49	2310.52
1380.6	2338.22
1379.71	2540.13
1378.82	2607.11
1377.93	2671.26
1377.04	2788.74
1376.15	2996.04
1375.26	2950.6
1374.37	3065.17
1373.48	2974.83
1372.59	3033.24
1371.69	3052.35
1370.8	3147.18
1369.91	3157.85
1369.02	3118.04
1368.13	3095.07
1367.24	3002.03
1366.34	3150.04
1365.45	3194.33
1364.56	3471.12
1363.67	3660.99
1362.77	3985.21
1361.88	4228.13
1360.99	4672.52
1360.1	4979.61
1359.2	5219.42
1358.31	5330.43
1357.42	5074.92
1356.52	4833.48
1355.63	4522.2
1354.73	4353.64
1353.84	3827.29
1352.95	3516.36
1352.05	3308.93
1351.16	3210.56
1350.26	3120.6
1349.37	2916.15
1348.47	3016.17
1347.58	2931.88
1346.68	2867.16
1345.78	2911.32
1344.89	2885.69
1343.99	2940.99
1343.1	3121.82
1342.2	2981.8
1341.3	3173.71
1340.41	3175.94
1339.51	3309.21
1338.61	3559.49
1337.72	3751.17
1336.82	4012.43
1335.92	4307.04
1335.02	4846.66
1334.13	5335.96
1333.23	6114.68
1332.33	6984.99
1331.43	8080.46
1330.53	9119.89
1329.64	10014.3
1328.74	10229.5
1327.84	9996.85
1326.94	9071.79
1326.04	8283.3
1325.14	7078.08
1324.24	6220.73
1323.34	5541.53
1322.44	4909.82
1321.54	4547.8
1320.64	4144.25
1319.74	3915.79
1318.84	3690.2
1317.94	3509.1
1317.04	3452.97
1316.14	3333.03
1315.24	3163.19
1314.34	2973.98
1313.44	2879.16
1312.54	2798.23
1311.63	2695.14
1310.73	2694.67
1309.83	2630.45
1308.93	2696.5
1308.03	2704.34
1307.12	2786.97
1306.22	3088.4
1305.32	3126.63
1304.41	3081.78
1303.51	3236.27
1302.61	3235.7
1301.71	3013.74
1300.8	3065.78
1299.9	2902.02
1298.99	3169.81
1298.09	3105.65
1297.19	3149.35
1296.28	3121.15
1295.38	3211.81
1294.47	3319.03
1293.57	3138.85
1292.66	3135.53
1291.76	2880.87
1290.85	2844.46
1289.95	2592.7
1289.04	2523.23
1288.14	2359.94
1287.23	2265.69
1286.32	2226.67
1285.42	2231.79
1284.51	2123.83
1283.6	2164.82
1282.7	2090
1281.79	2108.93
1280.88	2020.36
1279.98	2022.76
1279.07	2014.14
1278.16	1972.46
1277.25	1961.09
1276.35	1916.69
1275.44	1894.32
1274.53	1935.28
1273.62	1805.58
1272.71	1841.04
1271.81	1873.73
1270.9	1876.15
1269.99	1790.56
1269.08	1792.99
1268.17	1778.93
1267.26	1858.34
1266.35	1794.8
1265.44	1745.02
1264.53	1796.91
1263.62	1865.27
1262.71	1804.52
1261.8	1806.95
1260.89	1847.82
1259.98	1949.06
1259.07	1943.23
1258.16	2025.21
1257.25	2022.11
1256.33	2180.86
1255.42	2281.96
1254.51	2396.73
1253.6	2357.93
1252.69	2343.81
1251.78	2129.61
1250.86	2060.73
1249.95	2000.09
1249.04	1920.29
1248.12	1793.97
1247.21	1897.71
1246.3	1768.69
1245.39	1812.18
1244.47	1779.02
1243.56	1789.65
1242.64	1778.39
1241.73	1693.28
1240.82	1701.18
1239.9	1673.54
1238.99	1727.93
1238.07	1746.76
1237.16	1746.45
1236.24	1751.61
1235.33	1784.08
1234.41	1699.09
1233.5	1783.45
1232.58	1796.79
1231.67	1916.6
1230.75	1883.51
1229.84	1864.07
1228.92	2005.64
1228	2024.38
1227.09	2062.22
1226.17	2318.22
1225.25	2418.7
1224.34	2620.03
1223.42	2856.71
1222.5	3243.22
1221.58	3327.12
1220.67	3658.91
1219.75	3922.49
1218.83	3935.41
1217.91	4008.24
1216.99	3713.5
1216.08	3565.85
1215.16	3410.1
1214.24	3164.6
1213.32	2845.73
1212.4	2703.78
1211.48	2534.69
1210.56	2333.02
1209.64	2204.84
1208.72	2112.03
1207.8	2046.43
1206.88	2081.39
1205.96	2062.01
1205.04	1898.67
1204.12	1887.47
1203.2	1794.81
1202.28	1862.37
1201.36	1729.04
1200.44	1758.58
1199.52	1750.13
1198.59	1757.96
1197.67	1727.81
1196.75	1670.56
1195.83	1670.26
1194.91	1680.81
1193.98	1588.36
1193.06	1593.49
1192.14	1539.02
1191.22	1598.35
1190.29	1692.87
1189.37	1635.7
1188.45	1589.38
1187.52	1629.7
1186.6	1656.48
1185.68	1569.59
1184.75	1555.78
1183.83	1609.61
1182.9	1706.7
1181.98	1633.38
1181.05	1608.76
1180.13	1662.54
1179.21	1746.03
1178.28	1924.08
1177.35	1880.51
1176.43	2015.25
1175.5	2190.45
1174.58	2341.29
1173.65	2608.17
1172.73	2923.55
1171.8	3335.98
1170.87	3756.36
1169.95	4230.55
1169.02	4755.83
1168.09	5154.16
1167.17	5088.53
1166.24	5039.09
1165.31	4784.81
1164.38	4651.89
1163.46	4486.69
1162.53	4413.15
1161.6	4245.36
1160.67	4268.84
1159.74	4203.46
1158.81	4404.64
1157.89	4640.74
1156.96	4981.72
1156.03	5311.82
1155.1	5937.74
1154.17	6525.78
1153.24	7019.49
1152.31	7720.06
1151.38	7560.07
1150.45	7373.26
1149.52	6968.82
1148.59	6142.65
1147.66	5504.84
1146.73	4792.04
1145.8	4049.95
1144.87	3595.44
1143.94	3224.31
1143	3054.63
1142.07	2713.26
1141.14	2538.36
1140.21	2387.68
1139.28	2169.99
1138.34	2089.15
1137.41	1909.12
1136.48	1841.76
1135.55	1857.52
1134.61	1806.27
1133.68	1749.68
1132.75	1706.51
1131.81	1668.7
1130.88	1663.05
1129.95	1684.18
1129.01	1579.47
1128.08	1520.3
1127.15	1672.57
1126.21	1562.57
1125.28	1554.27
1124.34	1449.68
1123.41	1486.86
1122.47	1481.25
1121.54	1593.26
1120.6	1454
1119.67	1394.95
1118.73	1496.23
1117.79	1453.22
1116.86	1503.71
1115.92	1500.77
1114.99	1439.1
1114.05	1492.23
1113.11	1558.69
1112.18	1566.42
1111.24	1512.78
1110.3	1571.19
1109.36	1578.92
1108.43	1618.63
1107.49	1671.67
1106.55	1679.37
1105.61	1796.34
1104.67	1966.56
1103.74	2008.84
1102.8	2029.79
1101.86	2093.35
1100.92	2029.07
1099.98	1962.15
1099.04	1911.22
1098.1	1775.15
1097.16	1732.26
1096.22	1617.55
1095.28	1521.5
1094.34	1577.08
1093.4	1555.53
1092.46	1549.93
1091.52	1453.97
1090.58	1490.91
1089.64	1461.42
1088.7	1463.82
1087.76	1439.65
1086.82	1457.98
1085.88	1439.14
1084.93	1446.84
1083.99	1430.66
1083.05	1417.14
1082.11	1491.18
1081.17	1488.26
1080.22	1487.99
1079.28	1384.3
1078.34	1516.63
1077.39	1460.69
1076.45	1425.97
1075.51	1507.87
1074.56	1454.6
1073.62	1504.68
1072.68	1446.14
1071.73	1445.88
1070.79	1482.69
1069.84	1527.43
1068.9	1529.8
1067.95	1473.96
1067.01	1510.74
1066.06	1542.21
1065.12	1592.19
1064.17	1689.74
1063.23	1755.54
1062.28	1681.21
1061.34	1778.7
1060.39	1720.25
1059.44	1772.78
1058.5	1740.76
1057.55	1632.17
1056.6	1639.8
1055.66	1687.03
1054.71	1670.89
1053.76	1678.51
1052.82	1744.17
1051.87	1746.5
1050.92	1841.15
1049.97	1883.01
1049.02	2075.16
1048.08	2193.43
1047.13	2335.37
1046.18	2456.18
1045.23	2503.17
1044.28	2763.53
1043.33	2894.74
1042.38	2910.02
1041.43	2867.37
1040.48	3080.1
1039.53	3061.12
1038.58	3279
1037.63	3457.33
1036.68	3459.34
1035.73	3556.04
1034.78	3500.18
1033.83	3260.29
1032.88	2960.02
1031.93	2691.4
1030.98	2457.04
1030.03	2298.96
1029.07	2104.16
1028.12	2127.42
1027.17	1880.2
1026.22	1929.74
1025.27	1758.77
1024.31	1881.81
1023.36	1731.9
1022.41	1686.99
1021.46	1757.51
1020.5	1683.76
1019.55	1604.79
1018.59	1630.72
1017.64	1638.29
1016.69	1643.24
1015.73	1684.87
1014.78	1650.51
1013.82	1665.93
1012.87	1697.06
1011.92	1654.86
1010.96	1628.38
1010.01	1719.71
1009.05	1795.29
1008.09	1810.67
1007.14	1865.28
1006.18	1906.8
1005.23	1950.91
1004.27	2036.85
1003.31	2282.22
1002.36	2600.69
1001.4	2911.2
1000.44	3310.44
999.488	3936.81
998.53	4385.35
997.573	4496.85
996.616	4127.9
995.658	3756.47
994.7	3218.14
993.742	2901.81
992.784	2439.48
991.825	2238.18
990.867	2013.48
989.908	1804.5
988.949	1801.57
987.99	1681.34
987.031	1605.46
986.072	1654.68
985.112	1552.77
984.152	1591.57
983.192	1672.02
982.232	1676.92
981.272	1874.48
980.312	1934.02
979.351	2162.69
978.39	2445.92
977.429	2911.17
976.468	3365.84
975.507	3999.79
974.545	4732.32
973.584	5243.61
972.622	5476.6
971.66	5298.9
970.698	4731.52
969.735	4081.2
968.773	3358.4
967.81	2908.53
966.847	2406.9
965.884	2222.15
964.921	2084.19
963.958	1894.38
962.994	1831.77
962.03	1784.74
961.067	1714.39
960.103	1677.78
959.138	1654.14
958.174	1560.53
957.209	1552.47
956.244	1510.73
955.28	1595.95
954.314	1582.71
953.349	1553.94
952.384	1698.67
951.418	1496.42
950.452	1573.81
949.486	1633.05
948.52	1661.22
947.554	1642.81
946.587	1696.83
945.621	1918.94
944.654	2001.34
943.687	2303.45
942.719	2473.63
941.752	2633.41
940.785	2684.61
939.817	2784.88
938.849	2642.32
937.881	2541.12
936.913	2181.77
935.944	2039.39
934.976	1837.71
934.007	1700.6
933.038	1563.55
932.069	1439.44
931.099	1449.5
930.13	1428.61
929.16	1338.11
928.19	1392.01
927.22	1386.6
926.25	1388.93
925.28	1329.42
924.309	1334.33
923.339	1303.18
922.368	1261.75
921.397	1197.16
920.426	1245.85
919.454	1289.38
918.483	1232.53
917.511	1291.48
916.539	1337.55
915.567	1260.16
914.595	1344.78
913.622	1231.42
912.649	1328.87
911.677	1387.74
910.704	1325.82
909.731	1353.84
908.757	1335.62
907.784	1479.19
906.81	1427.57
905.836	1504.32
904.862	1668.32
903.888	1845.08
902.914	1857.57
901.939	2152.24
900.964	2277.53
899.989	2513.03
899.014	2525.4
898.039	2486.49
897.063	2298.95
896.088	2047.41
895.112	1967.62
894.136	1849.43
893.16	1659.58
892.184	1533.81
891.207	1579.61
890.23	1451.34
889.254	1489.47
888.277	1366.38
887.299	1437.76
886.322	1312.17
885.344	1411.67
884.367	1375.62
883.389	1383.04
882.411	1352.11
881.432	1428.53
880.454	1389.95
879.475	1417.8
878.496	1450.75
877.517	1350.89
876.538	1411.92
875.559	1495.91
874.579	1592.62
873.6	1441.78
872.62	1489.99
871.64	1469.31
870.66	1576.17
869.679	1499.38
868.699	1552.65
867.718	1659.43
866.737	1534.25
865.756	1658.83
864.774	1689.1
863.793	1637.85
862.811	1736.87
861.83	1800.21
860.848	1822.8
859.865	1868.29
858.883	1875.58
857.9	1913.41
856.918	1966.48
855.935	2065.32
854.952	2164.13
853.968	2247.64
852.985	2303.16
852.001	2513.7
851.018	2696.21
850.034	2774.48
849.05	2961.96
848.065	3360.17
847.081	3572.87
846.096	4140.93
845.111	5071.78
844.126	6639.32
843.141	8376.31
842.156	10171
841.17	10717.1
840.184	9860.45
839.198	8043.12
838.212	6624.49
837.226	5771.61
836.239	5093.91
835.253	4692.64
834.266	4408.05
833.279	4171.69
832.292	4062.03
831.304	3767.59
830.317	3599.82
829.329	3520.7
828.341	3249.29
827.353	3061.47
826.365	3081.15
825.376	2931.37
824.388	2834.74
823.399	2771.02
822.41	2881.74
821.421	2749.79
820.431	2837.73
819.442	2811.95
818.452	3046.36
817.462	3083.69
816.472	3280.08
815.482	3660.7
814.492	4159.82
813.501	4981.79
812.51	6033.08
811.519	7606.2
810.528	9506.65
809.537	11434.1
808.545	12254
807.553	11747.6
806.562	10064.3
805.57	7953.22
804.577	6223.34
803.585	4854.33
802.592	4188.52
801.6	3598.5
800.607	3195.01
799.613	2952.77
798.62	2786.12
797.627	2455.97
796.633	2364.95
795.639	2150.7
794.645	2079.89
793.651	2069.46
792.656	1867.95
791.662	1804.77
790.667	1774.29
789.672	1688.53
788.677	1695.76
787.682	1620.1
786.686	1516.84
785.691	1428.68
784.695	1448.5
783.699	1388
782.702	1330.03
781.706	1384.98
780.709	1266.83
779.713	1319.27
778.716	1314.01
777.719	1338.84
776.721	1195.72
775.724	1305.77
774.726	1255.42
773.728	1267.72
772.73	1222.4
771.732	1139.53
770.734	1262.01
769.735	1259.28
768.736	1168.94
767.737	1198.76
766.738	1256.09
765.739	1200.82
764.739	1275.64
763.74	1175.38
762.74	1252.67
761.74	1272.44
760.74	1147.24
759.739	1189.51
758.739	1161.81
757.738	1094.15
756.737	1108.94
755.736	1086.26
754.734	1043.62
753.733	1073.38
752.731	1125.59
751.729	1075.48
750.727	1045.35
749.725	1040.17
748.723	1142.23
747.72	1059.74
746.717	1072.01
745.714	1074.3
744.711	1049.19
743.708	1078.89
742.704	1053.78
741.7	1046.12
740.696	1085.77
739.692	1013.37
738.688	1023.14
737.684	1013
736.679	1097.42
735.674	1064.87
734.669	1009.95
733.664	1066.97
732.659	1054.34
731.653	999.454
730.647	1016.67
729.642	1041.34
728.635	1018.78
727.629	1083.19
726.623	1023.38
725.616	1030.64
724.609	1027.97
723.602	1032.75
722.595	975.469
721.588	1064.63
720.58	1019.77
719.572	1022.07
718.564	1041.72
717.556	999.373
716.548	1031.42
715.539	956.865
714.531	944.298
713.522	1028.38
712.513	1035.62
711.503	1018.09
710.494	998.092
709.484	968.194
708.475	943.259
707.465	992.592
706.454	970.136
705.444	1004.6
704.434	994.52
703.423	1033.91
702.412	976.844
701.401	981.609
700.39	976.485
699.378	973.834
698.366	968.713
697.355	956.181
696.343	1032.59
695.33	945.951
694.318	1022.33
693.305	999.92
692.293	1009.61
691.28	984.745
690.267	991.967
689.253	1043.59
688.24	1006.4
687.226	1001.29
686.212	976.444
685.198	976.264
684.184	973.62
683.169	1012.87
682.155	990.51
681.14	963.229
680.125	1007.39
679.11	1019.51
678.094	1068.57
677.079	1024.06
676.063	1110.02
675.047	1055.68
674.031	1077.63
673.015	1013.47
671.998	993.609
670.981	1015.56
669.965	1010.45
668.948	1032.39
667.93	973.217
666.913	960.752
665.895	955.662
664.877	980.049
663.859	994.603
662.841	972.322
661.823	927.955
660.804	979.328
659.786	957.061
658.767	954.432
657.748	964.068
656.728	958.986
655.709	978.427
654.689	990.505
653.669	1034.45
652.649	995.042
651.629	987.508
650.608	911.378
649.588	960.199
648.567	979.615
647.546	1030.85
646.525	1033.11
645.504	1003.55
644.482	996.024
643.46	1017.86
642.438	980.979
641.416	929.434
640.394	941.49
639.371	995.106
638.349	1053.59
637.326	980.075
636.303	1031.21
635.279	947.952
634.256	1003.96
633.232	1008.66
632.208	969.404
631.184	991.197
630.16	956.842
629.136	990.832
628.111	1007.73
627.087	1053.9
626.062	992.723
625.036	1029.12
624.011	1053.31
622.986	1072.62
621.96	1001.74
620.934	996.68
619.908	986.751
618.882	1010.93
617.855	1005.87
616.828	974.029
615.802	993.326
614.775	1005.31
613.747	1022.16
612.72	1021.98
611.692	1060.71
610.664	1036.19
609.636	1026.27
608.608	984.748
607.58	979.704
606.551	1001.4
605.523	1044.96
604.494	1030.18
603.465	1073.72
602.435	1054.09
601.406	1097.61
600.376	995.432
599.346	1092.35
598.316	1048.46
597.286	1045.84
596.255	1077.18
595.225	1081.84
594.194	1091.34
593.163	1079.01
592.131	1076.39
591.1	1064.07
590.068	1059.02
589.037	1066.1
588.005	1099.81
586.972	1051.17
585.94	1031.6
584.908	1096.78
583.875	1108.68
582.842	1040.71
581.809	1122.79
580.775	1093.55
579.742	1081.25
578.708	1066.54
577.674	1092.94
576.64	1034.72
575.606	1111.88
574.571	1196.25
573.537	1167.04
572.502	1181.32
571.467	1156.94
570.432	1130.17
569.396	1139.61
568.36	1168.37
567.325	1216.43
566.289	1271.7
565.252	1199.09
564.216	1172.33
563.179	1261.35
562.143	1251.47
561.106	1222.31
560.069	1231.72
559.031	1267.64
557.994	1303.55
556.956	1259.94
555.918	1204.31
554.88	1259.48
553.841	1336.29
552.803	1333.64
551.764	1364.68
550.725	1371.64
549.686	1330.49
548.647	1366.32
547.607	1418.98
546.568	1365.82
545.528	1473.75
544.488	1430.21
543.448	1482.82
542.407	1525.79
541.367	1547.13
540.326	1606.89
539.285	1762.69
538.243	1812.78
537.202	1870.06
536.16	1956.12
535.119	2114.13
534.077	2149.73
533.035	2288.46
531.992	2336
530.95	2426.69
529.907	2586.87
528.864	2514.48
527.821	2509.22
526.777	2386.55
525.734	2508.28
524.69	2313.8
523.646	2267.87
522.602	2212.38
521.558	2051.58
520.513	2072.74
519.468	1990.99
518.424	1832.71
517.378	1786.92
516.333	1635.91
515.288	1692.99
514.242	1544.45
513.196	1491.58
512.15	1498.47
511.104	1438.45
510.057	1411.91
509.011	1418.81
507.964	1449.59
506.917	1377.69
505.87	1449.05
504.822	1360.47
503.775	1460.44
502.727	1367.12
501.679	1359.71
500.63	1435.78
