3200.53	88.4053
3199.94	67.3564
3199.34	79.9736
3198.75	54.7105
3198.15	88.3652
3197.56	92.5591
3196.96	79.9253
3196.37	71.5013
3195.78	54.6692
3195.18	63.0703
3194.59	67.2648
3193.99	84.0683
3193.4	71.4473
3192.8	54.6279
3192.21	75.6272
3191.61	79.8166
3191.02	54.6031
3190.42	54.5948
3189.83	117.571
3189.23	83.9666
3188.63	67.1632
3188.04	75.5471
3187.44	62.9464
3186.85	88.1116
3186.25	71.3177
3185.66	50.3343
3185.06	62.9083
3184.46	67.0921
3183.87	83.8524
3183.27	71.2637
3182.67	96.4011
3182.08	96.3865
3181.48	75.4215
3180.88	67.0312
3180.29	67.021
3179.69	87.9518
3179.09	113.064
3178.5	46.056
3177.9	54.4216
3177.3	41.8564
3176.7	66.9602
3176.11	83.6875
3175.51	50.2049
3174.91	29.2818
3174.31	66.9196
3173.72	71.0913
3173.12	54.3557
3172.52	29.264
3171.92	83.5989
3171.32	87.7655
3170.73	79.3949
3170.13	54.3146
3169.53	33.4193
3168.93	71.0052
3168.33	50.1137
3167.73	66.8082
3167.13	41.7488
3166.54	54.2652
3165.94	62.6042
3165.34	50.0758
3164.74	62.5852
3164.14	70.9192
3163.54	75.0795
3162.94	75.0682
3162.34	58.3775
3161.74	66.707
3161.14	70.8655
3160.54	70.8547
3159.94	83.3459
3159.34	74.9999
3158.74	70.8225
3158.14	79.1426
3157.54	79.1306
3156.94	79.1186
3156.34	66.6161
3155.74	95.7461
3155.14	66.5958
3154.54	37.4545
3153.94	83.2196
3153.34	62.4052
3152.74	66.5555
3152.13	70.7044
3151.53	49.9014
3150.93	45.7361
3150.33	87.301
3149.73	91.4444
3149.13	74.8068
3148.53	58.1742
3147.92	70.6294
3147.32	41.5404
3146.72	95.5284
3146.12	66.4445
3145.52	74.7387
3144.91	70.5758
3144.31	58.1124
3143.71	53.9533
3143.11	74.6933
3142.5	66.384
3141.9	53.9288
3141.3	70.5115
3140.7	95.3835
3140.09	62.1972
3139.49	87.0628
3138.89	41.4522
3138.28	91.181
3137.68	82.8792
3137.08	99.4399
3136.47	86.9967
3135.87	82.8414
3135.27	57.9802
3134.66	57.9714
3134.06	70.3831
3133.45	53.8142
3132.85	74.5007
3132.25	91.0426
3131.64	70.3404
3131.04	91.0149
3130.43	95.1375
3129.83	62.0368
3129.22	45.4867
3128.62	78.556
3128.02	78.5441
3127.41	70.2656
3126.81	90.9181
3126.2	78.5083
3125.6	78.4963
3124.99	74.3536
3124.38	66.0821
3123.78	61.9425
3123.17	82.5775
3122.57	66.0519
3121.96	78.4247
3121.36	41.2699
3120.75	99.0327
3120.15	37.1316
3119.54	90.7524
3118.93	74.2406
3118.33	24.7431
3117.72	86.5877
3117.11	82.452
3116.51	49.4637
3115.9	82.4269
3115.29	57.69
3114.69	107.122
3114.08	74.1503
3113.47	49.426
3112.87	78.246
3112.26	82.3517
3111.65	45.2865
3111.04	86.4429
3110.44	90.5455
3109.83	65.8412
3109.22	65.8312
3108.61	102.846
3108.01	69.9244
3107.4	69.9137
3106.79	78.127
3106.18	74.0038
3105.57	69.8818
3104.97	90.4215
3104.36	82.1888
3103.75	53.4146
3103.14	86.272
3102.53	57.5059
3101.92	65.711
3101.31	61.5947
3100.71	53.374
3100.1	69.7861
3099.49	65.671
3098.88	49.2458
3098.27	61.5478
3097.66	57.4359
3097.05	53.3252
3096.44	77.9249
3095.83	86.1144
3095.22	94.3014
3094.61	77.8893
3094	69.6798
3093.39	57.3746
3092.78	127.024
3092.17	57.3572
3091.56	81.9263
3090.95	49.1483
3090.34	69.6161
3089.73	57.3222
3089.12	85.9702
3088.51	45.0251
3087.9	69.5737
3087.29	73.655
3086.68	65.4611
3086.06	49.0884
3085.45	89.9816
3084.84	81.789
3084.23	53.1547
3083.62	77.6759
3083.01	65.4013
3082.4	126.696
3081.78	81.7266
3081.17	73.5428
3080.56	49.021
3079.95	77.6048
3079.34	110.264
3078.72	61.2482
3078.11	81.6519
3077.5	61.2296
3076.89	89.7896
3076.27	97.9374
3075.66	69.3617
3075.05	57.1127
3074.43	77.4983
3073.82	89.7211
3073.21	77.4746
3072.6	93.7707
3071.98	61.1455
3071.37	69.2876
3070.76	97.8029
3070.14	44.8195
3069.53	93.6992
3068.91	65.1721
3068.3	81.4527
3067.69	44.7921
3067.07	85.4992
3066.46	101.769
3065.84	77.3328
3065.23	138.364
3064.62	73.2403
3064	77.2973
3063.39	81.3532
3062.77	77.2737
3062.16	85.3948
3061.54	93.5133
3060.93	69.108
3060.31	109.743
3059.7	73.1508
3059.08	85.3295
3058.47	56.8777
3057.85	81.2414
3057.24	81.229
3056.62	73.0949
3056	97.445
3055.39	56.8342
3054.77	93.3562
3054.16	77.1086
3053.54	73.039
3052.92	101.428
3052.31	109.525
3051.69	81.1173
3051.07	89.2154
3050.46	105.42
3049.84	97.2961
3049.22	89.1744
3048.61	105.372
3047.99	101.304
3047.37	72.9274
3046.76	93.1708
3046.14	97.2068
3045.52	113.391
3044.9	89.079
3044.29	105.259
3043.67	109.291
3043.05	101.18
3042.43	105.211
3041.82	89.0109
3041.2	117.315
3040.58	121.341
3039.96	93.0141
3039.34	117.261
3038.72	56.6
3038.11	97.0136
3037.49	72.7491
3036.87	105.066
3036.25	84.848
3035.63	84.835
3035.01	80.7828
3034.39	113.079
3033.77	125.175
3033.16	80.7457
3032.54	84.77
3031.92	68.6129
3031.3	121.063
3030.68	92.8007
3030.06	104.889
3029.44	112.94
3028.82	68.5603
3028.2	133.067
3027.58	133.047
3026.96	80.6221
3026.34	80.6098
3025.72	88.6572
3025.1	88.6436
3024.48	76.5441
3023.86	112.785
3023.23	104.712
3022.61	124.83
3021.99	112.733
3021.37	100.639
3020.75	140.873
3020.13	88.535
3019.51	124.735
3018.89	108.623
3018.27	132.741
3017.64	92.5025
3017.02	128.679
3016.4	120.618
3015.78	120.6
3015.16	124.601
3014.53	116.544
3013.91	112.508
3013.29	124.544
3012.67	116.491
3012.04	144.587
3011.42	128.502
3010.8	112.422
3010.18	108.39
3009.55	128.443
3008.93	176.582
3008.31	116.366
3007.69	132.396
3007.06	200.569
3006.44	160.43
3005.82	132.335
3005.19	156.372
3004.57	144.321
3003.94	140.29
3003.32	148.284
3002.7	132.233
3002.07	156.252
3001.45	212.309
3000.82	184.24
3000.2	136.157
2999.58	180.18
2998.95	140.118
2998.33	128.088
2997.7	216.116
2997.08	188.072
2996.45	180.041
2995.83	204.016
2995.2	191.985
2994.58	159.963
2993.95	179.931
2993.33	179.903
2992.7	179.876
2992.08	235.801
2991.45	219.78
2990.82	179.793
2990.2	243.681
2989.57	223.673
2988.95	255.587
2988.32	207.633
2987.69	239.539
2987.07	271.436
2986.44	271.395
2985.82	239.429
2985.19	231.412
2984.56	283.237
2983.94	287.182
2983.31	287.138
2982.68	303.044
2982.05	275.089
2981.43	310.923
2980.8	318.846
2980.17	326.767
2979.54	322.732
2978.92	354.553
2978.29	350.515
2977.66	386.304
2977.03	398.19
2976.41	437.942
2975.78	433.894
2975.15	449.747
2974.52	505.39
2973.89	517.249
2973.27	568.886
2972.64	584.709
2972.01	588.596
2971.38	588.506
2970.75	572.512
2970.12	715.53
2969.49	719.395
2968.86	790.815
2968.23	846.32
2967.6	834.271
2966.98	965.223
2966.35	929.33
2965.72	937.129
2965.09	1028.3
2964.46	1115.48
2963.83	1099.43
2963.2	1250.06
2962.57	1186.38
2961.94	1221.9
2961.31	1344.68
2960.68	1336.54
2960.05	1336.34
2959.42	1304.41
2958.78	1534.13
2958.15	1482.37
2957.52	1585.18
2956.89	1493.8
2956.26	1465.84
2955.63	1441.84
2955	1453.5
2954.37	1484.96
2953.74	1619.35
2953.1	1638.89
2952.47	1753.42
2951.84	1820.43
2951.21	1919.07
2950.58	1875.25
2949.95	1938.25
2949.31	1882.59
2948.68	1937.66
2948.05	1795.02
2947.42	1778.93
2946.78	1818.18
2946.15	1719.1
2945.52	1675.37
2944.89	1536.84
2944.25	1461.55
2943.62	1429.73
2942.99	1366.33
2942.35	1326.63
2941.72	1263.26
2941.09	1195.97
2940.45	1195.78
2939.82	1278.46
2939.19	1333.5
2938.55	1195.23
2937.92	1198.99
2937.28	1234.3
2936.65	1368.16
2936.02	1423.14
2935.38	1355.92
2934.75	1469.99
2934.11	1560.4
2933.48	1595.61
2932.84	1622.94
2932.21	1677.83
2931.57	1874.47
2930.94	1956.87
2930.3	1972.31
2929.67	2216.05
2929.03	2156.67
2928.4	2176.01
2927.76	2289.77
2927.13	2442.83
2926.49	2619.45
2925.86	2638.7
2925.22	2740.53
2924.58	2783.35
2923.95	2837.95
2923.31	2802.14
2922.68	2923.52
2922.04	3056.65
2921.4	2891.19
2920.77	2855.39
2920.13	2866.73
2919.49	2850.58
2918.86	2873.7
2918.22	2743.72
2917.58	2849.26
2916.95	2919.46
2916.31	2738.53
2915.67	2738.1
2915.03	2882.8
2914.4	2729.42
2913.76	2791.73
2913.12	2803.06
2912.48	2830.06
2911.85	2845.3
2911.21	2895.8
2910.57	3048.16
2909.93	3000.68
2909.29	3321.38
2908.65	3187.72
2908.02	3245.96
2907.38	3492.1
2906.74	3569.84
2906.1	3600.6
2905.46	3799.61
2904.82	3881.19
2904.18	3970.56
2903.54	4149.86
2902.9	4215.7
2902.27	4320.62
2901.63	4402.05
2900.99	4354.47
2900.35	4310.8
2899.71	4157.74
2899.07	4321.19
2898.43	4121.29
2897.79	4101.12
2897.15	4030.2
2896.51	3908.53
2895.87	4071.89
2895.23	4114.2
2894.59	4070.63
2893.94	4062.2
2893.3	3901.6
2892.66	4049.24
2892.02	4075.91
2891.38	4227.37
2890.74	4324.2
2890.1	4354.72
2889.46	4451.49
2888.82	4645.67
2888.17	4812.51
2887.53	4839.04
2886.89	4970.74
2886.25	5063.45
2885.61	5179.49
2884.96	5151.44
2884.32	5508.81
2883.68	5356.14
2883.04	5872.94
2882.4	6043.25
2881.75	6108.46
2881.11	5909.11
2880.47	6137.68
2879.82	6366.18
2879.18	6205.77
2878.54	6177.59
2877.9	6215.5
2877.25	5985.24
2876.61	5673.44
2875.97	5556
2875.32	5380.32
2874.68	5127.02
2874.03	4920.4
2873.39	4803.15
2872.75	4600.53
2872.1	4545.47
2871.46	4331.3
2870.81	4381.08
2870.17	4531.71
2869.53	4511.62
2868.88	4538.07
2868.24	4564.51
2867.59	4455.23
2866.95	4582.48
2866.3	4779.46
2865.66	4739.96
2865.01	4894.23
2864.37	4730.74
2863.72	4683.52
2863.08	4485.25
2862.43	4430.34
2861.78	4170.22
2861.14	3871.47
2860.49	3719.91
2859.85	3653.53
2859.2	3374.35
2858.55	3168.77
2857.91	3040.62
2857.26	2769.39
2856.62	2842.44
2855.97	2764.67
2855.32	2652.12
2854.68	2628.52
2854.03	2682.22
2853.38	2735.9
2852.73	2654.34
2852.09	2789.13
2851.44	2730.76
2850.79	2834.61
2850.15	2938.42
2849.5	2980.43
2848.85	3026.29
2848.2	3118.45
2847.55	3206.72
2846.91	3457
2846.26	3444.89
2845.61	3594.78
2844.96	3706.06
2844.31	3817.31
2843.67	4082.73
2843.02	4058.97
2842.37	4143.12
2841.72	4181.01
2841.07	4072.48
2840.42	4264.46
2839.77	4240.69
2839.12	4259.29
2838.47	4258.62
2837.82	3888.37
2837.18	3957.06
2836.53	3783.25
2835.88	3597.95
2835.23	3439.65
2834.58	3196.76
2833.93	2861.64
2833.28	2765.05
2832.63	2407.02
2831.98	2368.21
2831.33	2075.7
2830.67	1775.6
2830.02	1679.26
2829.37	1498.42
2828.72	1367.57
2828.07	1152.27
2827.42	1132.89
2826.77	963.766
2826.12	940.581
2825.47	898.211
2824.82	882.72
2824.16	821.185
2823.51	705.956
2822.86	671.321
2822.21	682.723
2821.56	648.102
2820.91	609.658
2820.25	586.561
2819.6	597.969
2818.95	555.718
2818.3	551.799
2817.64	517.231
2816.99	509.489
2816.34	467.278
2815.69	490.183
2815.03	467.133
2814.38	467.06
2813.73	405.743
2813.07	432.47
2812.42	432.402
2811.77	401.727
2811.11	409.315
2810.46	413.076
2809.81	390.067
2809.15	351.77
2808.5	378.476
2807.84	363.128
2807.19	393.646
2806.54	332.445
2805.88	370.599
2805.23	317.061
2804.57	351.386
2803.92	366.607
2803.26	339.822
2802.61	335.952
2801.95	259.558
2801.3	278.6
2800.64	301.452
2799.99	278.513
2799.33	301.358
2798.68	297.497
2798.02	316.518
2797.37	224.959
2796.71	259.235
2796.05	323.993
2795.4	293.454
2794.74	297.218
2794.09	274.313
2793.43	285.698
2792.77	239.949
2792.12	277.992
2791.46	243.681
2790.8	258.871
2790.15	296.894
2789.49	266.401
2788.83	247.334
2788.18	247.296
2787.52	251.061
2786.86	292.859
2786.2	266.194
2785.55	224.328
2784.89	224.293
2784.23	266.069
2783.57	273.628
2782.91	254.586
2782.26	269.743
2781.6	235.514
2780.94	254.467
2780.28	243.035
2779.62	284.762
2778.97	242.959
2778.31	250.512
2777.65	254.268
2776.99	227.667
2776.33	254.189
2775.67	212.423
2775.01	197.219
2774.35	242.693
2773.69	265.404
2773.03	291.899
2772.37	219.838
2771.71	276.649
2771.05	250.082
2770.39	204.581
2769.73	234.852
2769.07	257.539
2768.41	287.793
2767.75	234.742
2767.09	287.703
2766.43	264.948
2765.77	268.691
2765.11	280.001
2764.45	200.51
2763.79	261
2763.13	211.793
2762.47	238.23
2761.81	257.097
2761.15	268.397
2760.48	275.914
2759.82	275.871
2759.16	253.157
2758.5	283.341
2757.84	268.187
2757.18	283.252
2756.51	324.745
2755.85	332.245
2755.19	335.968
2754.53	317.044
2753.86	313.22
2753.2	347.13
2752.54	339.53
2751.88	358.337
2751.21	339.424
2750.55	309.204
2749.89	354.398
2749.22	335.495
2748.56	339.211
2747.9	358
2747.23	376.783
2746.57	388.026
2745.91	369.132
2745.24	387.904
2744.58	391.609
2743.91	429.197
2743.25	500.651
2742.59	444.117
2741.92	395.127
2741.26	406.352
2740.59	451.432
2739.93	417.509
2739.26	417.444
2738.6	488.821
2737.93	488.745
2737.27	492.427
2736.6	432.216
2735.94	477.242
2735.27	518.496
2734.61	458.309
2733.94	544.626
2733.28	585.85
2732.61	518.171
2731.94	570.65
2731.28	600.589
2730.61	585.483
2729.95	611.659
2729.28	637.826
2728.61	618.969
2727.95	645.127
2727.28	772.531
2726.61	686.17
2725.95	727.301
2725.28	805.903
2724.61	813.272
2723.94	813.145
2723.28	891.696
2722.61	891.556
2721.94	883.926
2721.28	880.042
2720.61	966.022
2719.94	977.101
2719.27	1036.84
2718.6	924.4
2717.94	879.351
2717.27	882.955
2716.6	856.631
2715.93	819.095
2715.26	833.924
2714.59	886.139
2713.92	684.127
2713.26	717.659
2712.59	743.707
2711.92	732.38
2711.25	646.336
2710.58	687.325
2709.91	653.603
2709.24	694.577
2708.57	619.794
2707.9	642.096
2707.23	634.53
2706.56	682.945
2705.89	604.479
2705.22	652.884
2704.55	619.21
2703.88	518.414
2703.21	611.557
2702.54	577.906
2701.87	529.353
2701.2	536.724
2700.53	488.193
2699.86	443.403
2699.19	499.216
2698.51	495.413
2697.84	450.643
2697.17	368.65
2696.5	416.993
2695.83	398.314
2695.16	450.359
2694.49	372.139
2693.81	424.172
2693.14	390.623
2692.47	364.524
2691.8	349.591
2691.13	334.662
2690.45	390.378
2689.78	353.143
2689.11	345.654
2688.43	382.761
2687.76	367.839
2687.09	371.496
2686.42	382.58
2685.74	360.237
2685.07	352.754
2684.4	367.549
2683.72	363.779
2683.05	423.105
2682.38	348.821
2681.7	400.71
2681.03	363.55
2680.35	337.529
2679.68	337.476
2679.01	359.671
2678.33	374.443
2677.66	355.851
2676.98	363.207
2676.31	348.327
2675.63	348.272
2674.96	363.035
2674.28	337.051
2673.61	333.295
2672.93	351.756
2672.26	336.892
2671.58	347.943
2670.91	351.589
2670.23	414.44
2669.55	355.178
2668.88	332.927
2668.2	329.176
2667.53	332.822
2666.85	366.047
2666.17	280.961
2665.5	340.057
2664.82	328.917
2664.15	328.865
2663.47	336.202
2662.79	343.537
2662.11	369.336
2661.44	339.736
2660.76	354.451
2660.08	354.395
2659.41	346.957
2658.73	394.878
2658.05	372.677
2657.37	391.064
2656.7	357.804
2656.02	361.436
2655.34	431.442
2654.66	416.626
2653.98	387.07
2653.31	368.579
2652.63	398.003
2651.95	361.094
2651.27	427.35
2650.59	353.613
2649.91	357.24
2649.23	434.512
2648.55	371.854
2647.88	401.245
2647.2	379.098
2646.52	375.358
2645.84	353.222
2645.16	389.955
2644.48	382.537
2643.8	389.832
2643.12	312.551
2642.44	341.914
2641.76	360.24
2641.08	363.858
2640.4	345.427
2639.72	286.585
2639.04	319.602
2638.36	319.552
2637.68	297.467
2636.99	286.404
2636.31	304.715
2635.63	223.912
2634.95	267.918
2634.27	264.206
2633.59	297.185
2632.91	319.148
2632.23	297.091
2631.54	260.372
2630.86	249.331
2630.18	219.963
2629.5	300.569
2628.82	260.207
2628.13	304.138
2627.45	227.151
2626.77	271.073
2626.09	293.006
2625.4	296.622
2624.72	256.299
2624.04	263.58
2623.36	237.917
2622.67	285.455
2621.99	270.773
2621.31	281.706
2620.62	281.661
2619.94	266.987
2619.25	245.004
2618.57	230.341
2617.89	288.794
2617.2	274.129
2616.52	259.467
2615.83	299.619
2615.15	288.612
2614.47	248.386
2613.78	281.216
2613.1	303.081
2612.41	292.08
2611.73	255.529
2611.04	306.587
2610.36	270.046
2609.67	270.003
2608.99	306.441
2608.3	269.917
2607.62	277.168
2606.93	266.185
2606.24	284.372
2605.56	273.392
2604.87	298.861
2604.19	280.593
2603.5	258.688
2602.81	335.148
2602.13	291.387
2601.44	287.699
2600.75	258.524
2600.07	320.373
2599.38	269.362
2598.69	280.238
2598.01	232.888
2597.32	276.51
2596.63	276.467
2595.95	276.423
2595.26	298.198
2594.57	261.791
2593.88	254.479
2593.2	308.961
2592.51	290.741
2591.82	247.09
2591.13	232.519
2590.44	316.03
2589.75	308.716
2589.07	305.036
2588.38	301.357
2587.69	297.679
2587	297.631
2586.31	312.1
2585.62	290.28
2584.93	286.606
2584.24	315.579
2583.55	293.768
2582.87	275.591
2582.18	246.542
2581.49	264.628
2580.8	304.455
2580.11	268.168
2579.42	246.386
2578.73	271.706
2578.04	257.174
2577.35	275.241
2576.66	257.092
2575.96	260.672
2575.27	249.771
2574.58	242.493
2573.89	246.073
2573.2	289.452
2572.51	217.054
2571.82	264.041
2571.13	282.081
2570.44	271.188
2569.75	231.377
2569.05	213.267
2568.36	256.603
2567.67	227.654
2566.98	209.552
2566.29	260.093
2565.59	234.769
2564.9	278.066
2564.21	252.747
2563.52	259.927
2562.82	234.619
2562.13	238.191
2561.44	238.153
2560.75	234.508
2560.05	241.685
2559.36	223.613
2558.67	212.759
2557.97	237.964
2557.28	263.161
2556.59	234.284
2555.89	209.02
2555.2	201.78
2554.5	230.57
2553.81	255.747
2553.12	277.316
2552.42	190.849
2551.73	198.02
2551.03	241.186
2550.34	215.953
2549.64	233.911
2548.95	226.678
2548.25	233.837
2547.56	208.621
2546.86	201.395
2546.17	208.555
2545.47	212.117
2544.78	197.705
2544.08	190.485
2543.39	215.609
2542.69	222.761
2541.99	193.986
2541.3	229.873
2540.6	258.566
2539.91	233.391
2539.21	244.124
2538.51	211.78
2537.82	229.69
2537.12	215.3
2536.42	226.029
2535.73	218.819
2535.03	225.957
2534.33	190.061
2533.63	218.714
2532.94	247.359
2532.24	229.398
2531.54	258.031
2530.84	243.657
2530.15	286.61
2529.45	218.505
2528.75	279.356
2528.05	268.569
2527.35	250.624
2526.66	229.105
2525.96	264.861
2525.26	232.611
2524.56	250.464
2523.86	243.269
2523.16	221.769
2522.46	257.497
2521.76	253.88
2521.07	235.964
2520.37	246.65
2519.67	200.148
2518.97	246.571
2518.27	246.532
2517.57	250.065
2516.87	264.312
2516.17	214.273
2515.47	210.668
2514.77	257.046
2514.07	235.588
2513.37	256.964
2512.67	256.923
2511.96	249.746
2511.26	263.975
2510.56	263.933
2509.86	271.023
2509.16	263.849
2508.46	267.372
2507.76	217.427
2507.06	242.339
2506.35	249.427
2505.65	245.825
2504.95	224.413
2504.25	267.115
2503.55	270.634
2502.85	238.547
2502.14	234.949
2501.44	270.504
2500.74	238.433
2500.04	263.301
2499.33	234.799
2498.63	241.875
2497.93	231.167
2497.22	263.133
2496.52	273.757
2495.82	206.174
2495.11	266.561
2494.41	252.304
2493.71	209.628
2493	238.014
2492.3	245.08
2491.6	266.348
2490.89	266.306
2490.19	284.014
2489.48	266.221
2488.78	223.59
2488.07	237.748
2487.37	283.832
2486.66	248.314
2485.96	241.18
2485.25	290.789
2484.55	244.649
2483.84	262.335
2483.14	237.482
2482.43	255.163
2481.73	279.926
2481.02	237.368
2480.32	230.245
2479.61	293.958
2478.9	265.583
2478.2	279.702
2477.49	258.418
2476.79	254.837
2476.08	276.029
2475.37	237.064
2474.67	208.724
2473.96	254.674
2473.25	258.17
2472.55	219.232
2471.84	247.481
2471.13	265.115
2470.42	236.798
2469.72	257.963
2469.01	261.455
2468.3	233.152
2467.59	243.711
2466.89	243.672
2466.18	236.571
2465.47	208.29
2464.76	250.614
2464.05	278.808
2463.34	268.177
2462.64	254.022
2461.93	271.619
2461.22	232.779
2460.51	260.953
2459.8	215.075
2459.09	229.142
2458.38	239.679
2457.67	225.544
2456.96	250.173
2456.25	232.518
2455.54	267.705
2454.83	232.443
2454.12	292.268
2453.41	271.097
2452.7	246.412
2451.99	260.451
2451.28	263.928
2450.57	228.701
2449.86	284.951
2449.15	239.18
2448.44	200.457
2447.73	249.652
2447.02	232.033
2446.31	231.996
2445.59	249.532
2444.88	224.894
2444.17	242.425
2443.46	259.95
2442.75	263.421
2442.04	228.261
2441.32	228.225
2440.61	242.23
2439.9	228.151
2439.19	245.662
2438.48	224.569
2437.76	252.6
2437.05	231.513
2436.34	234.983
2435.62	234.945
2434.91	238.413
2434.2	241.881
2433.48	280.396
2432.77	273.342
2432.06	224.245
2431.34	248.732
2430.63	245.189
2429.92	224.137
2429.2	252.113
2428.49	287.083
2427.77	273.035
2427.06	262.492
2426.35	279.946
2425.63	248.412
2424.92	276.358
2424.2	251.83
2423.49	227.31
2422.77	262.239
2422.06	248.213
2421.34	234.191
2420.63	258.617
2419.91	269.059
2419.2	293.471
2418.48	230.547
2417.76	254.958
2417.05	251.425
2416.33	254.876
2415.62	226.908
2414.9	254.794
2414.18	209.386
2413.47	223.31
2412.75	247.694
2412.03	230.214
2411.32	237.152
2410.6	244.088
2409.88	264.967
2409.16	191.722
2408.45	205.632
2407.73	226.507
2407.01	250.86
2406.3	226.434
2405.58	285.609
2404.86	208.949
2404.14	250.698
2403.42	264.583
2402.71	257.579
2401.99	240.137
2401.27	278.374
2400.55	253.976
2399.83	271.328
2399.11	253.894
2398.39	243.421
2397.67	260.766
2396.96	198.15
2396.24	257.206
2395.52	222.413
2394.8	215.428
2394.08	260.556
2393.36	211.885
2392.64	260.472
2391.92	222.234
2391.2	232.613
2390.48	225.633
2389.76	249.892
2389.04	225.561
2388.32	274.099
2387.6	211.612
2386.87	249.731
2386.15	239.287
2385.43	235.781
2384.71	266.944
2383.99	249.57
2383.27	249.53
2382.55	249.489
2381.83	245.985
2381.1	239.017
2380.38	252.832
2379.66	214.7
2378.94	245.826
2378.22	235.401
2377.49	228.441
2376.77	256.089
2376.05	214.526
2375.33	249.087
2374.6	255.965
2373.88	238.632
2373.16	248.967
2372.43	231.64
2371.71	238.516
2370.99	235.021
2370.26	231.528
2369.54	203.85
2368.82	290.18
2368.09	259.047
2367.37	248.645
2366.65	238.247
2365.92	269.279
2365.2	241.622
2364.47	248.485
2363.75	269.148
2363.02	227.704
2362.3	231.117
2361.57	244.875
2360.85	255.181
2360.12	231.005
2359.4	265.44
2358.67	272.291
2357.95	230.893
2357.22	282.54
2356.5	244.599
2355.77	210.114
2355.05	241.076
2354.32	254.81
2353.59	251.326
2352.87	275.382
2352.14	220.27
2351.41	240.881
2350.69	206.436
2349.96	240.803
2349.23	240.764
2348.51	226.969
2347.78	254.44
2347.05	285.339
2346.33	274.981
2345.6	288.683
2344.87	250.839
2344.14	267.977
2343.41	264.498
2342.69	240.414
2341.96	264.413
2341.23	250.636
2340.5	254.029
2339.77	260.852
2339.05	247.083
2338.32	274.492
2337.59	277.878
2336.86	260.683
2336.13	222.917
2335.4	226.309
2334.67	239.986
2333.94	277.654
2333.21	233.054
2332.48	236.443
2331.75	274.093
2331.02	256.92
2330.29	284.279
2329.56	260.261
2328.83	308.154
2328.1	304.681
2327.37	297.786
2326.64	366.183
2325.91	311.377
2325.18	280.536
2324.45	280.49
2323.72	287.285
2322.99	266.721
2322.26	280.354
2321.53	290.564
2320.79	287.099
2320.06	293.887
2319.33	287.006
2318.6	286.959
2317.87	293.744
2317.14	262.961
2316.4	303.892
2315.67	314.085
2314.94	279.9
2314.21	269.616
2313.47	279.809
2312.74	296.823
2312.01	313.83
2311.27	259.209
2310.54	272.808
2309.81	279.582
2309.08	272.719
2308.34	265.858
2307.61	248.775
2306.87	299.845
2306.14	252.101
2305.41	252.061
2304.67	316.727
2303.94	279.22
2303.2	289.388
2302.47	302.957
2301.74	302.908
2301	296.053
2300.27	296.005
2299.53	312.966
2298.8	306.113
2298.06	272.056
2297.33	282.212
2296.59	234.572
2295.85	309.313
2295.12	271.879
2294.38	329.6
2293.65	285.381
2292.91	278.541
2292.18	309.062
2291.44	251.284
2290.7	295.381
2289.97	285.149
2289.23	271.526
2288.49	288.45
2287.76	261.259
2287.02	284.964
2286.28	274.742
2285.54	301.828
2284.81	311.951
2284.07	284.779
2283.33	277.953
2282.59	284.686
2281.86	318.525
2281.12	257.489
2280.38	267.61
2279.64	284.501
2278.9	291.227
2278.17	318.267
2277.43	250.51
2276.69	257.238
2275.95	301.191
2275.21	267.305
2274.47	280.794
2273.73	280.749
2272.99	270.557
2272.26	307.709
2271.52	304.278
2270.78	287.327
2270.04	277.141
2269.3	344.68
2268.56	290.565
2267.82	293.896
2267.08	300.603
2266.34	270.161
2265.6	273.494
2264.86	270.073
2264.11	307.158
2263.37	293.609
2262.63	296.935
2261.89	307.008
2261.15	259.734
2260.41	296.79
2259.67	316.975
2258.93	300.065
2258.18	310.129
2257.44	286.486
2256.7	313.398
2255.96	296.501
2255.22	259.396
2254.47	316.613
2253.73	316.562
2252.99	329.979
2252.25	319.825
2251.5	319.773
2250.76	259.142
2250.02	292.749
2249.28	336.439
2248.53	302.746
2247.79	319.513
2247.05	285.833
2246.3	316.046
2245.56	302.548
2244.81	329.388
2244.07	339.416
2243.33	302.4
2242.58	292.273
2241.84	309.019
2241.09	272.027
2240.35	308.919
2239.6	308.868
2238.86	302.105
2238.12	315.48
2237.37	295.295
2236.63	301.957
2235.88	295.198
2235.13	335.398
2234.39	352.11
2233.64	328.583
2232.9	331.882
2232.15	338.531
2231.41	311.666
2230.66	341.771
2229.91	328.315
2229.17	355.058
2228.42	281.321
2227.67	274.578
2226.93	294.621
2226.18	281.183
2225.43	314.606
2224.69	271.052
2223.94	301.12
2223.19	301.071
2222.44	297.677
2221.7	284.252
2220.95	274.175
2220.2	327.619
2219.45	310.853
2218.71	267.356
2217.96	277.337
2217.21	297.337
2216.46	287.267
2215.71	307.259
2214.96	287.173
2214.21	340.545
2213.47	297.094
2212.72	250.319
2211.97	243.604
2211.22	313.631
2210.47	286.892
2209.72	276.839
2208.97	290.133
2208.22	336.766
2207.47	276.703
2206.72	336.656
2205.97	316.605
2205.22	276.567
2204.47	289.848
2203.72	306.456
2202.97	316.398
2202.22	313.016
2201.47	319.624
2200.71	339.545
2199.96	266.266
2199.21	299.5
2198.46	272.833
2197.71	299.402
2196.96	299.353
2196.21	302.63
2195.45	249.379
2194.7	312.504
2193.95	279.213
2193.2	289.138
2192.45	295.736
2191.69	305.655
2190.94	295.64
2190.19	348.731
2189.44	315.467
2188.68	351.937
2187.93	341.921
2187.18	298.717
2186.42	361.72
2185.67	298.619
2184.92	318.475
2184.16	325.056
2183.41	358.167
2182.65	358.108
2181.9	295.059
2181.15	308.27
2180.39	298.277
2179.64	351.246
2178.88	357.815
2178.13	364.381
2177.37	361.009
2176.62	321.213
2175.86	307.916
2175.11	297.935
2174.35	321.055
2173.6	321.002
2172.84	304.406
2172.09	320.897
2171.33	324.152
2170.57	287.72
2169.82	304.206
2169.06	327.298
2168.31	307.412
2167.55	333.801
2166.79	287.484
2166.04	323.78
2165.28	323.727
2164.52	333.582
2163.76	293.9
2163.01	277.344
2162.25	293.804
2161.49	339.964
2160.74	300.308
2159.98	287.06
2159.22	296.91
2158.46	316.652
2157.7	316.6
2156.95	339.63
2156.19	342.871
2155.43	283.481
2154.67	303.209
2153.91	263.617
2153.15	309.699
2152.39	342.589
2151.63	256.9
2150.88	296.374
2150.12	299.618
2149.36	283.109
2148.6	335.725
2147.84	361.997
2147.08	279.679
2146.32	328.98
2145.56	319.059
2144.8	332.161
2144.04	335.395
2143.28	348.49
2142.52	345.146
2141.76	299.077
2140.99	315.458
2140.23	321.977
2139.47	344.919
2138.71	312.018
2137.95	302.115
2137.19	334.899
2136.43	282.319
2135.67	295.402
2134.9	321.607
2134.14	334.679
2133.38	334.624
2132.62	406.73
2131.86	341.073
2131.09	334.458
2130.33	363.91
2129.57	337.626
2128.81	311.352
2128.04	308.024
2127.28	314.526
2126.52	314.474
2125.75	353.725
2124.99	340.568
2124.23	297.948
2123.46	340.456
2122.7	376.404
2121.93	317.436
2121.17	359.92
2120.41	386.032
2119.64	349.988
2118.88	356.472
2118.11	349.873
2117.35	353.085
2116.58	366.102
2115.82	379.114
2115.05	316.966
2114.29	313.647
2113.52	362.594
2112.76	349.47
2111.99	329.819
2111.23	349.355
2110.46	378.678
2109.69	355.768
2108.93	310.022
2108.16	368.702
2107.4	352.329
2106.63	352.271
2105.86	300.034
2105.1	352.155
2104.33	365.138
2103.56	368.337
2102.79	342.204
2102.03	404.06
2101.26	342.091
2100.49	364.837
2099.73	384.318
2098.96	380.999
2098.19	354.889
2097.42	358.086
2096.65	371.046
2095.89	315.662
2095.12	413.222
2094.35	364.356
2093.58	295.99
2092.81	331.715
2092.04	347.918
2091.27	328.354
2090.5	412.813
2089.74	383.495
2088.97	347.688
2088.2	425.604
2087.43	376.809
2086.66	392.985
2085.89	402.662
2085.12	318.181
2084.35	402.53
2083.58	347.287
2082.81	418.622
2082.04	382.863
2081.27	347.115
2080.49	363.275
2079.72	398.888
2078.95	372.882
2078.18	395.514
2077.41	363.035
2076.64	388.902
2075.87	372.636
2075.1	395.253
2074.32	385.47
2073.55	385.406
2072.78	411.248
2072.01	369.091
2071.24	369.03
2070.46	368.969
2069.69	336.547
2068.92	342.963
2068.14	404.37
2067.37	397.835
2066.6	388.067
2065.83	430.037
2065.05	323.282
2064.28	381.41
2063.51	426.592
2062.73	455.602
2061.96	419.989
2061.18	406.999
2060.41	419.85
2059.64	416.552
2058.86	387.426
2058.09	397.046
2057.31	487.35
2056.54	403.368
2055.76	380.717
2054.99	480.656
2054.21	399.943
2053.44	419.226
2052.66	448.175
2051.89	431.982
2051.11	415.794
2050.33	431.839
2049.56	441.434
2048.78	399.48
2048.01	399.414
2047.23	431.553
2046.45	447.581
2045.68	447.507
2044.9	440.995
2044.12	376.554
2043.35	421.542
2042.57	463.298
2041.79	443.92
2041.02	405.251
2040.24	430.91
2039.46	411.547
2038.68	472.558
2037.91	427.482
2037.13	449.906
2036.35	395.209
2035.57	449.757
2034.79	401.502
2034.01	430.339
2033.24	417.424
2032.46	459.09
2031.68	516.792
2030.9	458.938
2030.12	449.235
2029.34	532.577
2028.56	445.879
2027.78	461.841
2027	481.005
2026.22	461.688
2025.44	464.817
2024.66	461.535
2023.88	483.89
2023.1	487.014
2022.32	467.712
2021.54	522.085
2020.76	441.937
2019.98	454.672
2019.2	464.2
2018.42	476.927
2017.64	432.043
2016.86	550.363
2016.07	492.685
2015.29	470.213
2014.51	534.098
2013.73	553.196
2012.95	543.513
2012.16	514.653
2011.38	524.156
2010.6	517.678
2009.82	469.666
2009.04	552.645
2008.25	533.389
2007.47	542.881
2006.69	478.933
2005.9	533.124
2005.12	488.35
2004.34	523.373
2003.55	516.904
2002.77	510.438
2001.99	523.112
2001.2	507.079
2000.42	535.693
1999.63	557.92
1998.85	525.952
1998.07	580.044
1997.28	516.217
1996.5	560.735
1995.71	567.013
1994.93	566.919
1994.14	538.165
1993.36	553.995
1992.57	598.47
1991.79	541.079
1991	563.265
1990.21	572.717
1989.43	620.34
1988.64	613.876
1987.86	613.774
1987.07	588.234
1986.28	565.883
1985.5	632.539
1984.71	565.694
1983.92	594.198
1983.14	625.869
1982.35	562.236
1981.56	616.133
1980.77	568.399
1979.99	625.453
1979.2	669.789
1978.41	587.158
1977.62	647.353
1976.84	609.172
1976.05	599.554
1975.26	605.798
1974.47	618.382
1973.68	640.473
1972.89	668.898
1972.11	614.903
1971.32	624.308
1970.53	652.721
1969.74	693.796
1968.95	652.503
1968.16	712.567
1967.37	696.616
1966.58	712.33
1965.79	677.392
1965	718.422
1964.21	677.166
1963.42	756.148
1962.63	714.9
1961.84	676.827
1961.05	683.039
1960.26	682.925
1959.47	660.683
1958.68	685.858
1957.89	733.145
1957.09	698.268
1956.3	720.265
1955.51	694.876
1954.72	732.656
1953.93	723.062
1953.14	716.627
1952.34	760.698
1951.55	697.453
1950.76	725.735
1949.97	681.446
1949.18	763.345
1948.38	813.678
1947.59	782.009
1946.8	762.962
1946	803.814
1945.21	709.129
1944.42	828.755
1943.62	803.411
1942.83	815.878
1942.04	781.096
1941.24	790.413
1940.45	818.618
1939.65	777.557
1938.86	805.754
1938.07	830.795
1937.27	811.778
1936.48	799.059
1935.68	849.252
1934.89	817.661
1934.09	820.669
1933.3	889.695
1932.5	817.251
1931.71	839.114
1930.91	901.818
1930.11	788.567
1929.32	860.682
1928.52	873.101
1927.73	813.292
1926.93	860.25
1926.13	834.994
1925.34	803.469
1924.54	831.577
1923.74	831.438
1922.95	815.614
1922.15	871.934
1921.35	887.467
1920.55	862.236
1919.76	899.71
1918.96	818.066
1918.16	896.275
1917.36	849.126
1916.57	899.108
1915.77	905.222
1914.97	817.382
1914.17	892.395
1913.37	882.853
1912.57	910.877
1911.77	901.336
1910.98	932.476
1910.18	904.163
1909.38	878.987
1908.58	894.477
1907.78	891.201
1906.98	937.949
1906.18	947.17
1905.38	897.004
1904.58	934.353
1903.78	909.201
1902.98	965.279
1902.18	958.871
1901.38	949.341
1900.58	917.959
1899.78	942.78
1898.98	933.258
1898.17	976.792
1897.37	954.787
1896.57	951.507
1895.77	926.395
1894.97	988.612
1894.17	1004.04
1893.37	982.046
1892.56	925.774
1891.76	972.367
1890.96	937.928
1890.16	906.615
1889.35	959.418
1888.55	959.257
1887.75	990.236
1886.95	986.956
1886.14	1002.36
1885.34	1011.52
1884.54	933.558
1883.73	983.183
1882.93	970.575
1882.12	1079.27
1881.32	976.469
1880.52	1022.94
1879.71	1007.23
1878.91	1056.79
1878.1	975.814
1877.3	1022.26
1876.49	994.126
1875.69	1015.7
1874.88	1012.43
1874.08	1006.05
1873.27	984.146
1872.47	925.004
1871.66	931.055
1870.86	1045.71
1870.05	986.587
1869.25	1029.85
1868.44	1011.07
1867.63	970.586
1866.83	1078.94
1866.02	985.759
1865.21	979.395
1864.41	1022.61
1863.6	1056.52
1862.79	1068.74
1861.99	1034.49
1861.18	1077.67
1860.37	987.697
1859.56	1086.59
1858.76	1027.6
1857.95	1030.52
1857.14	1055.1
1856.33	989.961
1855.52	1101.15
1854.72	992.721
1853.91	1106.96
1853.1	1035.67
1852.29	1078.77
1851.48	1087.86
1850.67	1001.16
1849.86	1146.19
1849.05	1071.87
1848.24	1043.89
1847.43	1077.68
1846.62	1074.41
1845.81	1021.75
1845	1024.67
1844.19	1049.18
1843.38	1166.25
1842.57	1042.66
1841.76	1020.9
1840.95	1057.73
1840.14	1054.47
1839.33	1023.46
1838.52	1091.1
1837.71	1084.75
1836.9	1053.76
1836.09	1093.63
1835.27	1078.04
1834.46	1111.74
1833.65	1160.82
1832.84	1126.76
1832.03	1034.23
1831.21	1043.28
1830.4	1104.65
1829.59	1165.99
1828.78	1024.3
1827.96	1113.32
1827.15	1110.05
1826.34	1146.76
1825.52	1063.57
1824.71	1115.64
1823.9	1146.18
1823.08	1041.53
1822.27	1179.59
1821.45	1117.96
1820.64	1136.2
1819.83	1142.15
1819.01	1040.65
1818.2	1104.93
1817.38	1159.98
1816.57	1086.15
1815.75	1119.71
1814.94	1085.78
1814.12	1199.06
1813.31	1143.67
1812.49	1125.09
1811.68	1118.77
1810.86	1100.19
1810.04	1109.2
1809.23	1069.18
1808.41	1114.95
1807.6	1117.82
1806.78	1142.13
1805.96	1135.81
1805.15	1111.13
1804.33	1107.89
1803.51	1107.7
1802.69	1156.46
1801.88	1174.62
1801.06	1177.48
1800.24	1094.72
1799.42	1109.82
1798.61	1106.58
1797.79	1195.02
1796.97	1106.2
1796.15	1112.13
1795.33	1188.31
1794.52	1133.13
1793.7	1099.35
1792.88	1132.75
1792.06	1166.14
1791.24	1223.93
1790.42	1174.9
1789.6	1214.37
1788.78	1211.11
1787.96	1146.85
1787.14	1131.41
1786.32	1109.88
1785.5	1149.32
1784.68	1185.7
1783.86	1240.36
1783.04	1130.46
1782.22	1200.33
1781.4	1114.84
1780.58	1187.75
1779.76	1099.24
1778.94	1138.63
1778.12	1190.19
1777.29	1211.29
1776.47	1141.1
1775.65	1232.18
1774.83	1192.43
1774.01	1137.48
1773.19	1240.68
1772.36	1185.74
1771.54	1170.34
1770.72	1185.34
1769.9	1115.24
1769.07	1139.36
1768.25	1190.81
1767.43	1266.54
1766.6	1196.48
1765.78	1208.42
1764.96	1247.68
1764.13	1208.02
1763.31	1192.64
1762.49	1207.61
1761.66	1213.47
1760.84	1255.73
1760.01	1200.93
1759.19	1218.92
1758.36	1200.52
1757.54	1194.26
1756.71	1266.79
1755.89	1230.21
1755.06	1233.03
1754.24	1196.48
1753.41	1235.64
1752.59	1220.29
1751.76	1226.14
1750.94	1228.96
1750.11	1298.36
1749.28	1222.49
1748.46	1189.01
1747.63	1306.78
1746.8	1315.63
1745.98	1288.19
1745.15	1227.51
1744.32	1248.46
1743.5	1305.67
1742.67	1272.21
1741.84	1226.67
1741.01	1217.4
1740.19	1223.24
1739.36	1256.25
1738.53	1219.8
1737.7	1337.33
1736.87	1285.79
1736.05	1264.45
1735.22	1339.67
1734.39	1233.85
1733.56	1245.71
1732.73	1275.65
1731.9	1263.38
1731.07	1214.93
1730.24	1299.12
1729.41	1298.9
1728.58	1265.53
1727.75	1343.65
1726.92	1334.38
1726.09	1307.05
1725.26	1300.81
1724.43	1351.77
1723.6	1336.49
1722.77	1369.36
1721.94	1269.83
1721.11	1281.65
1720.28	1371.67
1719.45	1290.24
1718.62	1431.35
1717.78	1370.98
1716.95	1346.69
1716.12	1322.42
1715.29	1310.18
1714.46	1355.02
1713.62	1351.79
1712.79	1414.63
1711.96	1345.32
1711.13	1402.14
1710.29	1446.93
1709.46	1371.65
1708.63	1311.4
1707.79	1461.19
1706.96	1409.95
1706.13	1424.7
1705.29	1436.46
1704.46	1463.2
1703.63	1450.96
1702.79	1420.74
1701.96	1399.52
1701.12	1462.2
1700.29	1512.88
1699.45	1461.71
1698.62	1593.23
1697.78	1473.19
1696.95	1440
1696.11	1451.73
1695.28	1448.49
1694.44	1505.1
1693.61	1439.02
1692.77	1471.68
1691.94	1408.63
1691.1	1483.14
1690.26	1497.84
1689.43	1458.72
1688.59	1467.44
1687.75	1509.03
1686.92	1478.89
1686.08	1595.14
1685.24	1457.48
1684.41	1567.72
1683.57	1528.64
1682.73	1492.56
1681.89	1540.06
1681.06	1557.7
1680.22	1569.37
1679.38	1503.47
1678.54	1547.96
1677.7	1476.12
1676.87	1484.82
1676.03	1538.22
1675.19	1496.23
1674.35	1552.6
1673.51	1459.97
1672.67	1525.26
1671.83	1468.41
1670.99	1569.41
1670.15	1453.02
1669.31	1607.57
1668.47	1547.77
1667.63	1523.7
1666.79	1526.41
1665.95	1502.35
1665.11	1534.82
1664.27	1594.03
1663.43	1534.29
1662.59	1578.62
1661.75	1527.82
1660.91	1575.11
1660.07	1557.02
1659.22	1562.69
1658.38	1612.92
1657.54	1588.89
1656.7	1550.01
1655.86	1526
1655.01	1576.2
1654.17	1534.38
1653.33	1587.53
1652.49	1510.12
1651.64	1500.97
1650.8	1562.99
1649.96	1633.89
1649.12	1500.2
1648.27	1571.08
1647.43	1636.02
1646.58	1653.52
1645.74	1564.35
1644.9	1590.75
1644.05	1575.67
1643.21	1616.85
1642.36	1584.01
1641.52	1613.34
1640.67	1598.27
1639.83	1606.87
1638.99	1523.75
1638.14	1635.9
1637.29	1614.92
1636.45	1614.65
1635.6	1655.76
1634.76	1673.22
1633.91	1628.6
1633.07	1634.23
1632.22	1642.81
1631.37	1618.9
1630.53	1627.48
1629.68	1659.69
1628.83	1680.07
1627.99	1570.56
1627.14	1641.13
1626.29	1634.94
1625.45	1664.17
1624.6	1601.93
1623.75	1645.9
1622.9	1737.04
1622.06	1601.11
1621.21	1621.47
1620.36	1600.56
1619.51	1609.13
1618.66	1667.79
1617.81	1688.12
1616.97	1717.29
1616.12	1628.64
1615.27	1654.87
1614.42	1631.03
1613.57	1630.75
1612.72	1656.96
1611.87	1721.41
1611.02	1674.04
1610.17	1629.63
1609.32	1661.71
1608.47	1617.31
1607.62	1622.92
1606.77	1634.4
1605.92	1713.47
1605.07	1680.85
1604.22	1704.07
1603.37	1636.21
1602.52	1703.48
1601.66	1670.89
1600.81	1673.54
1599.96	1670.32
1599.11	1643.62
1598.26	1707.89
1597.4	1666.52
1596.55	1698.51
1595.7	1704.08
1594.85	1592.35
1594	1732.82
1593.14	1679.75
1592.29	1773.26
1591.44	1676.25
1590.58	1778.51
1589.73	1707.9
1588.88	1710.53
1588.02	1733.67
1587.17	1718.73
1586.31	1674.52
1585.46	1738.63
1584.61	1697.36
1583.75	1688.29
1582.9	1673.37
1582.04	1749.13
1581.19	1789.78
1580.33	1663.74
1579.48	1721.92
1578.62	1777.16
1577.77	1803.16
1576.91	1729.8
1576.06	1723.66
1575.2	1802.23
1574.34	1793.16
1573.49	1851.25
1572.63	1812.98
1571.77	1795.15
1570.92	1765.66
1570.06	1747.85
1569.2	1797.15
1568.35	1788.09
1567.49	1802.36
1566.63	1831.21
1565.78	1728.86
1564.92	1769.37
1564.06	1839.01
1563.2	1783.33
1562.34	1739.32
1561.49	1806.02
1560.63	1756.2
1559.77	1694.75
1558.91	1845.85
1558.05	1772.76
1557.19	1859.77
1556.33	1757.6
1555.47	1812.57
1554.61	1864.62
1553.75	1843.94
1552.89	1922.14
1552.03	1817.14
1551.17	1799.39
1550.31	1889.18
1549.45	1917.91
1548.59	1911.77
1547.73	1824.29
1546.87	1786.22
1546.01	1855.61
1545.15	1832.06
1544.29	1869.48
1543.43	1909.8
1542.57	1845.63
1541.71	1856.91
1540.84	1923.31
1539.98	1833.07
1539.12	1913.95
1538.26	1846.94
1537.39	1919.09
1536.53	1898.47
1535.67	1982.18
1534.81	1964.46
1533.94	1978.6
1533.08	1888.47
1532.22	1896.84
1531.35	2009.43
1530.49	1881.71
1529.63	1878.49
1528.76	1892.63
1527.9	1851.8
1527.03	1918.02
1526.17	1981.32
1525.31	1902.9
1524.44	2018.23
1523.58	2006.31
1522.71	1956.83
1521.85	1968.05
1520.98	1883.92
1520.12	1976.04
1519.25	1935.26
1518.38	1903.16
1517.52	1920.16
1516.65	1914.05
1515.79	2075.36
1514.92	1875.87
1514.05	2031.37
1513.19	1990.63
1512.32	2033.55
1511.45	2064.92
1510.59	2012.66
1509.72	2018.08
1508.85	2055.2
1507.98	2000.09
1507.12	1919.07
1506.25	2022.45
1505.38	2085.47
1504.51	2053.43
1503.65	2041.56
1502.78	1983.63
1501.91	2069.64
1501.04	2112.45
1500.17	2045.9
1499.3	2137.61
1498.43	2145.87
1497.56	2128.25
1496.69	2113.5
1495.82	2101.64
1494.95	2121.39
1494.08	2046.3
1493.21	2172.38
1492.34	2186.37
1491.47	2128.54
1490.6	2277.52
1489.73	2196.73
1488.86	2184.86
1487.99	2201.71
1487.12	2304.65
1486.25	2243.99
1485.38	2260.82
1484.51	2392.38
1483.63	2443.59
1482.76	2403.02
1481.89	2502.95
1481.02	2470.99
1480.15	2418.97
1479.27	2507.38
1478.4	2518.41
1477.53	2664.07
1476.66	2749.53
1475.78	2892.23
1474.91	2817.29
1474.04	2888.37
1473.16	3048.15
1472.29	3176.39
1471.42	3421.9
1470.54	3601.53
1469.67	3735.33
1468.79	4083.56
1467.92	4240.1
1467.04	4539.53
1466.17	4887.43
1465.29	5435.26
1464.42	5868.6
1463.54	6267.52
1462.67	6800.54
1461.79	7430.46
1460.92	8311.42
1460.04	8529.79
1459.17	8847.98
1458.29	9046.21
1457.41	8762.18
1456.54	8809.15
1455.66	8436.84
1454.78	8127.39
1453.91	7832.3
1453.03	7303.56
1452.15	7151.23
1451.28	6785.23
1450.4	6519.07
1449.52	6224.52
1448.64	5964.25
1447.77	5820.82
1446.89	5520.85
1446.01	5431.64
1445.13	5188.77
1444.25	5230.55
1443.37	5127.22
1442.5	5370.98
1441.62	5441.15
1440.74	5602.31
1439.86	5666.73
1438.98	5867.59
1438.1	6199.12
1437.22	6360.03
1436.34	6398.7
1435.46	6414.64
1434.58	6402.16
1433.7	6349.93
1432.82	5979.71
1431.94	5484.71
1431.06	5009.75
1430.18	4404.41
1429.3	4006.41
1428.41	3758.9
1427.53	3474.6
1426.65	3289.67
1425.77	3303.27
1424.89	3118.43
1424.01	3086.71
1423.12	2941.64
1422.24	2994.96
1421.36	3002.94
1420.48	2985.42
1419.59	2984.91
1418.71	3015.53
1417.83	3054.64
1416.94	3170.16
1416.06	3282.81
1415.18	3236.97
1414.29	3120.41
1413.41	3035.02
1412.53	2912.88
1411.64	2737.07
1410.76	2722.46
1409.87	2659.8
1408.99	2616.94
1408.1	2616.49
1407.22	2556.71
1406.33	2581.68
1405.45	2668.78
1404.56	2546.9
1403.68	2732.78
1402.79	2588.35
1401.91	2596.37
1401.02	2674.92
1400.13	2651.89
1399.25	2679.63
1398.36	2634.04
1397.47	2658.96
1396.59	2540.09
1395.7	2677.77
1394.81	2728.03
1393.93	2648.66
1393.04	2665.1
1392.15	2659
1391.26	2697.97
1390.38	2669.34
1389.49	2682.95
1388.6	2674.04
1387.71	2645.43
1386.82	2718.13
1385.93	2824.56
1385.04	2739.68
1384.16	2947.32
1383.27	2783.72
1382.38	2963.16
1381.49	3024.48
1380.6	3066.11
1379.71	3102.1
1378.82	3070.66
1377.93	3224.61
1377.04	3316.72
1376.15	3386.34
1375.26	3514.9
1374.37	3329.02
1373.48	3252.67
1372.59	3434.49
1371.69	3442.31
1370.8	3741.84
1369.91	3626.2
1369.02	3502.19
1368.13	3596.9
1367.24	3498.17
1366.34	3489.15
1365.45	3555.79
1364.56	3860.54
1363.67	3750.62
1362.77	3909.6
1361.88	4118.92
1360.99	4311.38
1360.1	4540.15
1359.2	4710.07
1358.31	4712.05
1357.42	4666.46
1356.52	4573.34
1355.63	4273.3
1354.73	3981.75
1353.84	3813.31
1352.95	3695.25
1352.05	3468.23
1351.16	3397.77
1350.26	3447.46
1349.37	3187.09
1348.47	3320.58
1347.58	3356.3
1346.68	3263.59
1345.78	3299.3
1344.89	3323.84
1343.99	3273.04
1343.1	3423.12
1342.2	3319.31
1341.3	3335.46
1340.41	3410.17
1339.51	3412.36
1338.61	3512.11
1337.72	3639.69
1336.82	3705.93
1335.92	3872.43
1335.02	4225.51
1334.13	4467.06
1333.23	4864.46
1332.33	5295.12
1331.43	6104.19
1330.53	6606.84
1329.64	7114.89
1328.74	7230.49
1327.84	7053.98
1326.94	6777.42
1326.04	6250.71
1325.14	5604.64
1324.24	5145.02
1323.34	4680.01
1322.44	4404.11
1321.54	4078.3
1320.64	3824.82
1319.74	3671.4
1318.84	3493.05
1317.94	3578.5
1317.04	3416.88
1316.14	3316.38
1315.24	3229.78
1314.34	3140.44
1313.44	3053.9
1312.54	3061.69
1311.63	3138.79
1310.73	3021.8
1309.83	2963.06
1308.93	3056.77
1308.03	3050.69
1307.12	3194.21
1306.22	3171.5
1305.32	3234.64
1304.41	3372.51
1303.51	3316.55
1302.61	3415.62
1301.71	3362.44
1300.8	3229.03
1299.9	3281.03
1298.99	3476.84
1298.09	3561.96
1297.19	3774.24
1296.28	4080.44
1295.38	4615.95
1294.47	5187.19
1293.57	5208.39
1292.66	4770.98
1291.76	4126.58
1290.85	3648.09
1289.95	3051.05
1289.04	2746.84
1288.14	2691.16
1287.23	2594.09
1286.32	2579.84
1285.42	2411.11
1284.51	2236.92
1283.6	2283.41
1282.7	2318.85
1281.79	2144.77
1280.88	2103.04
1279.98	2121.97
1279.07	2116.08
1278.16	2000.01
1277.25	2038.22
1276.35	1966.26
1275.44	2045.76
1274.53	1979.33
1273.62	1929.44
1272.71	1959.37
1271.81	1904
1270.9	1889.91
1269.99	1853.82
1269.08	1834.24
1268.17	1853.17
1267.26	1872.09
1266.35	1745.32
1265.44	1816.47
1264.53	1777.68
1263.62	1854.29
1262.71	1735.86
1261.8	1897.57
1260.89	1784.67
1259.98	1765.14
1259.07	1880.1
1258.16	1852.33
1257.25	1772.44
1256.33	1881.85
1255.42	1985.75
1254.51	1925.07
1253.6	1941.18
1252.69	1938.09
1251.78	1943.24
1250.86	1808.62
1249.95	1794.6
1249.04	1753.19
1248.12	1780.27
1247.21	1716.98
1246.3	1683.82
1245.39	1680.78
1244.47	1592.91
1243.56	1661.04
1242.64	1586.87
1241.73	1559.24
1240.82	1558.96
1239.9	1643.46
1238.99	1626.76
1238.07	1577.27
1237.16	1631.66
1236.24	1530.26
1235.33	1560.05
1234.41	1587.09
1233.5	1564.96
1232.58	1583.8
1231.67	1498.88
1230.75	1637.83
1229.84	1648.46
1228.92	1724.58
1228	1735.19
1227.09	1792.16
1226.17	1827.3
1225.25	1955.14
1224.34	2031.13
1223.42	2218.86
1222.5	2248.45
1221.58	2438.8
1220.67	2533.72
1219.75	2740.29
1218.83	2791.55
1217.91	2725.71
1216.99	2687.11
1216.08	2583.2
1215.16	2460.28
1214.24	2378.21
1213.32	2211.83
1212.4	2067.28
1211.48	1982.61
1210.56	1838.14
1209.64	1818.79
1208.72	1731.48
1207.8	1682.26
1206.88	1630.33
1205.96	1627.33
1205.04	1635.19
1204.12	1534.42
1203.2	1588.45
1202.28	1523.01
1201.36	1598.75
1200.44	1457.34
1199.52	1508.64
1198.59	1568.06
1197.67	1480.98
1196.75	1437.33
1195.83	1488.59
1194.91	1518.15
1193.98	1393.2
1193.06	1452.57
1192.14	1479.41
1191.22	1541.46
1190.29	1432.84
1189.37	1435.3
1188.45	1405.26
1187.52	1375.23
1186.6	1434.54
1185.68	1493.82
1184.75	1450.26
1183.83	1463.53
1182.9	1395.65
1181.98	1400.81
1181.05	1457.35
1180.13	1511.15
1179.21	1481.16
1178.28	1588.99
1177.35	1583.3
1176.43	1593.83
1175.5	1688.08
1174.58	1793.1
1173.65	1973.68
1172.73	2070.51
1171.8	2296.86
1170.87	2606.78
1169.95	2878.83
1169.02	3250.58
1168.09	3392.95
1167.17	3473.25
1166.24	3429.5
1165.31	3296.8
1164.38	3201.88
1163.46	3112.39
1162.53	3028.32
1161.6	2949.66
1160.67	2787.54
1159.74	3010.55
1158.81	3063.86
1157.89	3149.46
1156.96	3194.65
1156.03	3449.72
1155.1	3973.74
1154.17	4236.65
1153.24	4728.07
1152.31	4953.1
1151.38	5014.06
1150.45	4894.9
1149.52	4759.65
1148.59	4207.96
1147.66	3836.46
1146.73	3432.86
1145.8	3056.26
1144.87	2687.85
1143.94	2402.8
1143	2313.79
1142.07	2079.9
1141.14	1985.61
1140.21	2025.5
1139.28	1858.84
1138.34	1786.1
1137.41	1726.79
1136.48	1691.63
1135.55	1656.49
1134.61	1677.63
1133.68	1712.17
1132.75	1735.97
1131.81	1925.84
1130.88	2153.13
1129.95	2217.01
1129.01	2361.17
1128.08	2344.7
1127.15	2528.93
1126.21	2290.35
1125.28	2252.49
1124.34	2027.41
1123.41	1893.34
1122.47	1753.97
1121.54	1686.83
1120.6	1515.47
1119.67	1461.75
1118.73	1426.76
1117.79	1365.07
1116.86	1340.78
1115.92	1289.81
1114.99	1316.28
1114.05	1254.65
1113.11	1326.49
1112.18	1307.57
1111.24	1275.32
1110.3	1229.75
1109.36	1394.89
1108.43	1333.31
1107.49	1338.4
1106.55	1332.83
1105.61	1391.23
1104.67	1390.98
1103.74	1478.65
1102.8	1531.66
1101.86	1523.4
1100.92	1488.51
1099.98	1528.18
1099.04	1469.35
1098.1	1421.18
1097.16	1330.46
1096.22	1266.37
1095.28	1316.69
1094.34	1300.49
1093.4	1329.51
1092.46	1212.3
1091.52	1281.19
1090.58	1291.59
1089.64	1240.88
1088.7	1208.78
1087.76	1243.09
1086.82	1258.8
1085.88	1229.37
1084.93	1335.34
1083.99	1308.56
1083.05	1326.91
1082.11	1286.87
1081.17	1286.64
1080.22	1299.67
1079.28	1296.79
1078.34	1232.92
1077.39	1314.88
1076.45	1293.44
1075.51	1311.76
1074.56	1345.97
1073.62	1263.61
1072.68	1337.55
1071.73	1334.66
1070.79	1339.72
1069.84	1368.6
1068.9	1265.13
1067.95	1378.69
1067.01	1523.96
1066.06	1677.12
1065.12	1914.85
1064.17	1980.62
1063.23	2294.89
1062.28	2334.13
1061.34	2439.43
1060.39	2343.87
1059.44	2166.43
1058.5	1975.86
1057.55	1782.71
1056.6	1689.97
1055.66	1615.74
1054.71	1536.27
1053.76	1396.12
1052.82	1424.89
1051.87	1419.36
1050.92	1384.82
1049.97	1381.93
1049.02	1434.42
1048.08	1584.44
1047.13	1563.07
1046.18	1678.74
1045.23	1807.55
1044.28	1786.15
1043.33	1964.95
1042.38	1909.29
1041.43	1937.91
1040.48	2016.54
1039.53	2031.97
1038.58	2142.14
1037.63	2241.74
1036.68	2243.97
1035.73	2372.45
1034.78	2214.24
1033.83	2113.93
1032.88	1961.08
1031.93	1892.39
1030.98	1681.83
1030.03	1510.74
1029.07	1450.06
1028.12	1334.23
1027.17	1355
1026.22	1346.88
1025.27	1275.76
1024.31	1236.17
1023.36	1175.59
1022.41	1246.22
1021.46	1172.55
1020.5	1232.66
1019.55	1082.97
1018.59	1166.67
1017.64	1114.04
1016.69	1147.91
1015.73	1118.88
1014.78	1102.96
1013.82	1142.05
1012.87	1162.8
1011.92	1178.3
1010.96	1115.26
1010.01	1136
1009.05	1188.14
1008.09	1229.79
1007.14	1216.49
1006.18	1292.12
1005.23	1294.51
1004.27	1417.17
1003.31	1505.79
1002.36	1787.81
1001.4	1980.87
1000.44	2160.8
999.488	2664.6
998.53	2940.98
997.573	2963.95
996.616	2898.15
995.658	2516.5
994.7	2236.78
993.742	1946.72
992.784	1690.68
991.825	1481.69
990.867	1356.23
989.908	1220.39
988.949	1217.56
987.99	1110.47
987.031	1120.69
986.072	1099.64
985.112	1039.52
984.152	1114.88
983.192	1075.61
982.232	1132.7
981.272	1171.55
980.312	1252.03
979.351	1379.33
978.39	1595.05
977.429	1763.87
976.468	1969.04
975.507	2395.19
974.545	2810.79
973.584	3091.05
972.622	3194.47
971.66	3204.29
970.698	2868.53
969.735	2444.57
968.773	1945.43
967.81	1760.7
966.847	1591.62
965.884	1479.7
964.921	1344.47
963.958	1222.26
962.994	1175.34
962.03	1073.96
961.067	1107.48
960.103	1086.54
959.138	1070.79
958.174	1029.12
957.209	1039.3
956.244	1002.83
955.28	981.926
954.314	1010.24
953.349	984.162
952.384	983.985
951.418	1035.59
950.452	999.162
949.486	1035.21
948.52	1027.26
947.554	1125.39
946.587	1179.51
945.621	1205.16
944.654	1235.97
943.687	1341.74
942.719	1491.41
941.752	1584.18
940.785	1568.39
939.817	1653.36
938.849	1627.23
937.881	1557.21
936.913	1456.24
935.944	1334.64
934.976	1184.7
934.007	1055.46
933.038	1024.31
932.069	1031.86
931.099	972.353
930.13	985.071
929.16	904.967
928.19	850.67
927.22	907.218
926.25	878.709
925.28	904.314
924.309	893.847
923.339	880.809
922.368	847.175
921.397	901.087
920.426	831.424
919.454	867.305
918.483	895.453
917.511	903.009
916.539	869.407
915.567	912.97
914.595	920.519
913.622	886.932
912.649	884.201
911.677	899.461
910.704	917.284
909.731	917.119
908.757	952.912
907.784	960.444
906.81	1045
905.836	1108.99
904.862	1070.29
903.888	1144.51
902.914	1305.95
901.939	1382.67
900.964	1497.83
899.989	1569.36
899.014	1794.7
898.039	1607.25
897.063	1532.63
896.088	1460.6
895.112	1347.61
894.136	1229.54
893.16	1144.8
892.184	1083.14
891.207	1031.74
890.23	1005.96
889.254	1039.04
888.277	1074.68
887.299	1059.13
886.322	1038.48
885.344	976.915
884.367	981.852
883.389	1020.02
882.411	968.717
881.432	983.874
880.454	996.471
879.475	1026.95
878.496	1006.33
877.517	995.93
876.538	1036.6
875.559	1033.86
874.579	1056.64
873.6	1097.28
872.62	1086.88
871.64	1005.05
870.66	1060.98
869.679	1127.09
868.699	1086.09
867.718	1080.79
866.737	1162.15
865.756	1075.31
864.774	1187.21
863.793	1151.33
862.811	1171.5
861.83	1257.86
860.848	1328.91
859.865	1318.49
858.883	1323.34
857.9	1351.09
856.918	1434.8
855.935	1437.08
854.952	1490.22
853.968	1606.91
852.985	1545.61
852.001	1771.53
851.018	1735.64
850.034	1816.62
849.05	2080.48
848.065	2260.43
847.081	2468.25
846.096	2813.09
845.111	3335.49
844.126	4248.56
843.141	5374.44
842.156	6718.1
841.17	7155.71
840.184	6974.34
839.198	6017.13
838.212	4723.08
837.226	3875.62
836.239	3342.72
835.253	3078.59
834.266	2882.96
833.279	2798.86
832.292	2638.8
831.304	2423.1
830.317	2387.22
829.329	2237.46
828.341	2247.17
827.353	2064.59
826.365	2026.27
825.376	1889.33
824.388	1952.2
823.399	1800.15
822.41	1764.43
821.421	1789.39
820.431	1821.91
819.442	1803.89
818.452	1879.34
817.462	1949.72
816.472	2133.69
815.482	2302.46
814.492	2660.47
813.501	3058.73
812.51	3739.45
811.519	4611.65
810.528	5725.68
809.537	6758.6
808.545	7561.7
807.553	7214.95
806.562	6331.47
805.57	4961.94
804.577	3996.04
803.585	3113.62
802.592	2657.18
801.6	2286.52
800.607	2079.65
799.613	1807.41
798.62	1721.5
797.627	1648.22
796.633	1494.45
795.639	1413.68
794.645	1317.85
793.651	1284.92
792.656	1211.78
791.662	1103.47
790.667	1143.48
789.672	1027.69
788.677	969.723
787.682	1017.27
786.686	989.46
785.691	921.486
784.695	906.256
783.699	828.282
782.702	798.017
781.706	848.052
780.709	820.303
779.713	777.516
778.716	812.481
777.719	799.797
776.721	754.529
775.724	814.542
774.726	764.277
773.728	764.138
772.73	766.503
771.732	766.363
770.734	803.783
769.735	761.076
768.736	718.385
767.737	688.222
766.738	765.664
765.739	770.527
764.739	780.392
763.74	765.244
762.74	722.599
761.74	702.468
760.74	714.836
759.739	704.71
758.739	702.083
757.738	704.452
756.737	619.405
755.736	691.709
754.734	674.106
753.733	656.509
752.731	656.389
751.729	658.764
750.727	676.108
749.725	648.546
748.723	645.933
747.72	658.283
746.717	710.516
745.714	680.475
744.711	620.54
743.708	660.293
742.704	620.313
741.7	587.819
740.696	620.086
739.692	644.871
738.688	644.753
737.684	599.834
736.679	632.074
735.674	671.767
734.669	646.768
733.664	626.753
732.659	616.692
731.653	641.441
730.647	631.38
729.642	611.382
728.635	655.997
727.629	611.158
726.623	603.595
725.616	596.034
724.609	628.204
723.602	608.228
722.595	627.973
721.588	617.932
720.58	580.601
719.572	587.936
718.564	647.356
717.556	612.519
716.548	590.093
715.539	589.984
714.531	572.527
713.522	550.12
712.513	564.884
711.503	557.349
710.494	584.49
709.484	554.669
708.475	522.382
707.465	603.971
706.454	623.659
705.444	586.429
704.434	541.791
703.423	497.169
702.412	556.43
701.401	561.273
700.39	551.281
699.378	486.917
698.366	509.069
697.355	513.917
696.343	489.119
695.33	506.318
694.318	538.328
693.305	540.698
692.293	585.031
691.28	577.52
690.267	488.581
689.253	481.09
688.24	476.068
687.226	473.514
686.212	549.866
685.198	534.973
684.184	510.226
683.169	539.705
682.155	507.575
681.14	527.189
680.125	551.723
679.11	541.771
678.094	539.209
677.079	487.415
676.063	516.86
675.047	479.853
674.031	543.734
673.015	491.976
671.998	531.237
670.981	521.303
669.965	553.168
668.948	498.989
667.93	533.303
666.913	538.12
665.895	503.627
664.877	513.359
663.859	520.632
662.841	486.161
661.823	525.35
660.804	530.162
659.786	512.887
658.767	522.607
657.748	534.776
656.728	537.13
655.709	487.987
654.689	529.577
653.669	507.418
652.649	524.48
651.629	492.529
650.608	531.637
649.588	507.044
648.567	516.747
647.546	550.932
646.525	499.419
645.504	479.746
644.482	496.788
643.46	521.164
642.438	491.712
641.416	491.622
640.394	513.54
639.371	515.89
638.349	520.684
637.326	479.039
636.303	483.838
635.279	520.396
634.256	515.415
633.232	532.416
632.208	515.225
631.184	483.392
630.16	524.798
629.136	512.499
628.111	522.165
627.087	541.585
626.062	482.946
625.036	526.753
624.011	487.644
622.986	548.499
621.96	526.461
620.934	555.607
619.908	506.776
618.882	482.322
617.855	511.46
616.828	516.235
615.802	491.794
614.775	525.781
613.747	535.419
612.72	508.554
611.692	535.221
610.664	544.852
609.636	520.432
608.608	522.767
607.58	515.378
606.551	542.019
605.523	490.886
604.494	498.084
603.465	532.001
602.435	512.473
601.406	534.233
600.376	543.846
599.346	572.874
598.316	558.207
597.286	524.132
596.255	553.148
595.225	555.471
594.194	526.266
593.163	567.39
592.131	547.89
591.1	523.55
590.068	554.958
589.037	520.934
588.005	549.907
586.972	496.521
585.94	540.017
584.908	539.918
583.875	547.08
582.842	554.239
581.809	556.556
580.775	520.163
579.742	553.931
578.708	568.34
577.674	609.341
576.64	570.547
575.606	572.858
574.571	577.585
573.537	633.052
572.502	630.519
571.467	589.341
570.432	598.891
569.396	598.78
568.36	632.465
567.325	642.002
566.289	620.165
565.252	634.526
564.216	631.997
563.179	653.585
562.143	638.996
561.106	646.11
560.069	626.707
559.031	684.43
557.994	693.941
556.956	703.449
555.918	662.372
554.88	676.698
553.841	727.135
552.803	710.149
551.764	729.272
550.725	697.853
549.686	673.664
548.647	709.622
547.607	774.427
546.568	731
545.528	757.31
544.488	829.281
543.448	790.675
542.407	800.139
541.367	831.221
540.326	888.713
539.285	910.162
538.243	936.404
537.202	1049.06
536.16	1027.26
535.119	1132.66
534.077	1223.62
533.035	1247.38
531.992	1367.07
530.95	1287.68
529.907	1385.74
528.864	1397.46
527.821	1354.07
526.777	1490.39
525.734	1403.87
524.69	1415.59
523.646	1269.24
522.602	1249.85
521.558	1110.77
520.513	1158.43
519.468	1084.04
518.424	988.132
517.378	964.027
516.333	947.105
515.288	829.759
514.242	834.386
513.196	784.033
512.15	855.585
511.104	774.184
510.057	802.708
509.011	766.73
507.964	740.318
506.917	778.383
505.87	814.047
504.822	720.81
503.775	763.63
502.727	749.173
501.679	763.346
500.63	801.364
