#Wave		#Intensity
3200.600830	138.925125
3200.007080	113.666008
3199.413086	101.021187
3198.819092	130.465973
3198.224854	113.614479
3197.630615	117.804611
3197.036377	100.960121
3196.442139	96.738823
3195.847656	113.545799
3195.252930	105.119102
3194.658447	96.694954
3194.063721	142.918762
3193.468750	117.680000
3192.873779	109.257767
3192.278809	113.442825
3191.683838	117.626625
3191.088623	117.608833
3190.493164	104.992004
3189.897949	138.568481
3189.302490	100.761841
3188.706787	104.944374
3188.111328	117.519920
3187.515381	117.502144
3186.919678	134.267853
3186.323730	134.247528
3185.727783	109.059616
3185.131592	92.267250
3184.535400	100.639954
3183.939209	96.432030
3183.342773	108.993622
3182.746338	108.977127
3182.149902	92.197464
3181.553223	71.232712
3180.956543	129.875290
3180.359619	104.722282
3179.762695	134.024231
3179.165771	121.441071
3178.568604	113.048706
3177.971436	96.286171
3177.374268	142.314529
3176.776855	92.071930
3176.179443	133.902527
3175.581787	75.308769
3174.984131	100.396492
3174.386475	171.484695
3173.788574	129.639526
3173.190674	96.169594
3172.592773	125.419609
3171.994629	117.040573
3171.396484	87.767136
3170.798340	125.362625
3170.199951	112.809273
3169.601563	137.857117
3169.002930	104.421387
3168.404297	141.991562
3167.805664	162.848007
3167.206787	100.198975
3166.607910	183.670288
3166.008789	91.821228
3165.409912	141.884033
3164.810547	166.897079
3164.211426	87.607689
3163.612061	137.648361
3163.012695	100.092728
3162.413086	70.888268
3161.813477	133.416519
3161.213623	112.553123
3160.614014	133.376068
3160.013916	100.016884
3159.414063	145.835846
3158.813965	116.650986
3158.213867	116.633301
3157.613525	108.285927
3157.013184	158.240051
3156.412598	129.070999
3155.812256	129.051422
3155.211426	112.382576
3154.610840	112.365532
3154.010010	108.187431
3153.409180	99.850174
3152.808105	128.953583
3152.207031	124.774857
3151.605957	116.438866
3151.004639	141.368607
3150.403320	153.818970
3149.801758	120.542519
3149.200195	108.056206
3148.598633	128.816696
3147.996826	157.880371
3147.395020	112.161133
3146.793213	153.678970
3146.191162	116.279953
3145.589111	161.936783
3144.986816	112.093063
3144.384766	112.076042
3143.782227	157.712708
3143.179932	141.089951
3142.577393	136.919464
3141.974609	149.344009
3141.371826	145.173523
3140.769043	116.121178
3140.166260	153.422546
3139.563232	136.815552
3138.960205	103.632401
3138.356934	132.629333
3137.753662	111.889000
3137.150391	116.015419
3136.546875	95.283905
3135.943359	111.838028
3135.339600	128.387115
3134.735840	128.367615
3134.132080	136.628647
3133.528076	124.188988
3132.924072	124.170120
3132.320068	91.044250
3131.715820	115.856895
3131.111572	95.153709
3130.507080	115.821693
3129.902588	132.347534
3129.298096	111.651260
3128.693604	132.307312
3128.088867	124.019249
3127.483887	132.267090
3126.878906	169.441452
3126.273926	144.623154
3125.668945	115.680939
3125.063721	144.579193
3124.458252	156.947830
3123.853027	123.887344
3123.247559	144.513260
3122.641846	136.234634
3122.036133	165.107788
3121.430420	119.684944
3120.824707	165.057571
3120.218750	115.522736
3119.612549	115.505165
3119.006592	140.234940
3118.400391	156.709320
3117.793945	119.575768
3117.187500	119.557579
3116.581055	127.783485
3115.974609	160.735413
3115.367920	119.503021
3114.760986	152.446182
3114.154297	144.183899
3113.547363	135.924133
3112.940186	111.193733
3112.333008	115.294472
3111.725830	172.915390
3111.118408	156.423447
3110.510986	127.589188
3109.903564	144.030380
3109.295898	127.550346
3108.688232	152.214340
3108.080566	197.437195
3107.472656	176.843887
3106.864746	119.248657
3106.256592	139.787476
3105.648438	168.541595
3105.040039	160.295639
3104.431885	160.271240
3103.823486	143.811249
3103.214844	135.572815
3102.606201	135.552170
3101.997559	94.461372
3101.388672	123.191719
3100.779785	160.124832
3100.170898	155.995316
3099.561768	143.658005
3098.952637	123.116676
3098.343262	135.407715
3097.733887	147.694992
3097.124512	110.754372
3096.514893	176.359726
3095.905273	90.216805
3095.295410	143.504868
3094.685791	172.179596
3094.075684	172.153351
3093.465820	155.734070
3092.855713	163.905609
3092.245361	167.977646
3091.635254	172.048431
3091.024658	118.777237
3090.414307	131.044556
3089.803711	151.497177
3089.193115	163.755753
3088.582275	147.357712
3087.971436	167.798477
3087.360596	155.496826
3086.749512	122.741936
3086.138428	171.812500
3085.527100	122.704498
3084.915771	147.222946
3084.304443	139.022690
3083.692871	183.972549
3083.081299	138.980286
3082.469482	167.568314
3081.857910	151.197113
3081.245850	171.602982
3080.634033	138.895508
3080.021973	163.381546
3079.409668	147.020950
3078.797607	151.081818
3078.185059	167.389435
3077.572754	142.871613
3076.960205	199.989746
3076.347656	187.716827
3075.734863	138.726044
3075.122070	138.704865
3074.509033	150.920502
3073.895996	118.270981
3073.282959	126.408302
3072.669922	195.699112
3072.056641	142.675491
3071.443115	154.881165
3070.829834	134.481522
3070.216064	154.833878
3069.602539	150.736282
3068.988770	187.373245
3068.375000	158.835663
3067.760986	179.171844
3067.146973	191.358887
3066.532715	138.408691
3065.918701	154.668442
3065.304199	162.784012
3064.689941	142.414261
3064.075439	150.529221
3063.460693	154.573959
3062.846191	154.550339
3062.231445	158.593231
3061.616455	178.898346
3061.001465	166.675262
3060.386475	186.972946
3059.771240	158.496323
3059.156006	162.535492
3058.540771	158.447876
3057.925293	186.858688
3057.309814	178.707077
3056.694092	158.375244
3056.078369	138.049622
3055.462646	170.505814
3054.846680	138.007416
3054.230713	182.628952
3053.614502	190.716629
3052.998291	166.344391
3052.382080	190.658325
3051.765625	146.013824
3051.149170	154.102142
3050.532715	129.750381
3049.916016	121.622383
3049.299316	182.405670
3048.682373	149.955063
3048.065430	153.984344
3047.448486	125.599594
3046.831299	186.345078
3046.214111	170.115143
3045.596680	190.337814
3044.979248	202.456055
3044.361816	165.988571
3043.744141	165.963181
3043.126465	210.457672
3042.508545	202.332184
3041.890869	145.656876
3041.272705	169.907028
3040.654785	117.298798
3040.036621	186.031693
3039.418213	181.959671
3038.799805	190.017670
3038.181396	149.565491
3037.562988	153.584290
3036.944336	202.053650
3036.325439	165.658630
3035.706543	133.314575
3035.087646	197.921646
3034.468750	185.775543
3033.849609	177.671143
3033.230469	157.457123
3032.611084	193.763702
3031.991699	181.625656
3031.372070	173.526825
3030.752441	177.535141
3030.132813	189.610764
3029.513184	201.682678
3028.893066	177.453568
3028.273193	201.620895
3027.653076	181.431000
3027.032959	201.559128
3026.412598	189.436539
3025.792480	153.138000
3025.171875	209.525146
3024.551270	185.320770
3023.930664	177.236176
3023.310059	225.538757
3022.689209	213.423599
3022.068115	201.312164
3021.447266	201.281311
3020.826172	225.400513
3020.204834	169.024475
3019.583496	164.974792
3018.962158	217.250549
3018.340576	160.901672
3017.718994	176.964691
3017.097412	193.022797
3016.475586	188.972504
3015.853760	237.184433
3015.231689	217.050766
3014.609619	217.017487
3013.987549	212.965973
3013.365234	216.950928
3012.742920	200.849670
3012.120361	184.753357
3011.497803	188.740784
3010.875244	196.742126
3010.252441	196.711945
3009.629639	192.667847
3009.006836	200.664886
3008.383789	212.672150
3007.760498	184.555054
3007.137451	188.538177
3006.514160	196.530914
3005.890625	196.500763
3005.267090	224.537827
3004.643555	208.467422
3004.019775	188.393555
3003.395996	204.395676
3002.772217	224.400009
3002.148193	228.372101
3001.524170	192.283813
3000.899902	220.291382
3000.275635	220.257568
2999.651367	212.215607
2999.026855	212.183029
2998.402344	200.141937
2997.777588	200.111206
2997.152832	196.078857
2996.528076	228.056702
2995.903076	204.019394
2995.278076	155.990875
2994.653076	231.950790
2994.027832	223.918091
2993.402344	211.889923
2992.777100	207.860062
2992.151367	203.831436
2991.525879	187.815796
2990.900146	239.728012
2990.274414	179.768387
2989.648438	215.688919
2989.022461	231.630280
2988.396240	231.594681
2987.770264	247.528687
2987.143799	187.613876
2986.517578	195.567383
2985.891113	223.471222
2985.264404	223.436874
2984.637695	175.530563
2984.010986	227.356903
2983.384033	195.417114
2982.757080	275.136902
2982.130127	199.343903
2981.502930	247.148438
2980.875732	235.153488
2980.248291	247.072433
2979.620850	251.018875
2978.993408	187.239243
2978.365723	203.143265
2977.738037	270.816010
2977.110107	219.008682
2976.482178	199.068176
2975.854248	258.748810
2975.226074	246.768600
2974.597900	206.935379
2973.969482	214.861359
2973.341309	250.633026
2972.712646	258.549835
2972.083984	282.372528
2971.455322	222.682083
2970.826660	194.816849
2970.197754	242.489761
2969.568604	274.249481
2968.939697	194.726913
2968.310547	274.165070
2967.681152	230.422119
2967.051758	222.442291
2966.422363	250.209045
2965.792725	206.489960
2965.163086	210.428528
2964.533203	281.851410
2963.903564	254.024124
2963.273438	273.827606
2962.643311	269.817535
2962.013184	218.201157
2961.383057	269.734436
2960.752686	245.896454
2960.122314	289.478668
2959.491699	293.398926
2958.861084	249.747086
2958.230225	265.563141
2957.599609	269.485260
2956.968506	265.481323
2956.337646	233.746048
2955.706299	297.089020
2955.075195	316.846130
2954.443848	308.877380
2953.812500	269.236206
2953.180908	245.442261
2952.549316	292.902069
2951.917725	284.941864
2951.285889	249.285706
2950.653809	233.422058
2950.021973	304.588623
2949.389893	296.631500
2948.757568	253.086517
2948.125244	332.124847
2947.492920	253.008484
2946.860352	316.211853
2946.227783	296.402893
2945.595215	296.357208
2944.962402	355.573792
2944.329590	347.618561
2943.696533	351.514526
2943.063477	339.613342
2942.430420	386.941559
2941.797119	303.978638
2941.163574	355.244904
2940.530273	390.709106
2939.896729	386.702881
2939.262939	406.369934
2938.629150	406.307220
2937.995361	465.406372
2937.361328	358.859711
2936.727295	410.062103
2936.093262	417.883392
2935.458984	425.702301
2934.824707	441.400909
2934.190186	437.392334
2933.555664	527.941650
2932.921143	543.617188
2932.286377	500.208191
2931.651367	539.511353
2931.016602	488.241455
2930.381592	531.471130
2929.746338	535.325317
2929.111084	578.534363
2928.475830	574.510010
2927.840332	531.143005
2927.204834	511.392059
2926.569336	554.578003
2925.933594	605.615784
2925.297607	538.678894
2924.661865	546.458435
2924.025879	593.542969
2923.389648	569.870422
2922.753418	534.416626
2922.117188	608.983643
2921.480713	565.678101
2920.844238	542.024414
2920.207764	632.264099
2919.571045	534.003906
2918.934082	584.958008
2918.297363	573.091736
2917.660156	545.530457
2917.023193	568.990601
2916.385986	564.979187
2915.748779	580.583313
2915.111328	604.027039
2914.473877	576.482178
2913.836182	595.998291
2913.198486	556.701782
2912.560791	580.134705
2911.922852	662.348694
2911.284912	599.548401
2910.646729	626.881775
2910.008545	622.867432
2909.370361	599.270325
2908.731934	642.255798
2908.093506	634.325256
2907.455078	630.312195
2906.816406	649.786560
2906.177490	630.117188
2905.538574	688.717224
2904.899658	692.523254
2904.260498	805.862854
2903.621338	739.245239
2902.982178	680.469666
2902.342773	754.657043
2901.703369	762.359314
2901.063721	813.057434
2900.424072	738.673462
2899.784424	769.820923
2899.144531	781.423096
2898.504639	773.489136
2897.864502	765.557617
2897.224365	831.829285
2896.583984	800.462952
2895.943848	827.667664
2895.303223	839.250000
2894.662842	823.508545
2894.021973	959.960815
2893.381348	862.270325
2892.740479	854.334656
2892.099609	877.605164
2891.458496	947.666809
2890.817383	853.937805
2890.176025	912.285400
2889.534668	853.673340
2888.893311	853.541077
2888.251709	950.829956
2887.610107	942.890198
2886.968262	938.848511
2886.326416	981.548462
2885.684570	1032.023926
2885.042480	1078.589966
2884.400391	1070.636475
2883.758057	1093.826294
2883.115723	1097.548706
2882.473389	1171.315552
2881.830811	1272.295044
2881.188232	1342.121582
2880.545410	1509.166626
2879.902588	1656.714722
2879.259766	1539.806030
2878.616699	1601.772095
2877.973633	1492.682373
2877.330322	1476.904541
2876.687012	1395.069824
2876.043457	1336.572754
2875.399902	1231.476318
2874.756348	1176.906860
2874.112549	1130.121460
2873.468750	1122.180176
2872.824707	1001.652527
2872.180664	974.324829
2871.536621	1005.223022
2870.892334	927.455750
2870.248047	927.311890
2869.603760	911.650574
2868.958984	965.811829
2868.314453	946.271179
2867.669678	934.491699
2867.024902	895.577148
2866.379883	848.921936
2865.734863	937.932495
2865.089844	852.533630
2864.444580	817.530334
2863.799316	952.991699
2863.153809	956.717163
2862.508301	906.222961
2861.862549	937.059448
2861.216797	936.914001
2860.571045	936.768555
2859.925049	963.715515
2859.279053	975.175110
2858.632813	1021.453430
2857.986572	982.609436
2857.340332	1040.475952
2856.693848	1044.181763
2856.047363	1082.687012
2855.400635	1155.975464
2854.753906	1113.275024
2854.107178	1229.050171
2853.460205	1186.351563
2852.813232	1236.395874
2852.166016	1243.930176
2851.518799	1247.599365
2850.871338	1301.472656
2850.223877	1366.913208
2849.576416	1513.408813
2848.928711	1428.250732
2848.281006	1428.028809
2847.633301	1508.844482
2846.985352	1516.326782
2846.337158	1720.551147
2845.688965	1646.998169
2845.040771	1704.590210
2844.392578	1584.791138
2843.743896	1642.374878
2843.095459	1657.538574
2842.446777	1584.052246
2841.798096	1556.831177
2841.149170	1498.794922
2840.500244	1386.843872
2839.851074	1417.442261
2839.202148	1297.836304
2838.552734	1182.118042
2837.903320	1108.785156
2837.253906	1131.708862
2836.604492	966.036499
2835.954834	958.189941
2835.304932	915.717834
2834.655029	965.585815
2834.005127	788.503174
2833.354980	780.688965
2832.704834	726.735291
2832.054688	665.109192
2831.404297	714.977234
2830.753906	691.805786
2830.103271	626.371094
2829.452637	576.325439
2828.801758	595.443604
2828.150879	514.690491
2827.500000	483.887360
2826.848877	476.132477
2826.197754	464.540833
2825.546387	429.921265
2824.895020	475.910156
2824.243408	464.323914
2823.591797	487.272339
2822.940186	510.213623
2822.288330	479.449432
2821.636475	456.364777
2820.984619	502.306519
2820.332520	444.721252
2819.680176	452.318390
2819.028076	379.428375
2818.375488	371.705231
2817.723145	455.938477
2817.070557	398.405182
2816.417725	448.136017
2815.764893	390.621796
2815.112061	375.244843
2814.458984	401.985382
2813.805908	394.267090
2813.152832	401.860138
2812.499512	386.490936
2811.845947	386.430695
2811.192383	394.021393
2810.538818	393.959961
2809.885010	370.953033
2809.231201	374.718872
2808.577393	359.368195
2807.923340	386.069458
2807.269287	405.118622
2806.614990	351.557587
2805.960693	389.709595
2805.306152	393.468933
2804.651611	420.144012
2803.997070	393.346222
2803.342285	358.920166
2802.687500	362.681915
2802.032471	393.162231
2801.377441	374.018341
2800.722412	404.487335
2800.067139	450.208130
2799.411621	438.693695
2798.756348	385.227417
2798.100586	366.099609
2797.445068	411.797821
2796.789307	373.610077
2796.133301	388.798798
2795.477539	388.738129
2794.821289	400.109161
2794.165283	331.467285
2793.509033	373.318665
2792.852539	422.774536
2792.196045	373.202148
2791.539551	376.951477
2790.882813	395.927612
2790.226074	369.221008
2789.569092	380.580780
2788.912109	369.105743
2788.255127	331.001892
2787.597900	422.246826
2786.940430	441.198059
2786.283203	349.861053
2785.625488	422.049072
2784.968018	452.396332
2784.310303	402.911957
2783.652588	391.447632
2782.994629	372.387146
2782.336426	425.518829
2781.678467	364.673462
2781.020264	368.414581
2780.361816	417.724457
2779.703369	425.252991
2779.044922	466.945953
2778.386230	455.485840
2777.727539	379.512207
2777.068604	375.658386
2776.409668	409.745087
2775.750732	413.474396
2775.091553	379.275024
2774.432373	424.721649
2773.772949	367.781769
2773.113525	432.170807
2772.453857	394.199463
2771.794189	397.927612
2771.134521	416.811371
2770.474609	363.705780
2769.814697	390.164978
2769.154541	405.253632
2768.494385	397.616608
2767.833984	442.989227
2767.173584	416.420471
2766.513184	446.635712
2765.852539	442.781403
2765.191895	404.873505
2764.531006	442.642883
2763.870117	400.964172
2763.209229	442.504425
2762.548096	385.712738
2761.886719	400.776001
2761.225586	404.493591
2760.563965	400.650604
2759.902588	415.704407
2759.240967	408.082275
2758.579102	426.908173
2757.917236	377.735718
2757.255371	404.113953
2756.593262	415.379211
2755.931152	377.558350
2755.269043	407.699188
2754.606689	392.537750
2753.944092	373.607269
2753.281494	486.745361
2752.618896	448.942871
2751.956055	430.012360
2751.293213	414.859253
2750.630371	441.190277
2749.967285	403.418518
2749.303955	456.130798
2748.640625	459.828430
2747.977295	418.302979
2747.313721	422.005341
2746.650146	455.845093
2745.986572	436.940033
2745.322754	414.274780
2744.658691	455.630859
2743.994873	429.204803
2743.330566	470.545563
2742.666504	481.763153
2742.002197	436.529449
2741.337646	410.122864
2740.673096	477.774689
2740.008545	447.608459
2739.343750	458.820801
2738.678955	466.269348
2738.013916	409.801544
2737.348877	481.159393
2736.683594	481.083984
2736.018311	405.850952
2735.353027	473.418549
2734.687500	447.047424
2734.021973	439.465088
2733.356201	461.929321
2732.690430	473.121674
2732.024658	510.590912
2731.358643	446.696991
2730.692383	555.468811
2730.026367	514.103271
2729.359863	532.782593
2728.693604	513.942017
2728.027100	517.612183
2727.360352	491.279419
2726.693604	498.701599
2726.026855	521.117615
2725.359863	562.268921
2724.692871	509.710510
2724.025635	573.334351
2723.358398	573.244324
2722.691162	558.169922
2722.023682	603.028564
2721.355957	535.525146
2720.688477	516.719360
2720.020508	584.025879
2719.352783	606.393188
2718.684814	535.188965
2718.016602	639.880737
2717.348389	546.245117
2716.680176	568.604248
2716.011719	583.475891
2715.343262	590.863525
2714.674561	545.902100
2714.005859	545.816345
2713.337158	527.041199
2712.668213	571.805969
2711.999023	519.402222
2711.329834	571.626343
2710.660645	590.214172
2709.991455	511.687592
2709.321777	545.216431
2708.652344	492.857971
2707.982666	552.511475
2707.312988	567.355042
2706.643066	515.017761
2705.972900	514.936829
2705.302979	499.932526
2704.632813	503.584198
2703.962402	529.612732
2703.291992	540.716675
2702.621582	540.631714
2701.950928	570.369995
2701.280273	536.734375
2700.609375	551.556946
2699.938477	491.851837
2699.267334	540.206848
2698.596191	528.946960
2697.925049	499.068634
2697.253662	528.780579
2696.582031	547.313538
2695.910645	480.220032
2695.239014	483.866547
2694.567139	532.169495
2693.895264	450.226410
2693.223145	483.638214
2692.551270	502.160675
2691.878906	472.328674
2691.206543	528.032471
2690.534180	479.615967
2689.861816	524.148926
2689.189209	535.216797
2688.516357	464.524780
2687.843506	486.745361
2687.170654	520.104004
2686.497559	486.592133
2685.824463	486.515564
2685.151123	490.152252
2684.477783	527.201965
2683.804199	534.543213
2683.130615	478.786224
2682.457031	500.976440
2681.783203	545.421814
2681.109375	448.881927
2680.435303	504.449005
2679.761230	470.992188
2679.086914	522.830200
2678.412598	500.503265
2677.738281	530.079224
2677.063721	485.520569
2676.389160	507.678162
2675.714355	503.893097
2675.039551	533.449829
2674.364502	507.438263
2673.689453	492.544922
2673.014404	555.414246
2672.339111	510.900604
2671.663574	503.416901
2670.988037	466.327454
2670.312500	518.059937
2669.636719	447.681244
2668.960938	506.798889
2668.285156	540.007080
2667.609131	517.733398
2666.932861	576.812012
2666.256592	473.207031
2665.580322	524.881287
2664.903809	510.015442
2664.227295	506.239868
2663.550781	487.687042
2662.874023	528.244324
2662.197021	539.241272
2661.520020	561.313354
2660.843018	550.148010
2660.165771	579.594727
2659.488525	557.356689
2658.811035	516.673035
2658.133545	505.521698
2657.455811	542.335510
2656.778076	486.918335
2656.100342	534.788025
2655.422363	538.391235
2654.744385	483.000854
2654.066162	586.145142
2653.387939	501.277740
2652.709473	563.848450
2652.031006	534.281860
2651.352539	530.513428
2650.673828	519.379028
2649.994873	574.541443
2649.316162	537.626953
2648.636963	548.587463
2647.958008	570.588135
2647.278809	537.372375
2646.599365	577.768066
2645.919922	518.805298
2645.240479	504.007843
2644.560791	533.354675
2643.880859	547.981384
2643.201172	595.697754
2642.520996	477.953552
2641.841064	525.665833
2641.160889	547.635254
2640.480469	547.548706
2639.800049	573.181946
2639.119629	543.702026
2638.438965	561.981567
2637.758301	528.840271
2637.077393	554.460144
2636.396484	539.687134
2635.715332	583.651001
2635.034180	543.186768
2634.353027	590.805725
2633.671631	517.331909
2632.989990	509.913269
2632.308350	550.179138
2631.626709	616.103210
2630.944824	528.004944
2630.262939	516.923157
2629.581055	597.483337
2628.898926	571.734131
2628.216553	567.979309
2627.534180	534.915283
2626.851807	490.871979
2626.169189	556.721924
2625.486572	611.564880
2624.803711	567.530334
2624.120850	560.118713
2623.437988	545.388794
2622.754883	596.539001
2622.071533	570.830444
2621.388184	534.154236
2620.704834	519.437683
2620.021240	566.902100
2619.337646	581.439819
2618.653809	530.159912
2617.969971	577.600098
2617.286133	533.647278
2616.602051	555.490051
2615.917725	595.595703
2615.233398	544.354065
2614.549072	540.615051
2613.864502	591.660645
2613.179932	635.386780
2612.495117	558.613708
2611.810303	609.632141
2611.125488	536.537292
2610.440430	569.296387
2609.755127	602.045044
2609.069824	532.634277
2608.384521	605.501953
2607.698975	601.759033
2607.013428	598.017273
2606.327637	612.506042
2605.641846	590.537231
2604.956055	597.733093
2604.270020	553.908752
2603.583740	612.117981
2602.897461	582.877136
2602.211182	509.936646
2601.524658	542.632324
2600.838135	571.676331
2600.151367	586.148376
2599.464600	615.176270
2598.777832	578.683594
2598.090820	593.147644
2597.403564	560.308289
2596.716309	582.046204
2596.029053	611.051636
2595.341553	581.861694
2594.654053	574.497314
2593.966309	614.396484
2593.278564	614.299072
2592.590820	559.686707
2591.902832	650.441772
2591.214600	574.041931
2590.526367	599.379089
2589.838135	559.331726
2589.149658	570.137390
2588.461182	617.248291
2587.772461	638.932129
2587.083740	591.644409
2586.394775	555.259094
2585.705811	634.999512
2585.016846	591.362793
2584.327637	598.523804
2583.638184	616.563049
2582.948975	565.697449
2582.259277	627.244446
2581.569824	605.394165
2580.879883	590.799927
2580.190186	612.449951
2579.500244	612.352722
2578.810059	568.781738
2578.119873	575.935913
2577.429688	597.574463
2576.739258	597.479553
2576.048584	619.107788
2575.358154	579.190125
2574.667236	586.336914
2573.976563	676.713501
2573.285645	553.586731
2572.594482	557.116455
2571.903320	632.986328
2571.212158	582.254944
2570.520752	625.553406
2569.829102	592.915955
2569.137451	650.658020
2568.445801	603.570129
2567.753906	628.769592
2567.062012	690.091431
2566.370117	624.957275
2565.677979	559.843872
2564.985596	606.702026
2564.293213	548.833679
2563.600830	678.712708
2562.908203	559.487976
2562.215332	588.271301
2561.522705	653.129883
2560.829590	588.084229
2560.136719	624.063782
2559.443604	591.504028
2558.750244	627.471558
2558.056885	576.893555
2557.363525	605.641907
2556.669922	630.776672
2555.976074	598.241577
2555.282227	648.592468
2554.588379	572.832275
2553.894287	612.364746
2553.200195	659.087769
2552.505859	601.366943
2551.811523	669.679321
2551.117188	593.975891
2550.422607	640.671997
2549.727783	636.971375
2549.032959	633.271851
2548.338135	615.183289
2547.643066	676.234192
2546.947998	618.583923
2546.252686	564.547729
2545.557373	614.791748
2544.861816	582.341553
2544.166260	628.972534
2543.470703	743.866211
2542.774902	582.063477
2542.078857	650.226624
2541.382813	599.837341
2540.686768	610.515625
2539.990479	624.781189
2539.294189	671.353333
2538.597656	642.529968
2537.901123	624.482727
2537.204346	660.267334
2536.507568	656.574341
2535.810791	721.040527
2535.113770	634.845032
2534.416504	638.330017
2533.719238	688.426025
2533.021973	641.711609
2532.324463	666.700195
2531.626953	695.264648
2530.929199	666.487732
2530.231445	644.885376
2529.533447	655.528931
2528.835449	698.403137
2528.137451	633.834106
2527.439209	626.572205
2526.740723	626.472351
2526.042236	697.957886
2525.343750	726.476257
2524.645020	661.954041
2523.946289	640.383179
2523.247314	679.627930
2522.548340	683.096008
2521.849121	672.259521
2521.149902	668.577026
2520.450684	643.447449
2519.751221	700.531006
2519.051514	678.977844
2518.351807	661.004578
2517.652100	610.885132
2516.952148	657.221802
2516.252197	682.115967
2515.552002	678.436401
2514.851807	556.943115
2514.151367	649.663330
2513.450928	660.266663
2512.750244	631.613770
2512.049561	645.784424
2511.348877	652.815979
2510.647949	674.112183
2509.946777	684.703064
2509.245605	631.109863
2508.544434	688.049500
2507.843018	627.343933
2507.141602	662.882629
2506.439941	741.169739
2505.738281	627.043457
2505.036377	687.500366
2504.334473	662.459290
2503.632568	662.353516
2502.930420	640.884888
2502.228027	708.420715
2501.525635	679.832886
2500.823242	683.283020
2500.120605	718.755859
2499.417969	693.737610
2498.715088	714.969116
2498.012207	711.298401
2497.309082	686.293274
2496.605957	714.626465
2495.902588	710.957520
2495.199219	732.169189
2494.495605	692.962036
2493.791992	756.806763
2493.088379	689.187988
2492.384521	646.454468
2491.680664	720.930115
2490.976563	756.322998
2490.272461	745.551331
2489.568115	748.981812
2488.863770	688.527161
2488.159180	755.839417
2487.454590	759.266479
2486.749756	684.649536
2486.044922	638.431152
2485.339844	712.800720
2484.634766	659.501160
2483.929688	719.663025
2483.224365	716.003296
2482.519043	659.184692
2481.813477	690.970215
2481.107666	680.231018
2480.402100	772.222107
2479.696045	722.514221
2478.990234	701.151550
2478.284180	676.255127
2477.577881	715.087341
2476.871582	697.275513
2476.165039	743.169678
2475.458496	697.052368
2474.751953	714.629639
2474.045166	753.424500
2473.338379	742.693970
2472.631348	731.966858
2471.924072	760.133667
2471.217041	728.197510
2470.509521	713.943420
2469.802246	646.686768
2469.094482	685.448853
2468.386963	710.067810
2467.679199	660.504517
2466.971191	773.408142
2466.263184	737.974487
2465.554932	709.612976
2464.846680	705.969482
2464.138428	769.383423
2463.429932	733.973022
2462.721436	730.327271
2462.012695	758.430908
2461.303955	712.458130
2460.594971	722.923340
2459.885986	779.221680
2459.176758	722.691589
2458.467529	687.328186
2457.758057	708.363159
2457.048584	778.722229
2456.338867	775.074341
2455.629150	767.905090
2454.919434	774.825867
2454.209473	739.487915
2453.499512	697.119690
2452.789307	827.256836
2452.078857	806.006104
2451.368408	770.685730
2450.657959	731.858093
2449.947266	742.294678
2449.236572	742.175598
2448.525879	738.539673
2447.814697	752.486389
2447.103760	829.711670
2446.392578	752.244995
2445.681152	762.668091
2444.969727	794.172058
2444.258301	765.936829
2443.546631	765.813904
2442.834717	758.666321
2442.122803	751.520996
2441.410889	793.535034
2440.698730	846.067444
2439.986572	786.260132
2439.274170	786.133911
2438.561768	789.516663
2437.849121	792.898315
2437.136475	757.692688
2436.423584	799.658264
2435.710693	827.583557
2434.997803	771.352356
2434.284424	736.172607
2433.571289	764.094543
2432.857910	777.989685
2432.144287	791.880310
2431.430908	837.296448
2430.717041	795.128723
2430.003174	791.498779
2429.289307	787.869995
2428.575195	798.246643
2427.861084	780.615784
2427.146729	839.989624
2426.432373	801.361328
2425.717773	773.241882
2425.003174	843.083008
2424.288330	870.929199
2423.573486	825.326294
2422.858643	797.221008
2422.143555	807.580933
2421.428223	817.937500
2420.712891	835.280457
2419.997559	856.112183
2419.281982	751.161377
2418.566162	758.026978
2417.850586	782.353638
2417.134521	845.085449
2416.418457	827.491943
2415.702393	816.885925
2414.986084	827.225769
2414.269775	809.643494
2413.553223	837.427551
2412.836670	694.255310
2412.120117	795.300232
2411.403076	823.073059
2410.686279	836.888794
2409.969238	749.592224
2409.251953	843.591309
2408.534668	871.338440
2407.817383	846.804626
2407.099854	850.152588
2406.382080	811.695374
2405.664307	822.014099
2404.946533	759.195862
2404.228516	839.159424
2403.510498	779.840027
2402.792236	783.195374
2402.073975	817.872375
2401.355469	793.382446
2400.636963	838.484131
2399.918213	848.785034
2399.199463	862.560608
2398.480469	813.736572
2397.761475	817.082458
2397.042480	886.478638
2396.323242	792.488525
2395.603760	872.291992
2394.884277	806.132019
2394.164795	823.372925
2393.445068	903.132813
2392.725098	823.107605
2392.005127	861.172180
2391.285156	867.977234
2390.564941	836.595215
2389.844727	891.993042
2389.124268	808.563721
2388.403809	853.539124
2387.683105	846.463379
2386.962402	901.823730
2386.241455	825.382507
2385.520508	814.847168
2384.799316	901.387695
2384.078125	797.252869
2383.356689	838.713379
2382.635254	866.299744
2381.913818	890.412537
2381.192139	831.379578
2380.470215	897.052429
2379.748291	872.666992
2379.026367	813.665344
2378.304199	931.236938
2377.581787	910.318970
2376.859375	892.868469
2376.136963	878.883728
2375.414307	819.928528
2374.691650	823.255249
2373.968750	795.454468
2373.245850	829.905518
2372.522705	898.919189
2371.799316	888.403625
2371.076172	788.028564
2370.352783	822.458435
2369.629150	860.332336
2368.905518	874.011841
2368.181641	853.146545
2367.457764	890.997070
2366.733643	928.835327
2366.009521	887.257019
2365.285400	890.565552
2364.561035	862.811768
2363.836426	886.827271
2363.111816	845.282471
2362.387207	900.339172
2361.662354	920.887878
2360.937256	944.878357
2360.212158	899.902954
2359.487061	913.546997
2358.761719	923.739746
2358.036377	968.391602
2357.310791	857.973450
2356.584961	961.188416
2355.859375	833.584290
2355.133301	926.437744
2354.407471	915.957703
2353.681152	936.466980
2352.955078	881.238281
2352.228516	901.746521
2351.502197	953.219116
2350.775635	959.946350
2350.048828	925.390076
2349.322021	853.009766
2348.594971	928.529846
2347.867920	866.487732
2347.140869	849.158203
2346.413330	938.391479
2345.686035	855.757141
2344.958496	917.470703
2344.230713	934.500610
2343.502930	910.303711
2342.775146	958.240234
2342.047119	875.669250
2341.319092	916.728882
2340.590820	909.714844
2339.862305	961.052612
2339.133789	947.169983
2338.405273	919.566956
2337.676514	861.096863
2336.947754	905.548950
2336.218750	884.825073
2335.489746	884.681885
2334.760498	925.679993
2334.031250	922.102295
2333.301758	925.380371
2332.572266	969.778687
2331.842529	979.900330
2331.112793	979.741699
2330.382813	917.930969
2329.652832	931.480591
2328.922607	965.569824
2328.192383	920.908569
2327.462158	985.794495
2326.731689	896.653931
2326.000977	927.304810
2325.270264	933.997070
2324.539307	985.155945
2323.808350	868.712097
2323.077393	899.347473
2322.346191	977.839233
2321.614746	957.169983
2320.883301	1001.447754
2320.151855	963.694519
2319.420166	949.871155
2318.688232	963.382202
2317.956299	1017.877197
2317.224365	963.069946
2316.492188	983.401367
2315.760010	969.585815
2315.027588	962.601685
2314.295166	938.555115
2313.562500	975.939087
2312.829590	934.838989
2312.096924	979.033875
2311.363770	941.357300
2310.630615	1002.587524
2309.897461	961.509644
2309.164063	961.353699
2308.430664	1039.593384
2307.697021	940.594177
2306.963379	977.922974
2306.229492	991.391663
2305.495605	943.542786
2304.761719	1042.156128
2304.027344	956.857361
2303.293213	977.129883
2302.558838	1007.608093
2301.824219	997.233948
2301.089600	966.445374
2300.354736	1017.324890
2299.619873	979.739136
2298.885010	921.757690
2298.149658	945.413452
2297.414551	1009.864075
2296.679199	982.502808
2295.943604	958.549500
2295.208008	978.785217
2294.472412	999.014343
2293.736572	985.262329
2293.000488	1032.658936
2292.264404	1097.021973
2291.528320	1052.698364
2290.791992	1069.503662
2290.055420	994.646545
2289.318848	1018.244019
2288.582275	987.536255
2287.845459	997.554932
2287.108398	1000.785400
2286.371582	1000.622742
2285.634277	1030.982666
2284.896973	1112.195313
2284.159668	1105.234009
2283.422119	989.803284
2282.684570	1037.091064
2281.946777	992.870239
2281.208740	1006.261169
2280.470703	1090.786011
2279.732666	982.225159
2278.994385	1039.634888
2278.256104	1063.166992
2277.517578	1042.682129
2276.779053	1100.053833
2276.040283	1028.806152
2275.301514	1113.230835
2274.562500	1099.517334
2273.823486	1075.660400
2273.084229	1014.608887
2272.344971	1078.692017
2271.605469	1112.325806
2270.865967	1047.917603
2270.126221	1030.848022
2269.386475	1027.301025
2268.646484	1081.193604
2267.906494	1043.857666
2267.166260	1057.198364
2266.426025	1046.895020
2265.685547	1056.854248
2264.945068	1063.434204
2264.204346	999.127930
2263.463623	1150.834961
2262.722656	1096.658325
2261.981689	1086.358398
2261.240723	1072.688599
2260.499268	1099.495483
2259.758057	1052.106567
2259.016602	1082.279541
2258.274902	1068.619141
2257.533203	1092.038574
2256.791260	1058.161255
2256.049316	1051.250122
2255.307129	1057.816650
2254.564941	1108.168701
2253.822754	1091.149536
2253.080322	1148.214111
2252.337646	1114.360596
2251.594971	1083.884033
2250.852051	1154.384033
2250.109131	1113.815918
2249.366211	1073.260986
2248.623047	1062.994385
2247.879639	1106.544800
2247.136230	1072.736328
2246.392578	1136.444458
2245.648926	1106.003784
2244.905273	1045.322510
2244.161377	1132.528198
2243.417236	1176.024414
2242.673096	1192.630249
2241.928955	1041.281982
2241.184570	1131.789673
2240.439941	1111.457886
2239.695313	1175.065918
2238.950439	1137.949707
2238.205566	1127.695313
2237.460693	1117.444336
2236.715576	1107.196655
2235.970215	1137.207397
2235.224854	1056.524780
2234.479492	1153.603882
2233.733887	1183.592285
2232.988037	1133.113037
2232.242188	1112.817017
2231.496338	1146.148560
2230.750244	1109.103027
2230.003906	1142.424194
2229.257568	1068.545044
2228.511230	1095.163574
2227.764648	1151.910645
2227.017822	1078.065918
2226.270996	1148.187134
2225.523926	1137.958862
2224.776855	1100.962769
2224.029785	1184.429077
2223.282471	1164.163940
2222.534912	1127.181519
2221.787354	1193.881592
2221.039795	1166.937256
2220.291992	1226.922729
2219.543945	1163.213501
2218.795898	1196.443726
2218.047852	1099.345459
2217.299561	1049.052002
2216.551025	1169.134399
2215.802490	1185.642578
2215.053955	1145.377319
2214.305176	1165.222656
2213.556152	1218.443481
2212.807129	1141.478271
2212.058105	1111.257690
2211.308838	1164.461060
2210.559326	1097.550415
2209.809814	1064.016235
2209.060303	1217.249023
2208.310547	1160.365479
2207.560547	1140.172729
2206.810547	1143.319580
2206.060303	1196.456665
2205.310059	1122.952515
2204.559814	1202.728638
2203.809326	1102.598633
2203.058594	1225.649292
2202.307861	1168.838379
2201.557129	1122.034546
2200.806152	1201.745361
2200.054932	1154.951416
2199.303711	1168.073853
2198.552246	1241.083374
2197.800781	1164.364868
2197.049316	1164.174316
2196.297607	1150.681152
2195.545654	1137.192383
2194.793701	1256.691162
2194.041504	1136.820190
2193.289307	1136.634033
2192.537109	1252.751221
2191.784668	1209.354858
2191.031982	1152.685303
2190.279297	1145.853882
2189.526367	1238.647949
2188.773438	1215.203491
2188.020508	1168.528931
2187.267090	1211.486450
2186.513916	1217.925293
2185.760498	1307.313232
2185.006836	1270.606445
2184.253174	1220.643921
2183.499268	1256.924561
2182.745361	1273.298096
2181.991211	1256.512817
2181.237061	1259.621704
2180.482666	1232.901367
2179.728271	1252.581543
2178.973877	1242.436890
2178.218994	1222.357544
2177.464355	1278.462524
2176.709229	1284.876099
2175.954346	1251.555542
2175.198975	1214.935425
2174.443848	1204.806519
2173.688232	1237.702759
2172.932861	1154.779175
2172.177002	1250.530029
2171.421387	1204.016724
2170.665283	1170.747314
2169.909424	1263.141602
2169.153076	1239.791626
2168.396729	1246.199463
2167.640381	1302.180542
2166.883789	1153.265137
2166.127197	1245.586426
2165.370361	1251.988892
2164.613525	1202.240601
2163.856445	1377.066162
2163.099365	1257.976318
2162.342041	1294.083496
2161.584473	1221.255981
2160.826904	1267.257690
2160.069336	1270.349243
2159.311523	1134.879028
2158.553711	1233.648560
2157.795654	1266.425903
2157.037354	1200.269165
2156.279053	1289.088501
2155.520752	1272.395020
2154.762207	1315.031738
2154.003662	1248.910278
2153.244873	1189.400024
2152.485840	1182.616333
2151.726807	1314.168335
2150.967773	1254.676392
2150.208252	1313.736694
2149.448975	1270.724487
2148.689453	1323.179688
2147.929688	1253.852295
2147.169922	1270.098389
2146.410156	1329.107422
2145.650146	1217.051880
2144.889893	1276.050049
2144.129639	1288.993408
2143.369141	1255.904541
2142.608643	1258.985229
2141.847900	1314.651001
2141.087158	1301.290649
2140.326416	1251.793579
2139.565186	1248.302734
2138.804199	1346.631592
2138.042725	1241.324585
2137.281494	1267.387573
2136.519775	1313.139038
2135.758301	1240.712402
2134.996338	1276.607788
2134.234619	1302.647705
2133.472412	1299.152832
2132.710449	1302.219238
2131.947998	1288.886719
2131.185547	1331.302612
2130.423096	1317.969482
2129.660400	1386.590454
2128.897705	1353.587891
2128.134766	1415.626465
2127.371826	1317.102417
2126.608643	1326.713135
2125.845215	1355.972534
2125.081787	1381.947388
2124.318359	1309.687256
2123.554688	1371.671509
2122.790771	1315.802368
2122.026855	1322.130981
2121.262939	1390.626709
2120.498779	1282.437500
2119.734375	1301.852295
2118.969971	1331.072021
2118.205322	1330.852783
2117.440674	1360.057983
2116.676025	1359.834106
2115.911133	1392.293091
2115.145996	1310.369873
2114.380859	1368.963989
2113.615479	1306.671631
2112.850098	1361.980713
2112.084473	1368.287598
2111.318848	1332.146484
2110.552979	1296.017212
2109.787109	1406.779297
2109.020996	1380.439941
2108.254883	1328.005859
2107.488525	1419.133545
2106.722168	1356.924683
2105.955566	1418.665771
2105.188965	1415.171143
2104.422119	1388.856079
2103.655029	1346.251221
2102.887939	1336.251831
2102.120850	1404.462402
2101.353516	1339.069336
2100.585938	1400.741821
2099.818359	1393.996826
2099.050781	1361.202393
2098.282959	1439.120117
2097.514893	1399.818115
2096.746826	1425.626099
2095.978760	1337.524414
2095.210449	1268.974365
2094.441895	1395.641602
2093.673340	1405.169434
2092.904541	1479.737549
2092.135742	1424.215576
2091.366699	1319.945557
2090.597656	1335.980469
2089.828369	1296.759766
2089.059082	1387.531372
2088.289551	1458.779419
2087.520020	1419.557617
2086.750244	1367.357300
2085.980469	1425.583740
2085.210449	1551.973877
2084.440186	1356.941406
2083.670166	1395.666138
2082.899658	1369.474121
2082.129150	1460.098633
2081.358643	1381.998413
2080.587891	1440.154907
2079.816895	1401.000366
2079.045898	1397.526489
2078.274902	1381.085693
2077.503662	1471.618164
2076.732178	1354.702148
2075.960693	1454.930054
2075.188965	1438.490479
2074.417236	1460.927979
2073.645264	1392.672363
2072.873291	1402.156982
2072.101074	1521.720337
2071.328857	1411.405151
2070.556396	1394.988647
2069.783936	1401.230347
2069.011230	1407.469849
2068.238525	1433.117432
2067.465576	1371.425171
2066.692627	1406.771973
2065.919434	1467.974487
2065.145996	1416.005493
2064.372559	1454.559570
2063.599121	1502.796387
2062.825439	1567.173584
2062.051514	1521.683838
2061.277588	1430.986206
2060.503662	1375.844849
2059.729248	1495.095825
2058.955078	1456.105103
2058.180664	1484.916870
2057.406006	1458.850952
2056.631348	1471.517578
2055.856445	1416.423950
2055.081543	1448.449097
2054.306396	1451.434814
2053.531250	1464.094116
2052.755859	1492.870850
2051.980225	1479.728516
2051.204590	1521.386230
2050.428955	1579.143677
2049.653076	1520.882568
2048.877197	1594.729248
2048.101074	1407.639038
2047.324707	1491.141846
2046.548340	1610.037720
2045.771851	1445.574463
2044.995239	1467.868164
2044.218506	1464.406494
2043.441528	1486.689575
2042.664551	1483.225952
2041.887329	1505.498413
2041.110107	1518.114380
2040.332642	1498.567993
2039.555176	1459.736450
2038.777466	1449.850342
2037.999634	1497.823242
2037.221802	1542.566650
2036.443726	1526.245239
2035.665527	1535.630127
2034.887207	1493.618652
2034.108765	1522.275024
2033.330200	1644.041382
2032.551514	1489.665527
2031.772705	1537.567871
2030.993774	1559.778931
2030.214600	1479.298096
2029.435425	1533.594849
2028.656128	1546.171875
2027.876587	1536.293701
2027.097046	1629.034912
2026.317261	1548.609009
2025.537476	1474.621094
2024.757446	1548.095337
2023.977295	1637.568359
2023.197021	1509.132568
2022.416626	1595.378662
2021.636230	1595.114014
2020.855591	1617.266968
2020.074707	1533.747192
2019.293823	1562.305664
2018.512817	1520.434570
2017.731689	1577.789063
2016.950439	1564.727783
2016.168945	1590.062744
2015.387451	1551.413330
2014.605713	1611.922729
2013.823975	1579.677856
2013.041992	1557.035156
2012.260010	1556.776611
2011.477783	1674.775146
2010.695435	1626.562988
2009.912964	1565.586548
2009.130371	1590.882813
2008.347656	1648.110840
2007.564819	1599.934937
2006.781860	1548.581909
2005.998779	1557.901978
2005.215576	1650.208008
2004.432129	1582.915283
2003.648682	1652.850586
2002.864990	1515.393066
2002.081299	1674.629761
2001.297363	1540.403442
2000.513428	1610.299072
1999.729248	1523.950562
1998.944946	1689.455078
1998.160522	1622.244751
1997.375977	1570.989624
1996.591309	1631.263672
1995.806519	1535.426514
1995.021606	1659.386353
1994.236572	1617.712280
1993.451416	1677.938232
1992.666016	1636.274902
1991.880615	1686.928955
1991.094971	1664.371948
1990.309326	1699.095215
1989.523438	1619.280151
1988.737549	1584.022339
1987.951416	1644.183350
1987.165161	1675.707031
1986.378784	1643.636353
1985.592285	1684.685425
1984.805664	1652.623901
1984.018921	1607.862549
1983.232056	1652.073975
1982.444946	1674.034790
1981.657837	1588.003906
1980.870605	1648.073730
1980.083130	1647.799438
1979.295654	1682.443726
1978.507935	1605.990234
1977.720093	1621.589722
1976.932129	1621.319702
1976.144165	1617.877441
1975.355957	1700.074463
1974.567627	1626.852539
1973.779053	1686.825317
1972.990479	1680.203979
1972.201782	1648.227539
1971.412964	1663.798706
1970.623901	1647.678467
1969.834839	1717.101929
1969.045532	1659.799805
1968.256226	1722.863892
1967.466675	1713.077271
1966.677002	1693.796021
1965.887207	1712.506470
1965.097290	1661.582397
1964.307251	1711.935791
1963.517090	1654.700806
1962.726807	1755.651855
1961.936401	1733.219482
1961.145874	1783.527100
1960.355103	1688.377197
1959.564331	1678.612061
1958.773315	1684.653564
1957.982178	1668.571777
1957.191040	1687.251465
1956.399658	1680.651855
1955.608154	1762.494995
1954.816528	1746.410645
1954.024780	1799.797607
1953.232910	1654.274780
1952.440918	1713.972046
1951.648682	1663.190796
1950.856445	1732.332886
1950.063965	1769.902710
1949.271484	1706.519775
1948.478760	1715.696655
1947.685913	1762.710205
1946.893066	1759.263306
1946.099976	1683.315063
1945.306763	1793.345337
1944.513428	1726.870361
1943.719971	1710.828613
1942.926270	1719.993530
1942.132568	1776.400024
1941.338745	1776.103394
1940.544678	1775.806885
1939.750610	1734.585449
1938.956299	1746.885986
1938.161865	1705.683105
1937.367310	1865.869263
1936.572632	1764.886719
1935.777832	1836.937012
1934.982910	1761.152222
1934.187866	1713.692261
1933.392700	1792.002563
1932.597290	1738.266357
1931.801880	1873.116943
1931.006226	1715.689575
1930.210571	1822.222900
1929.414673	1799.929688
1928.618652	1790.206665
1927.822510	1730.243896
1927.026245	1883.798218
1926.229858	1817.561523
1925.433350	1895.723022
1924.636719	1763.606323
1923.839844	1810.375000
1923.042969	1725.372192
1922.245850	1781.541016
1921.448730	1793.787109
1920.651367	1730.777710
1919.853882	1811.996826
1919.056274	1852.441162
1918.258545	1805.122925
1917.460693	1833.021362
1916.662720	1848.379028
1915.864624	1860.598999
1915.066284	1785.124634
1914.267944	1813.007446
1913.469360	1925.411133
1912.670776	1840.572754
1911.871948	1721.336182
1911.072998	1786.760742
1910.273926	1755.175171
1909.474731	1848.725342
1908.675415	1814.012329
1907.875977	1844.979492
1907.076294	1838.417480
1906.276611	1800.597290
1905.476807	1800.295776
1904.676758	1874.994141
1903.876587	1902.800415
1903.076294	1815.011353
1902.275879	1824.077637
1901.475342	1848.755371
1900.674683	1839.078613
1899.873901	1835.648682
1899.072998	2000.771606
1898.271851	1847.516968
1897.470703	1816.004639
1896.669312	1896.814209
1895.867920	1802.919189
1895.066284	1896.178589
1894.264526	1877.151733
1893.462646	1889.307739
1892.660645	1929.514038
1891.858521	1926.074097
1891.056152	1847.848633
1890.253784	1822.614258
1889.451172	1928.220703
1888.648560	1874.950317
1887.845703	1855.951904
1887.042725	1861.867798
1886.239624	1954.944580
1885.436401	1939.054565
1884.633057	1944.953247
1883.829590	1860.619141
1883.025879	1891.415894
1882.222168	1956.416260
1881.418213	1881.452026
1880.614258	1874.917725
1879.810059	1859.059204
1879.005737	1933.345947
1878.201294	1883.297485
1877.396729	1907.839355
1876.592041	1913.732666
1875.787231	2000.384766
1874.982178	1953.463989
1874.177124	1987.292725
1873.371826	1903.134399
1872.566406	1964.896973
1871.760986	1952.152832
1870.955322	1967.340332
1870.149536	1976.317749
1869.343506	1957.373779
1868.537476	1938.436157
1867.731323	2015.635132
1866.924927	1903.680176
1866.118530	1949.859497
1865.311890	1983.625610
1864.505127	1983.292358
1863.698242	1880.712891
1862.891235	1948.549805
1862.084106	1997.779785
1861.276855	1944.798340
1860.469482	1944.471558
1859.661865	1962.719482
1858.854126	1977.865967
1858.046387	2014.670410
1857.238403	2014.331787
1856.430298	1967.587891
1855.622070	1976.536743
1854.813721	1994.760376
1854.005249	1963.503784
1853.196533	2012.639404
1852.387817	1965.934692
1851.578857	1977.966431
1850.769775	2023.984741
1849.960693	1943.316528
1849.151367	1989.324951
1848.341919	2035.317749
1847.532227	2031.887451
1846.722534	2102.557129
1845.912720	1901.552734
1845.102661	2101.849854
1844.292603	2033.606567
1843.482300	2051.776855
1842.671875	2023.667847
1841.861328	2001.736938
1841.050659	1967.478027
1840.239868	2028.812988
1839.428833	2087.044434
1838.617798	2021.965698
1837.806519	2003.134888
1836.995117	2085.990967
1836.183716	2020.944824
1835.372070	2042.166016
1834.560303	1961.750732
1833.748291	2096.903076
1832.936279	2090.392822
1832.124146	1985.384888
1831.311768	2006.593750
1830.499390	1993.947510
1829.686768	2067.449219
1828.874023	2057.872803
1828.061157	2079.054932
1827.248169	2069.479736
1826.434937	2084.503418
1825.621704	2013.450928
1824.808228	2049.993164
1823.994751	2065.012451
1823.181030	2141.474854
1822.367188	2098.107422
1821.553223	2076.254150
1820.739136	2094.329346
1819.924927	2038.710205
1819.110474	2016.877808
1818.296021	2074.854736
1817.481323	2080.642578
1816.666626	2144.725586
1815.851685	2125.957520
1815.036621	2122.531738
1814.221436	2039.372192
1813.406006	2253.662842
1812.590576	2084.669922
1811.774902	2151.752197
1810.959229	2044.126221
1810.143311	2077.486816
1809.327271	2169.045166
1808.511108	2079.849121
1807.694824	2107.061523
1806.878418	2143.450928
1806.061768	2106.350586
1805.245117	2148.849854
1804.428223	2105.639893
1803.611206	2041.024414
1802.794067	2114.107666
1801.976807	2171.871338
1801.159424	2073.634033
1800.341919	2155.848389
1799.524170	2060.704346
1798.706421	2249.884766
1797.888428	2221.997314
1797.070313	2114.666504
1796.252075	2117.364746
1795.433716	2129.226563
1794.615234	2067.780518
1793.796509	2055.216064
1792.977783	2167.840820
1792.158813	2097.260742
1791.339844	2206.788086
1790.520630	2182.001221
1789.701294	2151.120361
1788.881714	2208.720459
1788.062134	2080.238770
1787.242432	2198.825195
1786.422485	2128.322510
1785.602417	2079.184326
1784.782349	2231.239990
1783.962036	2218.672363
1783.141479	2196.967529
1782.320923	2138.710938
1781.500244	2156.625977
1780.679321	2241.537109
1779.858398	2271.608643
1779.037231	2256.001953
1778.215942	2194.739990
1777.394531	2233.934326
1776.572998	2193.997803
1775.751221	2181.456787
1774.929443	2126.332520
1774.107422	2162.470215
1773.285278	2083.040039
1772.463013	2207.344971
1771.640625	2200.891602
1770.818115	2215.716309
1769.995483	2233.574707
1769.172607	2224.081543
1768.349731	2269.272949
1767.526611	2186.880859
1766.703369	2186.510742
1765.880005	2243.830566
1765.056519	2203.985352
1764.232910	2176.294678
1763.409058	2218.413086
1762.585083	2211.968994
1761.761108	2232.830566
1760.936890	2241.552246
1760.112549	2256.336182
1759.288086	2186.213623
1758.463379	2298.015625
1757.638672	2273.377197
1756.813721	2354.819824
1755.988647	2251.395996
1755.163574	2257.073975
1754.338257	2302.128174
1753.512695	2171.508301
1752.687134	2228.674072
1751.861328	2270.682617
1751.035522	2276.351807
1750.209473	2215.435059
1749.383301	2302.814697
1748.557007	2105.765381
1747.730591	2196.158691
1746.903931	2274.423584
1746.077271	2328.469727
1745.250366	2213.182861
1744.423340	2303.496582
1743.596313	2275.904053
1742.768921	2302.715576
1741.941528	2214.703857
1741.114014	2368.394775
1740.286255	2283.421875
1739.458374	2195.457764
1738.630493	2409.460938
1737.802368	2227.920654
1736.973999	2309.038086
1736.145630	2311.664307
1735.317139	2302.219971
1734.488403	2325.963867
1733.659546	2204.917236
1732.830566	2279.937744
1732.001465	2294.627197
1731.172241	2137.469971
1730.342896	2429.489990
1729.513306	2242.225586
1728.683594	2335.255127
1727.853882	2340.884033
1727.023926	2292.291260
1726.193726	2328.042480
1725.363525	2324.635986
1724.533203	2291.123779
1723.702637	2308.795898
1722.871948	2302.384521
1722.041138	2301.993408
1721.210205	2370.801025
1720.379150	2289.178955
1719.547974	2294.805420
1718.716553	2363.578857
1717.885010	2384.223389
1717.053467	2308.666260
1716.221558	2410.463379
1715.389648	2355.962646
1714.557617	2307.489746
1713.725342	2364.174072
1712.893066	2291.687744
1712.060547	2297.304443
1711.227905	2441.033936
1710.395142	2380.579102
1709.562256	2383.176025
1708.729126	2304.745605
1707.895874	2367.363281
1707.062622	2330.961426
1706.229126	2336.563965
1705.395508	2315.174072
1704.561646	2326.773926
1703.727783	2323.380371
1702.893677	2337.972168
1702.059570	2328.583740
1701.225220	2403.097168
1700.390747	2381.717285
1699.556030	2408.270508
1698.721313	2368.927490
1697.886353	2431.405762
1697.051392	2353.152344
1696.216187	2511.397949
1695.380859	2418.193359
1694.545410	2417.781738
1693.709717	2360.526123
1692.874023	2381.063232
1692.038086	2359.722656
1691.202026	2484.912109
1690.365845	2409.745117
1689.529541	2418.302490
1688.692993	2411.913330
1687.856445	2429.431885
1687.019653	2446.944580
1686.182739	2452.502197
1685.345703	2487.925049
1684.508545	2379.998047
1683.671143	2370.635742
1682.833740	2441.876221
1681.996094	2375.797363
1681.158325	2402.250000
1680.320435	2446.595459
1679.482422	2401.431396
1678.644287	2514.362549
1677.805908	2391.666748
1676.967407	2397.222412
1676.128784	2441.530518
1675.290039	2393.424561
1674.451172	2357.255371
1673.612183	2407.506592
1672.772949	2514.343018
1671.933594	2451.364258
1671.094116	2486.683105
1670.254517	2408.842773
1669.414795	2408.431885
1668.574829	2506.247070
1667.734863	2425.466553
1666.894653	2553.000488
1666.054321	2504.964844
1665.213867	2531.308105
1664.373169	2536.824219
1663.532471	2476.921631
1662.691528	2491.363770
1661.850464	2452.296631
1661.009277	2499.429688
1660.167969	2457.402588
1659.326538	2534.228027
1658.484863	2575.381836
1657.643066	2503.663574
1656.801147	2500.266846
1655.959106	2505.777832
1655.116943	2487.539551
1654.274658	2454.467773
1653.432129	2492.625000
1652.589478	2515.934570
1651.746704	2530.336914
1650.903809	2589.222656
1650.060791	2582.849854
1649.217529	2570.549072
1648.374146	2567.145752
1647.530640	2531.140869
1646.687012	2598.865723
1645.843262	2654.715820
1644.999390	2470.596924
1644.155273	2490.907471
1643.311035	2526.017822
1642.466675	2584.802734
1641.622192	2554.757813
1640.777588	2557.281006
1639.932739	2601.233643
1639.087769	2621.500732
1638.242798	2558.928223
1637.397461	2573.279785
1636.552124	2575.797119
1635.706665	2551.702393
1634.860962	2506.921875
1634.015137	2577.431885
1633.169189	2588.812012
1632.323120	2617.916992
1631.476929	2629.286133
1630.630493	2549.085205
1629.783936	2690.405029
1628.937256	2542.307861
1628.090454	2657.010010
1627.243530	2544.389648
1626.396484	2647.247314
1625.549194	2608.434814
1624.701782	2557.834961
1623.854248	2507.252197
1623.006592	2621.842041
1622.158691	2656.777588
1621.310791	2579.669922
1620.462646	2596.914307
1619.614380	2625.941650
1618.765991	2657.905518
1617.917358	2589.688477
1617.068726	2645.212891
1616.219849	2703.663330
1615.370850	2785.650879
1614.521729	2593.803467
1613.672363	2696.387207
1612.822998	2719.470459
1611.973389	2780.800293
1611.123657	2692.059570
1610.273804	2665.123779
1609.423828	2788.194824
1608.573608	2705.379395
1607.723389	2749.017578
1606.872925	2745.606934
1606.022339	2686.354248
1605.171509	2600.673828
1604.320679	2753.010010
1603.469604	2693.785889
1602.618408	2749.129150
1601.767090	2775.087402
1600.915649	2771.675537
1600.064087	2803.491699
1599.212280	2829.427002
1598.360352	2655.801025
1597.508301	2784.445313
1596.656128	2651.956787
1595.803833	2730.695068
1594.951294	2800.608398
1594.098633	2735.622559
1593.245850	2852.416016
1592.392944	2749.339355
1591.539795	2845.576172
1590.686646	2956.430420
1589.833252	2803.586182
1588.979736	2765.027344
1588.126099	2831.909424
1587.272217	2907.552734
1586.418335	2781.169189
1585.564209	2719.223877
1584.709961	2756.802246
1583.855591	2844.110107
1583.000977	2750.004639
1582.146362	2866.533936
1581.291504	2778.305908
1580.436523	2792.448975
1579.581421	2803.663574
1578.726074	2768.105713
1577.870605	2732.560059
1577.015137	2942.476318
1576.159424	2769.601318
1575.303467	2786.651611
1574.447510	2905.914063
1573.591309	2806.134277
1572.734985	2960.386475
1571.878540	2802.251221
1571.021973	2883.487793
1570.165161	2821.714111
1569.308350	2943.764648
1568.451294	2864.499512
1567.594116	2840.675049
1566.736694	2834.354736
1565.879272	2938.825684
1565.021606	2821.720459
1564.163818	2911.584717
1563.305908	2861.546143
1562.447876	2826.092285
1561.589600	2889.692139
1560.731201	2848.420166
1559.872681	2850.842285
1559.014038	2847.440674
1558.155273	2832.395752
1557.296265	2922.133789
1556.437134	2909.991211
1555.577881	2944.404541
1554.718506	2862.446289
1553.859009	2925.940430
1552.999268	2960.332764
1552.139404	2930.748535
1551.279419	3069.779541
1550.419312	3043.093018
1549.558960	3001.885254
1548.698608	3012.990479
1547.838013	2980.517090
1546.977173	3006.144287
1546.116333	3028.858643
1545.255249	3077.696533
1544.394165	3117.808350
1543.532837	3006.977051
1542.671265	3160.264404
1541.809692	3194.538086
1540.947876	3234.601807
1540.085938	3242.746094
1539.223877	3346.587158
1538.361694	3435.894775
1537.499268	3481.686523
1536.636841	3712.966064
1535.774170	3576.120605
1534.911377	3850.766113
1534.048340	3705.252930
1533.185303	3837.853027
1532.322021	3903.799561
1531.458618	3877.067139
1530.594971	3992.198730
1529.731323	3994.405029
1528.867432	3770.878662
1528.003418	3625.553711
1527.139282	3567.068604
1526.275024	3410.258545
1525.410522	3276.638184
1524.545898	3296.313721
1523.681152	3226.361084
1522.816284	3170.885010
1521.951172	3176.118164
1521.086060	3268.034668
1520.220703	3079.685059
1519.355225	2960.724854
1518.489502	3017.974365
1517.623779	2997.240967
1516.757813	3022.707031
1515.891724	3079.915771
1515.025513	2952.399414
1514.159058	3018.256836
1513.292480	2922.530029
1512.425781	2898.949219
1511.558960	2953.245361
1510.692017	2987.337891
1509.824829	2957.991943
1508.957520	2925.773438
1508.090088	3054.959717
1507.222534	3086.129150
1506.354736	3045.261719
1505.486938	2949.677734
1504.618896	2905.967529
1503.750610	2980.333984
1502.882324	2976.940186
1502.013794	2973.547363
1501.145142	2852.155273
1500.276367	3032.948730
1499.407471	2960.498047
1498.538330	2982.999023
1497.669067	2942.218506
1496.799683	2921.581055
1495.930176	2906.700928
1495.060547	3055.676514
1494.190674	2891.325684
1493.320679	3060.367432
1492.450562	2933.422363
1491.580200	2889.826416
1490.709717	2978.361816
1489.839233	2894.570313
1488.968384	2985.945068
1488.097534	2902.181152
1487.226440	2996.392822
1486.355347	2955.699951
1485.483887	2966.665283
1484.612427	3046.473389
1483.740845	3002.924561
1482.869019	2993.802246
1481.997070	3030.556885
1481.124878	3087.365234
1480.252686	2934.925537
1479.380249	3000.327393
1478.507690	3051.380859
1477.635010	3033.664795
1476.762207	3015.954834
1475.889160	3032.614746
1475.015991	3083.626709
1474.142700	2962.860840
1473.269165	3073.972656
1472.395630	3084.887207
1471.521851	3155.882324
1470.647949	3138.171875
1469.773804	3314.960205
1468.899658	3277.209961
1468.025269	3156.555908
1467.150757	3284.650879
1466.276001	3269.791016
1465.401245	3500.699219
1464.526245	3420.090576
1463.651123	3362.363770
1462.775879	3378.918457
1461.900391	3549.677002
1461.024780	3489.101807
1460.149048	3671.200684
1459.273193	3487.892578
1458.397217	3510.117920
1457.520996	3626.493164
1456.644653	3526.017822
1455.768188	3619.531494
1454.891479	3681.642822
1454.014648	3623.979004
1453.137695	3566.334717
1452.260620	3645.524658
1451.383423	3596.445801
1450.505981	3661.355957
1449.628418	3629.384033
1448.750732	3754.080322
1447.872803	3665.146729
1446.994873	3641.732178
1446.116699	3635.406738
1445.238403	3637.622314
1444.359863	3523.157227
1443.481201	3812.771973
1442.602417	3678.401855
1441.723511	3791.538086
1440.844482	3930.229736
1439.965210	4088.776611
1439.085815	4130.709961
1438.206299	4283.481934
1437.326538	4254.319336
1436.446777	4174.021484
1435.566772	4034.092285
1434.686646	3985.104736
1433.806274	3822.536865
1432.925781	3719.653564
1432.045166	3747.396973
1431.164429	3559.408691
1430.283569	3445.272461
1429.402466	3453.186279
1428.521240	3279.531494
1427.639893	3366.892334
1426.758301	3397.503174
1425.876709	3170.073975
1424.994873	3288.592773
1424.112793	3254.007324
1423.230713	3196.761475
1422.348389	3272.710938
1421.465942	3453.455566
1420.583374	3427.362305
1419.700562	3214.363770
1418.817627	3494.127930
1417.934570	3541.648193
1417.051392	3487.251709
1416.167969	3563.057373
1415.284546	3613.370117
1414.400757	3544.843506
1413.516968	3535.741211
1412.633057	3306.050049
1411.748901	3299.819824
1410.864624	3256.838867
1409.980103	3253.445801
1409.095459	3275.488770
1408.210815	3204.277832
1407.325806	3150.042236
1406.440796	3129.721680
1405.555542	3089.638672
1404.670166	3100.395508
1403.784668	3108.325439
1402.899048	3096.493652
1402.013184	3129.821045
1401.127197	3092.593750
1400.241089	3148.479736
1399.354736	3066.130615
1398.468262	3096.619141
1397.581665	3079.161377
1396.694946	3149.106689
1395.807983	3204.933350
1394.920898	3043.733643
1394.033691	3108.012451
1393.146362	3056.759766
1392.258789	3047.776855
1391.371094	3035.980713
1390.483276	3125.557861
1389.595337	3043.368896
1388.707153	3166.691162
1387.818848	2969.135254
1386.930420	3174.029297
1386.041748	3044.061279
1385.152954	3186.987305
1384.264038	3127.371582
1383.375000	3039.657715
1382.485718	3100.978516
1381.596313	3044.219727
1380.706787	3119.570313
1379.817139	3119.026367
1378.927246	2994.866943
1378.037231	3075.804199
1377.147095	3078.076172
1376.256714	3100.003174
1375.366333	3183.687012
1374.475586	3239.271484
1373.584839	3078.735596
1372.693970	3075.392334
1371.802856	3178.660156
1370.911499	3068.709229
1370.020142	3185.964600
1369.128540	3258.313965
1368.236816	3254.941895
1367.344971	3198.312012
1366.453003	3119.281250
1365.560791	3216.810303
1364.668457	3168.621338
1363.775879	3190.477051
1362.883301	3192.720703
1361.990479	3203.363770
1361.097534	3099.217041
1360.204346	3185.449951
1359.311035	3154.108154
1358.417603	3161.951904
1357.524048	3105.445557
1356.630249	3152.455811
1355.736450	3146.311523
1354.842285	3168.131836
1353.948120	3159.190918
1353.053711	3066.395508
1352.159180	3208.392822
1351.264526	3110.032227
1350.369751	3201.683838
1349.474731	3217.884033
1348.579590	3183.807861
1347.684204	3303.321289
1346.788818	3285.992920
1345.893188	3349.619385
1344.997314	3268.098633
1344.101440	3387.513428
1343.205322	3437.138916
1342.309082	3436.537842
1341.412720	3472.192627
1340.516113	3585.910645
1339.619385	3515.585205
1338.722534	3626.468018
1337.825439	3670.425049
1336.928223	3678.142334
1336.030884	3618.992920
1335.133423	3573.791748
1334.235718	3520.251221
1333.337891	3597.601807
1332.439941	3471.690674
1331.541870	3546.239014
1330.643555	3590.147217
1329.745117	3492.128662
1328.846436	3638.967773
1327.947754	3482.561279
1327.048828	3454.140381
1326.149780	3525.831787
1325.250488	3544.675537
1324.351074	3538.495361
1323.451538	3473.954834
1322.551880	3515.026611
1321.651978	3497.741943
1320.751953	3494.351563
1319.851807	3402.091064
1318.951416	3379.281250
1318.050903	3525.830322
1317.150269	3364.218506
1316.249512	3496.842041
1315.348511	3396.336914
1314.447388	3376.321777
1313.546021	3458.944336
1312.644653	3391.778320
1311.743042	3332.954102
1310.841309	3429.402100
1309.939331	3384.451172
1309.037231	3422.656982
1308.135010	3477.474854
1307.232666	3385.441650
1306.330078	3390.387695
1305.427368	3495.031982
1304.524536	3378.122803
1303.621460	3540.869873
1302.718262	3487.657227
1301.814941	3525.790283
1300.911499	3547.307861
1300.007813	3563.284668
1299.104004	3739.686035
1298.199951	3736.264404
1297.295898	3887.687500
1296.391602	4177.286621
1295.487061	4538.650391
1294.582520	5076.758301
1293.677734	5214.023926
1292.772827	4867.778320
1291.867676	4286.870117
1290.962402	3833.203125
1290.057007	3608.873779
1289.151489	3475.726318
1288.245728	3317.783447
1287.339844	3424.830566
1286.433838	3418.710449
1285.527588	3291.206787
1284.621216	3229.946533
1283.714722	3259.715088
1282.808105	3184.694824
1281.901245	3253.056152
1280.994263	3133.961914
1280.087036	3185.772461
1279.179810	3218.277100
1278.272217	3110.270996
1277.364624	3170.321289
1276.456787	3117.439453
1275.548828	3083.850342
1274.640747	3171.402588
1273.732544	3121.300781
1272.824097	3134.511963
1271.915405	3180.736328
1271.006714	3111.401611
1270.097778	3069.596436
1269.188721	3214.809326
1268.279541	3170.250977
1267.370117	3103.715332
1266.460571	3185.627441
1265.550781	3174.074463
1264.640991	3242.207031
1263.730957	3186.693604
1262.820679	3089.999756
1261.910400	3204.795654
1260.999878	3124.606445
1260.089233	3085.623535
1259.178345	3104.293701
1258.267334	3191.563232
1257.356201	3045.581787
1256.444824	3121.857666
1255.533447	3066.452148
1254.621704	3120.758545
1253.709961	3051.663330
1252.797974	3073.056885
1251.885864	3209.559082
1250.973633	3066.493896
1250.061157	3090.613037
1249.148560	3098.286865
1248.235840	3097.741211
1247.322876	2998.611084
1246.409790	3080.221924
1245.496582	2986.604736
1244.583130	3002.500488
1243.669556	2999.234863
1242.755859	3028.802979
1241.841919	3033.740234
1240.927856	2975.769043
1240.013672	2942.429199
1239.099365	3002.061279
1238.184814	3020.667480
1237.270142	3099.396484
1236.355225	3022.335205
1235.440186	3024.534668
1234.525024	2985.757324
1233.609741	3064.436523
1232.694214	3164.933594
1231.778564	2986.908447
1230.862671	3092.843018
1229.946777	2925.810303
1229.030640	2988.057129
1228.114258	3063.923340
1227.197876	3175.224854
1226.281128	2972.838867
1225.364380	3100.478516
1224.447388	2993.601318
1223.530273	2976.717529
1222.613037	3052.504639
1221.695557	2962.041992
1220.777954	2999.662109
1219.860229	3018.200439
1218.942261	2990.432373
1218.024170	3153.287354
1217.105957	3046.550537
1216.187500	3157.618164
1215.268921	2977.434570
1214.350220	3069.427002
1213.431274	3052.561279
1212.512207	3013.939697
1211.593018	3054.202637
1210.673706	3069.978271
1209.754150	3009.624268
1208.834351	3047.147949
1207.914551	3033.020752
1206.994507	3040.636719
1206.074219	3004.781006
1205.153931	3102.037598
1204.233398	2979.276611
1203.312744	2989.611328
1202.391846	3119.397217
1201.470825	3034.699463
1200.549683	3110.152832
1199.628296	3087.895264
1198.706787	3157.886475
1197.785156	3108.503418
1196.863281	3061.849609
1195.941284	3085.711914
1195.019165	3109.565674
1194.096802	3052.093750
1193.174438	3084.074951
1192.251709	3132.302246
1191.328979	3123.620850
1190.406006	3150.154785
1189.482788	3211.885254
1188.559570	3119.255615
1187.636108	3086.217041
1186.712402	3128.978760
1185.788696	3120.306152
1184.864746	3114.342285
1183.940552	3127.317627
1183.016357	3115.944824
1182.091919	3166.775635
1181.167236	3179.734131
1180.242554	3038.595703
1179.317505	3046.166260
1178.392456	3169.938232
1177.467163	3234.223389
1176.541748	3036.443848
1175.616211	3187.161133
1174.690430	3094.779541
1173.764526	3188.732422
1172.838501	3026.194580
1171.912231	3236.185791
1170.985840	3168.147705
1170.059204	3270.114746
1169.132446	3301.906982
1168.205566	3104.429199
1167.278564	3298.040039
1166.351318	3259.708740
1165.423828	3183.650635
1164.496338	3199.257813
1163.568604	3160.963867
1162.640747	3122.683350
1161.712646	3084.416260
1160.784424	3140.429443
1159.856079	3086.015625
1158.927490	3112.392090
1157.998779	3063.385742
1157.069946	3154.351074
1156.140869	3169.937256
1155.211670	3271.612793
1154.282349	3069.282959
1153.352783	3168.250488
1152.423096	3154.243164
1151.493164	3113.354980
1150.563232	3013.343506
1149.632935	3179.440430
1148.702637	3203.060303
1147.772095	3086.965820
1146.841431	3164.316895
1145.910522	3101.984131
1144.979492	3120.229980
1144.048340	3119.676025
1143.116943	3105.700928
1142.185425	3051.473633
1141.253784	3118.014648
1140.321899	3141.606445
1139.389893	3178.601563
1138.457764	3145.854492
1137.525391	3193.561035
1136.592896	3241.250732
1135.660278	3125.415039
1134.727417	3213.299316
1133.794434	3317.229248
1132.861206	3386.294434
1131.927856	3444.621094
1130.994385	3711.816650
1130.060669	3906.622070
1129.126831	4152.223145
1128.192871	4384.354004
1127.258667	4546.821289
1126.324341	4492.499023
1125.389893	4066.339600
1124.455200	3883.733887
1123.520386	3725.261230
1122.585327	3612.299316
1121.650146	3531.457275
1120.714844	3429.260986
1119.779297	3252.274658
1118.843628	3219.633545
1117.907837	3285.846191
1116.971802	3186.436768
1116.035645	3159.165283
1115.099365	3113.213135
1114.162842	3147.363037
1113.226196	3098.760254
1112.289307	3084.865967
1111.352417	3094.989258
1110.415161	3126.449707
1109.477905	3088.553223
1108.540405	3221.336914
1107.602661	2970.141113
1106.664917	3254.844482
1105.726807	3081.023926
1104.788696	3067.151367
1103.850342	3002.662109
1102.911865	3121.999512
1101.973145	3230.640625
1101.034302	3184.796387
1100.095337	3184.229004
1099.156128	3015.960693
1098.216797	3073.975342
1097.277344	3025.530029
1096.337646	3144.713623
1095.397827	3173.413574
1094.457764	3164.869385
1093.517700	3204.191406
1092.577271	3139.813965
1091.636841	3054.194092
1090.696167	3125.406494
1089.755249	3098.277344
1088.814209	3129.605713
1087.873047	3158.266357
1086.931763	3112.555176
1085.990234	3173.071777
1085.048584	3167.196289
1084.106689	3211.755371
1083.164673	3136.874268
1082.222412	3221.223389
1081.280151	3119.837646
1080.337524	3135.195801
1079.394897	3089.552979
1078.452026	3096.956055
1077.509033	3064.591309
1076.565796	3156.813965
1075.622437	3182.751465
1074.678955	3190.132324
1073.735229	3065.053223
1072.791382	3096.290283
1071.847290	3138.108643
1070.903076	3103.127930
1069.958740	3131.693848
1069.014160	3147.015381
1068.069458	3159.684814
1067.124512	3119.433105
1066.179565	3214.108887
1065.234253	3401.321777
1064.288940	3630.778076
1063.343384	3801.985840
1062.397583	3991.636230
1061.451660	4033.211182
1060.505615	4080.055908
1059.559448	3854.752686
1058.613037	3700.852295
1057.666382	3565.494629
1056.719727	3456.591309
1055.772827	3329.245605
1054.825684	3294.334717
1053.878418	3169.702393
1052.931030	3203.439697
1051.983398	3155.377930
1051.035645	3170.640625
1050.087769	3167.436523
1049.139648	3000.747803
1048.191406	3034.484375
1047.242920	3070.844482
1046.294312	3149.358643
1045.345581	3019.681641
1044.396606	3008.603516
1043.447510	3108.158447
1042.498291	3049.664063
1041.548828	3012.255127
1040.599121	3164.408203
1039.649414	3042.763184
1038.699341	3021.165039
1037.749268	2978.525146
1036.798950	3033.237549
1035.848511	3009.022217
1034.897827	2979.555908
1033.947021	2971.134521
1032.996094	3062.612549
1032.044922	2962.185547
1031.093506	2909.096924
1030.142090	3011.046387
1029.190430	3034.149902
1028.238525	2999.461914
1027.286499	3082.957520
1026.334351	3113.912109
1025.381958	3031.976563
1024.429443	2926.448730
1023.476807	2876.065674
1022.523926	3048.713135
1021.570923	2958.977783
1020.617737	2984.674805
1019.664368	3005.118164
1018.710815	3028.175781
1017.757080	2998.798340
1016.803223	3053.298828
1015.849121	2976.760254
1014.894897	3033.864746
1013.940491	2897.109619
1012.985962	3095.632568
1012.031189	3019.140625
1011.076294	3068.342041
1010.121216	3020.675537
1009.165955	3067.241699
1008.210510	3037.908447
1007.254944	3021.666504
1006.299133	3044.665771
1005.343201	2986.584717
1004.387085	2986.048828
1003.430786	2941.070313
1002.474365	3045.095215
1001.517700	3000.121826
1000.560913	2858.488037
999.603943	3014.719482
998.646790	2969.775391
997.689514	3136.376465
996.731995	2984.375244
995.774353	2910.744629
994.816528	2944.152832
993.858521	3006.254395
992.900330	2898.740479
991.942017	3013.000977
990.983459	2988.986084
990.024780	3022.349609
989.065918	3029.628418
988.106873	2989.982422
987.147705	2955.563232
986.188293	2968.061523
985.228760	3045.689697
984.269043	2977.414551
983.309143	2961.252930
982.349060	3002.384277
981.388794	2848.237793
980.428406	3022.129639
979.467834	2904.470703
978.507019	2924.765381
977.546082	2984.077148
976.585022	3045.968750
975.623718	3105.237305
974.662292	2992.868896
973.700623	3059.924561
972.738831	3012.586914
971.776855	2934.080078
970.814758	3011.503174
969.852417	2966.797363
968.889954	2867.561279
967.927246	3038.444824
966.964417	3001.547363
966.001404	3037.351563
965.038208	3112.076416
964.074890	3036.258545
963.111328	3077.226074
962.147644	3024.789063
961.183777	3076.118652
960.219727	2987.395264
959.255493	3028.341553
958.291077	2999.281006
957.326538	3037.618408
956.361755	3047.437012
955.396851	3015.797363
954.431763	3092.967041
953.466492	3001.761475
952.501038	3102.210938
951.535461	3119.775391
950.569641	2984.608398
949.603699	3097.946777
948.637573	3009.409424
947.671265	3019.215820
946.704773	2925.550781
945.738098	3056.921143
944.771240	3058.956055
943.804260	3084.257568
942.837097	3050.098877
941.869751	3072.808350
940.902222	2919.804443
939.934509	3014.865234
938.966614	3065.980957
937.998535	3021.525635
937.030334	3051.965088
936.061951	3100.464600
935.093323	3076.675537
934.124573	3024.507813
933.155640	3049.763916
932.186584	3056.952881
931.217285	3033.188232
930.247864	3086.795410
929.278198	3044.985596
928.308411	2992.879150
927.338440	3059.351074
926.368286	3030.452881
925.397949	3019.600098
924.427429	3067.998779
923.456787	3077.747070
922.485901	3005.089844
921.514893	3092.083496
920.543701	3032.320313
919.572327	3114.130127
918.600769	3072.396484
917.629028	3123.296387
916.657104	3066.142334
915.685059	3039.870605
914.712769	2980.180908
913.740356	2966.788086
912.767761	3009.949219
911.794983	3119.912842
910.822021	3085.946045
909.848877	3054.560303
908.875549	3048.871094
907.902039	3061.160645
906.928406	3109.392334
905.954590	2988.173828
904.980530	3015.867188
904.006348	3094.875244
903.031982	3145.631104
902.057434	3021.927979
901.082703	3157.318115
900.107849	3143.925293
899.132751	3086.950684
898.157532	3173.549561
897.182068	3144.782715
896.206482	3092.963623
895.230713	3100.090332
894.254761	3079.036621
893.278625	3101.529785
892.302307	3065.119385
891.325806	3038.962646
890.349182	3104.966064
889.372314	3068.574219
888.395325	3126.871826
887.418091	3070.021973
886.440735	2997.845459
885.463196	3135.403809
884.485474	3104.152588
883.507568	2980.878662
882.529480	3126.032959
881.551270	3018.132813
880.572815	3053.357910
879.594238	3144.772217
878.615417	3057.360352
877.636475	3102.773682
876.657349	3084.338867
875.677979	3132.283203
874.698486	3039.831787
873.718811	3177.082275
872.739014	3105.067139
871.758972	3232.051758
870.778748	3264.622314
869.798401	3133.979492
868.817810	3120.663818
867.837097	3035.977783
866.856140	2989.552002
865.875061	3078.196289
864.893799	3077.638184
863.912354	3214.631836
862.930725	3114.724121
861.948914	3124.344482
860.966919	3123.777832
859.984741	3023.940674
859.002441	2952.133789
858.019897	3160.245850
857.037231	3052.823730
856.054321	3197.252686
855.071289	3072.060791
854.088074	3104.557617
853.104614	3124.331787
852.121033	3179.682373
851.137268	3229.930420
850.153320	3173.446777
849.169189	3183.032227
848.184937	3184.994141
847.200439	3164.100830
846.215759	3186.376953
845.230896	3155.336426
844.245911	3129.383301
843.260681	3111.052246
842.275330	3151.080811
841.289795	3168.265137
840.304016	3205.732178
839.318115	3195.007080
838.332031	3176.679932
837.345764	3221.729248
836.359314	3127.373291
835.372681	3162.279297
834.385864	3098.369385
833.398865	3161.130127
832.411743	3150.425781
831.424377	3235.942383
830.436829	3156.875488
829.449158	3153.770508
828.461243	3208.871582
827.473206	3210.818359
826.484924	3182.407471
825.496521	3219.768066
824.507935	3135.731689
823.519104	3114.934570
822.530151	3243.290771
821.541016	3060.725342
820.551697	3153.666748
819.562195	3193.517334
818.572510	3245.983643
817.582642	3156.997070
816.592590	3237.227051
815.602356	3178.570557
814.611938	3215.855225
813.621399	3126.938477
812.630615	3199.545166
811.639648	3204.008301
810.648560	3208.469971
809.657227	3049.004639
808.665771	3229.995117
807.674072	3229.406982
806.682251	3112.873779
805.690186	3152.628418
804.697998	3197.407471
803.705566	3211.940186
802.713013	3150.906250
801.720276	3092.412354
800.727356	3185.007568
799.734253	3189.461914
798.740906	3186.364014
797.747437	3213.463867
796.753784	3160.043213
795.759949	3169.529297
794.765930	3133.741211
793.771729	3178.432617
792.777344	3218.079102
791.782776	3119.459717
790.788025	3186.747559
789.793091	3206.268555
788.798035	3193.122559
787.802734	3240.265137
786.807251	3289.901855
785.811584	3176.310547
784.815796	3185.773193
783.819763	3222.842041
782.823547	3204.687256
781.827148	3199.084717
780.830627	3253.690918
779.833862	3180.360352
778.836975	3197.333984
777.839844	3204.272217
776.842529	3258.837158
775.845093	3310.875488
774.847412	3257.647705
773.849609	3136.792725
772.851563	3178.804443
771.853394	3178.224121
770.854980	3227.725098
769.856445	3207.106934
768.857666	3181.489990
767.858765	3321.059082
766.859680	3325.457031
765.860352	3244.793213
764.860901	3341.751709
763.861206	3183.587402
762.861389	3195.507813
761.861389	3237.423096
760.861145	3266.825439
759.860779	3248.735352
758.860168	3183.178711
757.859436	3247.548096
756.858521	3142.052979
755.857361	3343.751953
754.856079	3288.212402
753.854614	3315.070557
752.852905	3364.381104
751.851074	3398.701172
750.848999	3420.534180
749.846802	3671.849365
748.844421	3863.216553
747.841797	4049.526123
746.839050	3884.241455
745.836121	3843.648682
744.832947	3501.516602
743.829651	3565.660889
742.826111	3552.552246
741.822449	3317.765625
740.818604	3436.695801
739.814514	3234.384766
738.810303	3343.328613
737.805847	3342.716797
736.801270	3312.242432
735.796448	3393.742920
734.791504	3338.393799
733.786316	3270.629150
732.781006	3327.224609
731.775452	3234.623779
730.769775	3201.716064
729.763855	3265.748779
728.757751	3267.635742
727.751526	3267.037354
726.745056	3286.310791
725.738403	3216.169922
724.731628	3287.589844
723.724609	3336.639893
722.717407	3306.242676
721.710083	3394.978271
720.702515	3277.737305
719.694763	3299.463867
718.686829	3301.339355
717.678711	3340.412598
716.670410	3310.047119
715.661987	3326.793213
714.653320	3341.054443
713.644470	3298.314697
712.635437	3478.575928
711.626221	3403.623047
710.616821	3316.314209
709.607178	3399.898682
708.597412	3342.331543
707.587463	3413.503662
706.577332	3405.452881
705.567017	3434.521240
704.556458	3302.770020
703.545776	3396.158203
702.534912	3336.181152
701.523804	3325.678467
700.512573	3419.010498
699.501099	3445.571777
698.489502	3393.042969
697.477661	3347.945557
696.465698	3297.923828
695.453491	3322.017334
694.441101	3222.629639
693.428589	3320.797607
692.415833	3339.936035
691.402893	3364.003662
690.389771	3237.536377
689.376465	3407.177246
688.362976	3339.949707
687.349304	3383.729248
686.335449	3252.418945
685.321411	3365.228516
684.307190	3305.452148
683.292725	3381.243164
682.278137	3326.413574
681.263367	3249.431885
680.248352	3349.822021
679.233215	3322.116943
678.217834	3321.506348
677.202332	3274.122559
676.186584	3256.291504
675.170654	3245.849365
674.154541	3294.460449
673.138306	3244.655762
672.121826	3352.276367
671.105164	3231.167236
670.088318	3255.158691
669.071289	3205.397461
668.054016	3347.352783
667.036621	3255.819824
666.019043	3346.121338
665.001282	3289.010254
663.983276	3308.052002
662.965149	3295.166016
661.946777	3228.275635
660.928223	3212.954346
659.909546	3396.417480
658.890625	3278.019043
657.871521	3324.025635
656.852234	3289.075684
655.832764	3393.916992
654.813110	3305.027100
653.793274	3228.426758
652.773254	3281.751709
651.752991	3178.228760
650.732605	3165.393311
649.711975	3336.278076
648.691223	3347.908936
647.670227	3364.432617
646.649048	3180.198486
645.627747	3265.283447
644.606201	3291.601807
643.584473	3195.568604
642.562561	3309.959717
641.540466	3248.201172
640.518127	3316.076172
639.495667	3359.475342
638.473022	3366.189697
637.450134	3231.141846
636.427063	3352.729980
635.403870	3278.814941
634.380432	3280.653076
633.356812	3363.087158
632.333008	3377.118164
631.309021	3237.333740
630.284851	3373.431396
629.260498	3409.416748
628.235901	3386.827148
627.211182	3252.022705
626.186218	3341.672119
625.161133	3275.209961
624.135803	3284.358398
623.110291	3339.822266
622.084595	3297.770508
621.058716	3455.561768
620.032654	3372.083740
619.006409	3337.356689
617.979919	3302.642578
616.953308	3328.819092
615.926453	3257.598633
614.899414	3283.773438
613.872253	3297.769775
612.844849	3319.060547
611.817261	3328.178955
610.789490	3344.591064
609.761475	3195.622314
608.733337	3202.326416
607.705017	3345.168701
606.676453	3310.521484
605.647705	3351.222900
604.618774	3306.868164
603.589722	3301.398438
602.560425	3293.501709
601.530884	3331.747070
600.501221	3258.292969
599.471375	3221.278076
598.441284	3317.764160
597.411011	3297.737793
596.380615	3265.588135
595.349976	3240.727295
594.319153	3254.679199
593.288147	3152.235840
592.256897	3202.563965
591.225525	3328.014160
590.193970	3295.893555
589.162170	3244.400635
588.130188	3241.377686
587.098022	3189.913574
586.065674	3329.779541
585.033142	3278.317871
584.000427	3367.279053
582.967468	3308.568359
581.934387	3208.741211
580.901062	3370.248047
579.867554	3326.082520
578.833862	3332.722412
577.799988	3281.325684
576.765930	3266.212158
575.731628	3188.257568
574.697205	3455.923828
573.662537	3397.292969
572.627747	3271.040283
571.592712	3190.726318
570.557434	3281.902832
569.522034	3158.155762
568.486450	3215.507568
567.450623	3246.288330
566.414673	3361.517822
565.378479	3192.005615
564.342102	3292.728516
563.305542	3248.705566
562.268799	3356.614502
561.231812	3225.802734
560.194702	3343.317627
559.157349	3301.727295
558.119812	3291.476563
557.082092	3449.868408
556.044189	3345.655273
555.006042	3316.135986
553.967773	3320.336426
552.929260	3336.571777
551.890625	3126.552979
550.851746	3369.023926
549.812683	3130.204834
548.773376	3148.868408
547.733948	3213.221680
546.694275	3210.220703
545.654419	3228.858398
544.614441	3108.070801
543.574158	3234.869629
542.533752	3212.643311
541.493164	3363.399658
540.452332	3309.931396
539.411316	3376.559814
538.370178	3380.734863
537.328735	3293.683838
536.287170	3367.478027
535.245422	3388.450439
534.203430	3186.279053
533.161255	3298.433594
532.118896	3225.868164
531.076355	3227.666748
530.033630	3140.756104
528.990723	3128.187012
527.947571	3264.213623
526.904236	3179.740234
525.860718	3239.042725
524.817017	3147.419189
523.773132	3221.074463
522.729004	3280.335693
521.684692	3413.787598
520.640198	3283.902832
519.595520	3273.719727
518.550659	3268.325684
517.505615	3303.600342
516.460327	3269.501709
515.414856	3309.545410
514.369202	3155.915527
513.323364	3262.896240
512.277283	3171.470703
511.231079	3103.974365
510.184631	3151.177979
509.138000	3086.098633
508.091187	3169.110352
507.044159	3030.031982
505.996948	2976.947510
504.949554	3036.064453
503.901947	3190.614990
502.854126	3130.372070
501.806152	3229.980469
500.757965	3193.603027
499.709564	3207.315918
