#Wave		#Intensity
3200.600830	8.419704
3200.007080	33.678818
3199.413086	-4.209216
3198.819092	21.042900
3198.224854	21.039719
3197.630615	21.036539
3197.036377	29.446701
3196.442139	12.618108
3195.847656	4.205400
3195.252930	29.433350
3194.658447	16.816513
3194.063721	25.220957
3193.468750	4.202857
3192.873779	0.000000
3192.278809	0.000000
3191.683838	21.004755
3191.088623	21.001577
3190.493164	16.798721
3189.897949	8.398090
3189.302490	29.388870
3188.706787	41.977749
3188.111328	50.365681
3187.515381	25.179029
3186.919678	12.587610
3186.323730	29.366648
3185.727783	25.167604
3185.131592	4.193966
3184.535400	8.386662
3183.939209	20.963484
3183.342773	50.304749
3182.746338	12.574285
3182.149902	20.953968
3181.553223	29.331116
3180.956543	25.137152
3180.359619	20.944456
3179.762695	33.506058
3179.165771	-4.187623
3178.568604	20.934946
3177.971436	20.931776
3177.374268	37.671494
3176.776855	-4.185088
3176.179443	8.368908
3175.581787	-4.183821
3174.984131	25.099123
3174.386475	16.730215
3173.788574	8.363840
3173.190674	20.906435
3172.592773	20.903269
3171.994629	16.720081
3171.396484	12.538162
3170.798340	29.251280
3170.199951	20.890606
3169.601563	12.532465
3169.002930	29.237988
3168.404297	25.057335
3167.805664	25.053539
3167.206787	12.524872
3166.607910	12.522974
3166.008789	54.257996
3165.409912	16.692238
3164.810547	33.379417
3164.211426	20.858974
3163.612061	0.000000
3163.012695	8.341061
3162.413086	29.189287
3161.813477	16.677065
3161.213623	12.505902
3160.614014	20.840012
3160.013916	25.004221
3159.414063	12.500216
3158.813965	41.661068
3158.213867	33.323799
3157.613525	20.824217
3157.013184	8.328424
3156.412598	12.490742
3155.812256	4.162949
3155.211426	24.973906
3154.610840	12.485059
3154.010010	24.966331
3153.409180	8.320848
3152.808105	20.798965
3152.207031	29.114134
3151.605957	29.109716
3151.004639	24.947401
3150.403320	8.314539
3149.801758	33.253109
3149.200195	12.468023
3148.598633	0.000000
3147.996826	20.773733
3147.395020	16.616465
3146.793213	29.074400
3146.191162	33.222843
3145.589111	-8.304450
3144.986816	4.151595
3144.384766	12.452894
3143.782227	29.052341
3143.179932	4.149704
3142.577393	29.043522
3141.974609	24.890667
3141.371826	8.295630
3140.769043	16.588739
3140.166260	16.586222
3139.563232	0.000000
3138.960205	16.581184
3138.356934	29.012667
3137.753662	12.432112
3137.150391	16.573631
3136.546875	4.142778
3135.943359	16.568598
3135.339600	20.707600
3134.735840	4.140891
3134.132080	20.701309
3133.528076	0.000000
3132.924072	0.000000
3132.320068	12.415126
3131.715820	0.000000
3131.111572	12.411353
3130.507080	12.409467
3129.902588	16.543442
3129.298096	8.270464
3128.693604	12.403811
3128.088867	24.803850
3127.483887	-8.266693
3126.878906	16.530874
3126.273926	4.132090
3125.668945	28.920235
3125.063721	8.261668
3124.458252	8.260412
3123.853027	28.907047
3123.247559	33.031601
3122.641846	33.026581
3122.036133	33.021557
3121.430420	24.762402
3120.824707	20.632196
3120.218750	4.125812
3119.612549	4.125185
3119.006592	49.494682
3118.400391	12.371789
3117.793945	20.616512
3117.187500	24.736052
3116.581055	28.854336
3115.974609	24.728525
3115.367920	32.966351
3114.760986	28.841169
3114.154297	4.119540
3113.547363	28.832394
3112.940186	24.709719
3112.333008	32.941280
3111.725830	37.053299
3111.118408	32.931252
3110.510986	-8.231561
3109.903564	-4.115154
3109.295898	45.259800
3108.688232	8.227802
3108.080566	4.113275
3107.472656	16.450594
3106.864746	16.448090
3106.256592	4.111396
3105.648438	8.221541
3105.040039	28.771013
3104.431885	-8.219038
3103.823486	8.217786
3103.214844	8.216535
3102.606201	-4.107642
3101.997559	0.000000
3101.388672	-4.106390
3100.779785	24.634590
3100.170898	24.630838
3099.561768	32.836117
3098.952637	0.000000
3098.343262	8.206528
3097.733887	20.513195
3097.124512	24.612083
3096.514893	28.709723
3095.905273	-4.100764
3095.295410	0.000000
3094.685791	20.497572
3094.075684	20.494448
3093.465820	28.687853
3092.855713	16.390560
3092.245361	8.194032
3091.635254	8.192782
3091.024658	28.670368
3090.414307	8.190285
3089.803711	16.378073
3089.193115	24.563364
3088.582275	8.186540
3087.971436	32.741165
3087.360596	16.368088
3086.749512	20.456989
3086.138428	0.000000
3085.527100	24.540901
3084.915771	32.716209
3084.304443	4.088902
3083.692871	20.441395
3083.081299	4.087656
3082.469482	8.174064
3081.857910	24.518452
3081.245850	28.600496
3080.634033	16.340647
3080.021973	28.591770
3079.409668	16.335661
3078.797607	20.416462
3078.185059	48.992031
3077.572754	12.246139
3076.960205	28.569963
3076.347656	28.565603
3075.734863	40.801777
3075.122070	44.875107
3074.509033	20.394661
3073.895996	32.626480
3073.282959	0.000000
3072.669922	24.462389
3072.056641	8.152884
3071.443115	12.227460
3070.829834	20.375990
3070.216064	8.149151
3069.602539	24.443722
3068.988770	36.659985
3068.375000	20.363546
3067.760986	-4.072087
3067.146973	20.357328
3066.532715	24.425062
3065.918701	32.561775
3065.304199	28.487202
3064.689941	36.620808
3064.075439	28.478500
3063.460693	16.270943
3062.846191	16.268457
3062.231445	28.465450
3061.616455	20.329359
3061.001465	52.848255
3060.386475	12.193888
3059.771240	36.576073
3059.156006	36.570484
3058.540771	20.313831
3057.925293	16.248581
3057.309814	28.430672
3056.694092	20.304518
3056.078369	8.120565
3055.462646	20.298311
3054.846680	16.236166
3054.230713	32.467369
3053.614502	20.289003
3052.998291	16.228722
3052.382080	24.339359
3051.765625	44.615337
3051.149170	24.331917
3050.532715	8.109399
3049.916016	36.486713
3049.299316	16.213837
3048.682373	12.158519
3048.065430	16.208878
3047.448486	8.103200
3046.831299	20.254900
3046.214111	12.151081
3045.596680	28.348185
3044.979248	40.491211
3044.361816	28.339512
3043.744141	8.095764
3043.126465	16.189053
3042.508545	44.513081
3041.890869	20.230122
3041.272705	44.499458
3040.654785	36.403076
3040.036621	40.441673
3039.418213	24.261290
3038.799805	44.472221
3038.181396	20.211552
3037.562988	0.000000
3036.944336	24.246437
3036.325439	32.323635
3035.706543	40.398357
3035.087646	32.313740
3034.468750	44.424587
3033.849609	48.455765
3033.230469	28.261534
3032.611084	32.293949
3031.991699	12.108377
3031.372070	24.213045
3030.752441	36.314007
3030.132813	20.171358
3029.513184	24.201921
3028.893066	48.396427
3028.273193	36.291759
3027.653076	8.063601
3027.032959	20.155912
3026.412598	16.122259
3025.792480	16.119789
3025.171875	36.263969
3024.551270	28.200987
3023.930664	48.337139
3023.310059	16.109911
3022.689209	28.188023
3022.068115	12.078730
3021.447266	44.281887
3020.826172	40.250092
3020.204834	52.317097
3019.583496	32.190201
3018.962158	36.208427
3018.340576	24.135250
3017.718994	4.021925
3017.097412	36.191776
3016.475586	8.041384
3015.853760	28.140526
3015.231689	32.155670
3014.609619	28.131897
3013.987549	12.054678
3013.365234	36.158489
3012.742920	4.016994
3012.120361	12.049132
3011.497803	24.094568
3010.875244	32.121162
3010.252441	12.043589
3009.629639	32.111309
3009.006836	52.172871
3008.383789	16.050728
3007.760498	16.048265
3007.137451	4.011451
3006.514160	40.108353
3005.890625	24.061317
3005.267090	28.067228
3004.643555	32.071911
3004.019775	24.050241
3003.395996	4.007758
3002.772217	16.028572
3002.148193	16.026112
3001.524170	32.047302
3000.899902	20.026489
3000.275635	36.042149
2999.651367	40.040680
2999.026855	36.031082
2998.402344	40.028385
2997.777588	40.022240
2997.152832	52.020924
2996.528076	36.008953
2995.903076	8.000761
2995.278076	23.998596
2994.653076	47.989819
2994.027832	35.986835
2993.402344	27.985462
2992.777100	35.975780
2992.151367	51.957035
2991.525879	39.960808
2990.900146	43.950134
2990.274414	31.958824
2989.648438	43.936630
2989.022461	35.942627
2988.396240	43.923130
2987.770264	31.939184
2987.143799	27.942492
2986.517578	11.973513
2985.891113	47.886692
2985.264404	43.889385
2984.637695	55.850632
2984.010986	31.909740
2983.384033	35.892941
2982.757080	43.862404
2982.130127	35.881905
2981.502930	39.862652
2980.875732	19.928261
2980.248291	43.835434
2979.620850	47.813118
2978.993408	23.902884
2978.365723	47.798412
2977.738037	39.825886
2977.110107	35.837784
2976.482178	51.757725
2975.854248	39.807510
2975.226074	23.880833
2974.597900	51.733845
2973.969482	43.768055
2973.341309	51.717926
2972.712646	47.732277
2972.083984	43.747856
2971.455322	35.788193
2970.826660	47.710247
2970.197754	31.801937
2969.568604	43.720932
2968.939697	27.818130
2968.310547	51.654289
2967.681152	55.619133
2967.051758	59.582756
2966.422363	47.658867
2965.792725	47.651531
2965.163086	55.584892
2964.533203	63.515812
2963.903564	31.753016
2963.273438	55.559223
2962.643311	31.743238
2962.013184	47.607525
2961.383057	39.666828
2960.752686	43.626789
2960.122314	51.550995
2959.491699	39.648502
2958.861084	47.570873
2958.230225	39.636288
2957.599609	63.408295
2956.968506	43.586487
2956.337646	31.694380
2955.706299	59.417805
2955.075195	83.172112
2954.443848	63.359463
2953.812500	47.512276
2953.180908	47.504951
2952.549316	83.120857
2951.917725	59.362888
2951.285889	51.439907
2950.653809	79.126122
2950.021973	87.025322
2949.389893	55.371212
2948.757568	83.044014
2948.125244	51.400272
2947.492920	90.924927
2946.860352	79.052963
2946.227783	79.040771
2945.595215	51.368580
2944.962402	86.918037
2944.329590	98.755272
2943.696533	102.689644
2943.063477	122.418770
2942.430420	114.503120
2941.797119	134.224335
2941.163574	130.256454
2940.530273	126.289810
2939.896729	146.000061
2939.262939	145.977539
2938.629150	145.955017
2937.995361	157.764877
2937.361328	157.740524
2936.727295	181.373611
2936.093262	157.691849
2935.458984	197.084396
2934.824707	212.818298
2934.190186	173.380737
2933.555664	220.632339
2932.921143	181.205734
2932.286377	236.318817
2931.651367	252.034500
2931.016602	212.621277
2930.381592	196.841171
2929.746338	291.279938
2929.111084	255.814499
2928.475830	259.710022
2927.840332	236.063553
2927.204834	243.894669
2926.569336	302.854675
2925.933594	298.875336
2925.297607	314.557007
2924.661865	259.469452
2924.025879	271.221619
2923.389648	271.179718
2922.753418	271.137848
2922.117188	286.811676
2921.480713	306.408966
2920.844238	286.723053
2920.207764	267.043213
2919.571045	270.928467
2918.934082	282.664276
2918.297363	286.545868
2917.660156	243.330124
2917.023193	325.698059
2916.385986	309.953857
2915.748779	305.983093
2915.111328	325.547058
2914.473877	294.123566
2913.836182	297.999146
2913.198486	329.316528
2912.560791	317.506134
2911.922852	305.699402
2911.284912	333.082428
2910.646729	376.129059
2910.008545	336.896851
2909.370361	360.345551
2908.731934	332.876465
2908.093506	387.643219
2907.455078	391.498260
2906.816406	352.293915
2906.177490	379.635834
2905.538574	363.924438
2904.899658	406.906311
2904.260498	387.283600
2903.621338	402.869080
2902.982178	398.895996
2902.342773	406.654572
2901.703369	500.420502
2901.063721	465.162689
2900.424072	468.999023
2899.784424	472.834167
2899.144531	500.110809
2898.504639	527.378967
2897.864502	496.050110
2897.224365	488.162720
2896.583984	538.848206
2895.943848	523.148438
2895.303223	569.909302
2894.662842	526.889343
2894.021973	573.635132
2893.381348	526.726196
2892.740479	522.743591
2892.099609	514.861694
2891.458496	526.481567
2890.817383	561.493347
2890.176025	565.305054
2889.534668	545.727234
2888.893311	561.232483
2888.251709	607.907715
2887.610107	541.577454
2886.968262	623.301941
2886.326416	607.625244
2885.684570	591.953369
2885.042480	685.313477
2884.400391	677.420837
2883.758057	681.208496
2883.115723	692.778992
2882.473389	867.785278
2881.830811	871.541565
2881.188232	1015.344177
2880.545410	1166.881470
2879.902588	1225.035522
2879.259766	1392.046875
2878.616699	1380.167725
2877.973633	1379.953735
2877.330322	1247.595703
2876.687012	1185.226440
2876.043457	1037.398071
2875.399902	971.195862
2874.756348	885.593262
2874.112549	784.482910
2873.468750	788.244202
2872.824707	706.592102
2872.180664	663.783020
2871.536621	671.442444
2870.892334	710.143921
2870.248047	620.794556
2869.603760	628.457031
2868.958984	651.632080
2868.314453	593.358582
2867.669678	585.511414
2867.024902	577.666626
2866.379883	589.206055
2865.734863	596.866150
2865.089844	627.774780
2864.444580	557.935425
2863.799316	658.571533
2863.153809	635.229187
2862.508301	650.621582
2861.862549	693.114197
2861.216797	603.961060
2860.571045	642.576782
2859.925049	607.643921
2859.279053	684.944458
2858.632813	692.576355
2857.986572	700.205933
2857.340332	696.229248
2856.693848	723.192505
2856.047363	757.880859
2855.400635	750.030884
2854.753906	854.283936
2854.107178	854.151245
2853.460205	857.882935
2852.813232	896.387024
2852.166016	903.974060
2851.518799	981.084351
2850.871338	1050.446777
2850.223877	1042.560913
2849.576416	1003.791565
2848.928711	1115.579590
2848.281006	1107.687134
2847.633301	1231.001099
2846.985352	1226.951416
2846.337158	1234.476196
2845.688965	1330.712769
2845.040771	1365.214844
2844.392578	1349.578857
2843.743896	1318.526367
2843.095459	1279.773926
2842.446777	1233.325317
2841.798096	1186.891113
2841.149170	1205.971191
2840.500244	1124.884521
2839.851074	1101.599121
2839.202148	947.381958
2838.552734	908.729187
2837.903320	789.239441
2837.253906	762.171265
2836.604492	696.623962
2835.954834	692.667419
2835.304932	584.828186
2834.655029	611.665894
2834.005127	496.180054
2833.354980	457.645264
2832.704834	446.038574
2832.054688	365.233368
2831.404297	380.552399
2830.753906	345.902893
2830.103271	311.264160
2829.452637	276.636200
2828.801758	253.543716
2828.150879	261.186218
2827.500000	253.464798
2826.848877	230.386688
2826.197754	203.476563
2825.546387	199.606308
2824.895020	168.871353
2824.243408	188.031998
2823.591797	176.492340
2822.940186	130.430557
2822.288330	130.410248
2821.636475	145.729935
2820.984619	134.204041
2820.332520	126.515526
2819.680176	99.663376
2819.028076	126.476120
2818.375488	84.304283
2817.723145	84.291145
2817.070557	91.939659
2816.417725	91.925331
2815.764893	88.081390
2815.112061	95.725723
2814.458984	80.397079
2813.805908	88.040222
2813.152832	103.335464
2812.499512	95.666069
2811.845947	84.173027
2811.192383	87.985359
2810.538818	103.271057
2809.885010	99.430702
2809.231201	72.649574
2808.577393	72.638252
2807.923340	95.561745
2807.269287	87.903099
2806.614990	68.783005
2805.960693	76.413643
2805.306152	99.322250
2804.651611	91.667786
2803.997070	42.007847
2803.342285	87.820892
2802.687500	80.171791
2802.032471	38.171089
2801.377441	103.045868
2800.722412	72.502449
2800.067139	72.491135
2799.411621	72.479828
2798.756348	72.468521
2798.100586	76.270752
2797.445068	80.071800
2796.789307	72.434608
2796.133301	76.235062
2795.477539	60.978531
2794.821289	72.400703
2794.165283	99.059189
2793.509033	57.140614
2792.852539	83.793152
2792.196045	49.506409
2791.539551	76.151817
2790.882813	49.490952
2790.226074	72.321640
2789.569092	60.892925
2788.912109	41.857349
2788.255127	60.873913
2787.597900	91.296616
2786.940430	57.051472
2786.283203	68.451080
2785.625488	64.638145
2784.968018	72.231346
2784.310303	64.617958
2783.652588	41.805088
2782.994629	37.998688
2782.336426	72.186234
2781.678467	79.772316
2781.020264	72.163681
2780.361816	68.354912
2779.703369	41.765919
2779.044922	79.722481
2778.386230	60.731445
2777.727539	53.131710
2777.068604	53.123409
2776.409668	45.527233
2775.750732	83.453552
2775.091553	30.342003
2774.432373	64.466675
2773.772949	87.205986
2773.113525	60.655552
2772.453857	56.855690
2771.794189	68.216164
2771.134521	56.837914
2770.474609	75.772041
2769.814697	60.608150
2769.154541	45.449005
2768.494385	68.162849
2767.833984	60.579723
2767.173584	64.355888
2766.513184	52.990681
2765.852539	64.335762
2765.191895	94.596611
2764.531006	64.315636
2763.870117	64.305573
2763.209229	52.949245
2762.548096	71.848450
2761.886719	60.494492
2761.225586	79.386597
2760.563965	60.475559
2759.902588	68.024361
2759.240967	83.127876
2758.579102	86.892815
2757.917236	52.882999
2757.255371	79.312080
2756.593262	90.628189
2755.931152	45.307003
2755.269043	71.724861
2754.606689	94.360039
2753.944092	79.250023
2753.281494	60.371517
2752.618896	67.907326
2751.956055	67.896690
2751.293213	82.971848
2750.630371	52.792000
2749.967285	86.716133
2749.303955	64.084496
2748.640625	71.612625
2747.977295	94.212379
2747.313721	75.358101
2746.650146	71.578979
2745.986572	60.267593
2745.322754	86.621094
2744.658691	79.076431
2743.994873	82.828995
2743.330566	67.758560
2742.666504	94.094368
2742.002197	71.500511
2741.337646	75.251900
2740.673096	71.478104
2740.008545	82.751144
2739.343750	67.694870
2738.678955	90.245682
2738.013916	97.750832
2737.348877	82.699272
2736.683594	101.478653
2736.018311	97.704865
2735.353027	97.689545
2734.687500	82.647423
2734.021973	116.439468
2733.356201	78.865982
2732.690430	116.402954
2732.024658	120.139038
2731.358643	108.858932
2730.692383	93.829185
2730.026367	131.340256
2729.359863	127.567665
2728.693604	146.304657
2728.027100	116.275200
2727.360352	146.258759
2726.693604	138.736542
2726.026855	161.209061
2725.359863	153.686844
2724.692871	134.923370
2724.025635	164.880463
2723.358398	164.854584
2722.691162	149.844284
2722.023682	142.329727
2721.355957	176.011765
2720.688477	198.450195
2720.020508	149.750214
2719.352783	179.672058
2718.684814	149.703201
2718.016602	198.325607
2717.348389	187.070251
2716.680176	183.300064
2716.011719	183.271271
2715.343262	157.064987
2714.674561	168.257492
2714.005859	168.231064
2713.337158	186.894043
2712.668213	156.966339
2711.999023	160.678391
2711.329834	171.861511
2710.660645	149.421310
2709.991455	141.927948
2709.321777	175.514877
2708.652344	179.221085
2707.982666	111.995575
2707.312988	156.769165
2706.643066	119.424400
2705.972900	134.331345
2705.302979	119.386871
2704.632813	130.558868
2703.962402	134.268005
2703.291992	100.685181
2702.621582	130.497299
2701.950928	126.748886
2701.280273	108.092346
2700.609375	141.615982
2699.938477	119.236809
2699.267334	81.962418
2698.596191	126.649269
2697.925049	96.834213
2697.253662	111.714211
2696.582031	100.526978
2695.910645	78.175354
2695.239014	85.607155
2694.567139	100.479546
2693.895264	126.509895
2693.223145	59.524704
2692.551270	107.871552
2691.878906	74.382469
2691.206543	81.807846
2690.534180	96.666786
2689.861816	96.651573
2689.189209	111.503494
2688.516357	111.485947
2687.843506	100.321564
2687.170654	66.870514
2686.497559	89.146652
2685.824463	81.704903
2685.151123	85.405312
2684.477783	81.679184
2683.804199	100.226852
2683.130615	89.076508
2682.457031	89.062477
2681.783203	81.627754
2681.109375	66.775826
2680.435303	100.147964
2679.761230	77.880592
2679.086914	51.912220
2678.412598	63.026340
2677.738281	96.378044
2677.063721	96.362862
2676.389160	107.464722
2675.714355	92.627403
2675.039551	103.726349
2674.364502	62.966793
2673.689453	99.990326
2673.014404	88.866280
2672.339111	85.150101
2671.663574	59.225517
2670.988037	81.422256
2670.312500	81.409424
2669.636719	77.696747
2668.960938	73.985237
2668.285156	51.781502
2667.609131	70.263817
2666.932861	55.462692
2666.256592	88.726318
2665.580322	51.748859
2664.903809	88.698341
2664.227295	92.379539
2663.550781	77.586571
2662.874023	81.268356
2662.197021	51.708069
2661.520020	81.242722
2660.843018	77.537643
2660.165771	84.908783
2659.488525	55.366558
2658.811035	73.810432
2658.133545	70.108849
2657.455811	62.719074
2656.778076	95.908157
2656.100342	88.516640
2655.422363	88.502670
2654.744385	81.114647
2654.066162	66.356056
2653.387939	95.832512
2652.709473	95.817390
2652.031006	103.171669
2651.352539	106.839508
2650.673828	77.354324
2649.994873	77.342117
2649.316162	81.012283
2648.636963	103.090263
2647.958008	95.711555
2647.278809	88.335182
2646.599365	84.641182
2645.919922	91.986755
2645.240479	62.541119
2644.560791	69.887856
2643.880859	62.521366
2643.201172	88.251518
2642.520996	84.561012
2641.841064	88.223640
2641.160889	69.832680
2640.480469	58.797176
2639.800049	62.462132
2639.119629	99.188889
2638.438965	73.461639
2637.758301	73.450035
2637.077393	80.782272
2636.396484	58.741459
2635.715332	66.073700
2635.034180	73.403618
2634.353027	66.052811
2633.671631	95.394539
2632.989990	77.037254
2632.308350	77.025078
2631.626709	47.674652
2630.944824	73.334023
2630.262939	58.657944
2629.581055	62.314209
2628.898926	58.639397
2628.216553	76.952034
2627.534180	51.293243
2626.851807	54.948357
2626.169189	91.566109
2625.486572	62.255108
2624.803711	84.214172
2624.120850	58.574509
2623.437988	84.187531
2622.754883	73.194969
2622.071533	58.546711
2621.388184	62.196041
2620.704834	54.870174
2620.021240	106.065552
2619.337646	80.450790
2618.653809	80.438057
2617.969971	51.179756
2617.286133	80.412598
2616.602051	76.745331
2615.917725	54.809418
2615.233398	87.681190
2614.549072	105.931328
2613.864502	87.653427
2613.179932	91.291199
2612.495117	98.578888
2611.810303	94.912788
2611.125488	72.998276
2610.440430	72.986717
2609.755127	76.623917
2609.069824	94.852676
2608.384521	69.304443
2607.698975	91.175613
2607.013428	94.807617
2606.327637	58.333908
2605.641846	80.196411
2604.956055	65.604851
2604.270020	87.459282
2603.583740	72.871185
2602.897461	76.502625
2602.211182	91.060120
2601.524658	76.478378
2600.838135	76.466255
2600.151367	87.376160
2599.464600	76.442024
2598.777832	98.267021
2598.090820	43.667309
2597.403564	80.044044
2596.716309	94.582512
2596.029053	65.469818
2595.341553	50.912895
2594.654053	61.813000
2593.966309	79.980614
2593.278564	65.428307
2592.590820	90.858238
2591.902832	69.041306
2591.214600	94.462593
2590.526367	72.652008
2589.838135	69.008461
2589.149658	101.680550
2588.461182	65.355698
2587.772461	68.975624
2587.083740	90.743004
2586.394775	87.099464
2585.705811	79.828506
2585.016846	83.443832
2584.327637	112.449928
2583.638184	97.924721
2582.948975	76.151581
2582.259277	68.888115
2581.569824	76.127411
2580.879883	86.988945
2580.190186	94.223068
2579.500244	47.104053
2578.810059	65.210648
2578.119873	79.689247
2577.429688	90.541588
2576.739258	68.800674
2576.048584	65.169243
2575.358154	36.199383
2574.667236	65.148544
2573.976563	75.994560
2573.285645	83.218925
2572.594482	65.117508
2571.903320	65.107162
2571.212158	61.480331
2570.520752	57.854649
2569.829102	65.076141
2569.137451	46.991970
2568.445801	46.984501
2567.753906	86.726837
2567.062012	61.421749
2566.370117	65.024460
2565.677979	65.014122
2564.985596	79.449081
2564.293213	61.382713
2563.600830	68.593307
2562.908203	75.801598
2562.215332	46.917343
2561.522705	50.518337
2560.829590	82.981216
2560.136719	50.502274
2559.443604	61.314438
2558.750244	43.273899
2558.056885	72.111694
2557.363525	97.335304
2556.669922	82.902077
2555.976074	64.869568
2555.282227	68.462540
2554.588379	75.657089
2553.894287	57.634327
2553.200195	72.031448
2552.505859	64.817993
2551.811523	39.604694
2551.117188	53.997807
2550.422607	57.588497
2549.727783	61.178040
2549.032959	57.570171
2548.338135	79.146385
2547.643066	68.342819
2546.947998	57.542686
2546.252686	79.108604
2545.557373	71.905464
2544.861816	82.678123
2544.166260	68.288445
2543.470703	46.716236
2542.774902	46.708797
2542.078857	61.071011
2541.382813	53.877605
2540.686768	57.460293
2539.990479	50.269753
2539.294189	68.212372
2538.597656	57.432846
2537.901123	61.012680
2537.204346	50.237736
2536.507568	71.756760
2535.810791	64.570793
2535.113770	53.800426
2534.416504	68.136345
2533.719238	60.954388
2533.021973	57.359695
2532.324463	68.103783
2531.626953	57.341415
2530.929199	64.498817
2530.231445	46.575054
2529.533447	82.388885
2528.835449	57.304871
2528.137451	50.133770
2527.439209	35.804127
2526.740723	68.016998
2526.042236	78.743973
2525.343750	57.259212
2524.645020	64.406342
2523.946289	50.085835
2523.247314	82.270752
2522.548340	53.646282
2521.849121	71.516968
2521.149902	50.053894
2520.450684	78.643570
2519.751221	60.760342
2519.051514	71.471352
2518.351807	64.313957
2517.652100	67.876122
2516.952148	71.437157
2516.252197	64.283180
2515.552002	57.131489
2514.851807	46.411926
2514.151367	78.530731
2513.450928	57.104145
2512.750244	53.526592
2512.049561	78.493134
2511.348877	82.047913
2510.647949	103.435204
2509.946777	67.757072
2509.245605	60.615070
2508.544434	32.085209
2507.843018	32.080086
2507.141602	57.022160
2506.439941	60.576370
2505.738281	71.254936
2505.036377	74.805740
2504.334473	71.232185
2503.632568	56.976646
2502.930420	74.769905
2502.228027	67.638153
2501.525635	53.390015
2500.823242	71.175316
2500.120605	74.722145
2499.417969	74.710205
2498.715088	56.912968
2498.012207	64.016861
2497.309082	49.782932
2496.605957	71.107109
2495.902588	92.424477
2495.199219	67.530167
2494.495605	74.626678
2493.791992	63.955502
2493.088379	35.525154
2492.384521	56.831161
2491.680664	56.822079
2490.976563	39.058933
2490.272461	78.105377
2489.568115	95.841270
2488.863770	42.589310
2488.159180	81.616463
2487.454590	49.671638
2486.749756	74.495544
2486.044922	60.296272
2485.339844	63.832901
2484.634766	49.639870
2483.929688	70.902756
2483.224365	49.623993
2482.519043	74.424080
2481.813477	67.325302
2481.107666	63.771660
2480.402100	60.219154
2479.696045	74.376465
2478.990234	70.823395
2478.284180	77.893265
2477.577881	28.320290
2476.871582	74.328865
2476.165039	74.316971
2475.458496	70.766739
2474.751953	56.604328
2474.045166	84.892899
2473.338379	67.196121
2472.631348	53.041073
2471.924072	63.639099
2471.217041	81.303604
2470.509521	63.618721
2469.802246	74.209953
2469.094482	52.998623
2468.386963	67.120834
2467.679199	52.981647
2466.971191	45.910072
2466.263184	60.026634
2465.554932	60.017017
2464.846680	74.126793
2464.138428	70.585632
2463.429932	52.930744
2462.721436	45.865963
2462.012695	42.331028
2461.303955	52.905304
2460.594971	67.002647
2459.885986	52.888351
2459.176758	49.354549
2458.467529	88.118996
2457.758057	56.387119
2457.048584	63.425339
2456.338867	52.845978
2455.629150	56.360004
2454.919434	70.438713
2454.209473	70.427422
2453.499512	77.457741
2452.789307	80.965561
2452.078857	73.913223
2451.368408	49.267582
2450.657959	63.333874
2449.947266	80.913635
2449.236572	49.243877
2448.525879	77.370827
2447.814697	73.842125
2447.103760	63.283092
2446.392578	94.909416
2445.681152	56.233593
2444.969727	73.794746
2444.258301	73.782906
2443.546631	80.796883
2442.834717	52.685162
2442.122803	59.700268
2441.410889	56.179470
2440.698730	94.787636
2439.986572	70.201797
2439.274170	63.171474
2438.561768	70.179260
2437.849121	56.134396
2437.136475	80.680237
2436.423584	70.145462
2435.710693	56.107361
2434.997803	70.122940
2434.284424	70.111679
2433.571289	73.605438
2432.857910	73.593620
2432.144287	66.574005
2431.430908	84.079979
2430.717041	77.060928
2430.003174	80.550758
2429.289307	87.541107
2428.575195	66.520554
2427.861084	49.007271
2427.146729	66.499176
2426.432373	69.987885
2425.717773	73.475471
2425.003174	83.958473
2424.288330	73.451859
2423.573486	66.445763
2422.858643	62.938499
2422.143555	66.424408
2421.428223	69.909187
2420.712891	62.908154
2419.997559	73.381042
2419.281982	69.875473
2418.566162	80.343872
2417.850586	80.330956
2417.134521	76.825951
2416.418457	87.288177
2415.702393	59.346416
2414.986084	45.375252
2414.269775	87.246071
2413.553223	69.785629
2412.836670	83.729286
2412.120117	48.834225
2411.403076	73.239555
2410.686279	76.714806
2409.969238	73.215988
2409.251953	101.091522
2408.534668	80.163132
2407.817383	62.726269
2407.099854	66.200409
2406.382080	83.608109
2405.664307	83.594650
2404.946533	52.238247
2404.228516	73.121773
2403.510498	76.591431
2402.792236	73.098236
2402.073975	100.928932
2401.355469	59.155708
2400.636963	76.542122
2399.918213	66.093918
2399.199463	69.561340
2398.480469	55.640110
2397.761475	66.061989
2397.042480	93.862442
2396.323242	66.040710
2395.603760	79.931137
2394.884277	48.645901
2394.164795	62.534653
2393.445068	86.839691
2392.725098	83.352669
2392.005127	72.921837
2391.285156	83.325813
2390.564941	93.726433
2389.844727	55.532639
2389.124268	34.702305
2388.403809	72.863098
2387.683105	55.505795
2386.962402	65.902504
2386.241455	83.231850
2385.520508	93.620735
2384.799316	79.738144
2384.078125	69.326332
2383.356689	72.780914
2382.635254	93.560371
2381.913818	72.757446
2381.192139	62.353470
2380.470215	76.197502
2379.748291	62.333359
2379.026367	86.560143
2378.304199	48.465862
2377.581787	79.609642
2376.859375	79.596802
2376.136963	62.283100
2375.414307	83.030731
2374.691650	89.935448
2373.968750	69.169952
2373.245850	65.700851
2372.522705	72.605011
2371.799316	65.679649
2371.076172	65.669044
2370.352783	86.392693
2369.629150	72.558151
2368.905518	82.910217
2368.181641	72.534729
2367.457764	55.255630
2366.733643	62.152550
2366.009521	75.951965
2365.285400	69.036087
2364.561035	62.122448
2363.836426	93.168625
2363.111816	82.803185
2362.387207	55.193207
2361.662354	79.327415
2360.937256	75.866142
2360.212158	89.645508
2359.487061	55.157555
2358.761719	68.935806
2358.036377	72.370903
2357.310791	79.250557
2356.584961	65.457275
2355.859375	89.558640
2355.133301	58.548111
2354.407471	55.095200
2353.681152	68.857872
2352.955078	68.846741
2352.228516	79.160950
2351.502197	75.706932
2350.775635	89.457367
2350.048828	75.682457
2349.322021	79.109779
2348.594971	75.657990
2347.867920	75.645752
2347.140869	92.822960
2346.413330	85.933289
2345.686035	72.172287
2344.958496	65.288177
2344.230713	58.406288
2343.502930	82.442604
2342.775146	65.256500
2342.047119	68.679939
2341.319092	75.535713
2340.590820	72.090607
2339.862305	72.078949
2339.133789	72.067284
2338.405273	75.486839
2337.676514	58.321301
2336.947754	51.451645
2336.218750	106.316193
2335.489746	82.295990
2334.760498	78.854225
2334.031250	58.274120
2333.301758	61.692024
2332.572266	68.535599
2331.842529	92.508080
2331.112793	71.939079
2330.382813	95.903236
2329.652832	54.792976
2328.922607	92.448174
2328.192383	71.892494
2327.462158	95.841133
2326.731689	44.490463
2326.000977	71.857567
2325.270264	102.637039
2324.539307	82.096329
2323.808350	68.402527
2323.077393	64.971870
2322.346191	68.380363
2321.614746	75.206215
2320.883301	64.940300
2320.151855	88.851265
2319.420166	75.169662
2318.688232	71.741226
2317.956299	81.976685
2317.224365	71.717972
2316.492188	78.535522
2315.760010	102.421036
2315.027588	78.510063
2314.295166	68.258553
2313.562500	71.659866
2312.829590	81.883705
2312.096924	92.104233
2311.363770	64.803581
2310.630615	88.664200
2309.897461	81.830605
2309.164063	95.453560
2308.430664	81.804062
2307.697021	88.606697
2306.963379	88.592323
2306.229492	71.543732
2305.495605	102.188744
2304.761719	78.331993
2304.027344	81.724472
2303.293213	85.115845
2302.558838	88.506119
2301.824219	85.088226
2301.089600	105.492271
2300.354736	102.072731
2299.619873	74.841187
2298.885010	71.427719
2298.149658	88.419960
2297.414551	91.805824
2296.679199	88.391258
2295.943604	81.578682
2295.208008	64.572639
2294.472412	98.542229
2293.736572	88.333862
2293.000488	115.494751
2292.264404	81.512466
2291.528320	57.728622
2290.791992	88.276489
2290.055420	78.078056
2289.318848	78.065376
2288.582275	71.265503
2287.845459	81.433060
2287.108398	64.457359
2286.371582	88.190483
2285.634277	74.610588
2284.896973	81.380142
2284.159668	88.147499
2283.422119	84.743431
2282.684570	105.064781
2281.946777	81.327255
2281.208740	88.090202
2280.470703	81.300819
2279.732666	88.061569
2278.994385	98.206551
2278.256104	108.348228
2277.517578	101.559952
2276.779053	101.543434
2276.040283	94.758461
2275.301514	47.371525
2274.562500	84.578255
2273.823486	108.242554
2273.084229	74.404655
2272.344971	81.155510
2271.605469	91.285095
2270.865967	81.129112
2270.126221	91.255402
2269.386475	97.999115
2268.646484	108.119354
2267.906494	104.723587
2267.166260	91.196022
2266.426025	97.935341
2265.685547	94.542870
2264.945068	77.647575
2264.204346	91.136665
2263.463623	101.246483
2262.722656	97.855667
2261.981689	111.334869
2261.240723	77.584396
2260.499268	91.062508
2259.758057	97.791954
2259.016602	70.803337
2258.274902	107.873222
2257.533203	104.485168
2256.791260	84.248512
2256.049316	84.234787
2255.307129	74.114540
2254.564941	84.207352
2253.822754	80.825890
2253.080322	111.117493
2252.337646	97.632797
2251.594971	97.616890
2250.852051	67.311028
2250.109131	94.220078
2249.366211	94.204727
2248.623047	90.825470
2247.879639	94.174026
2247.136230	100.884293
2246.392578	110.954636
2245.648926	84.042839
2244.905273	97.473801
2244.161377	94.097298
2243.417236	110.882301
2242.673096	63.830917
2241.928955	110.846146
2241.184570	120.903351
2240.439941	94.020607
2239.695313	97.362602
2238.950439	97.346725
2238.205566	104.043320
2237.460693	93.959290
2236.715576	90.588821
2235.970215	77.155663
2235.224854	93.913315
2234.479492	90.544487
2233.733887	77.117905
2232.988037	97.219757
2232.242188	100.555756
2231.496338	80.431473
2230.750244	73.716820
2230.003906	107.206963
2229.257568	93.790787
2228.511230	90.426353
2227.764648	100.457321
2227.017822	103.788956
2226.270996	137.246857
2225.523926	107.102005
2224.776855	100.391739
2224.029785	97.029503
2223.282471	110.394852
2222.534912	86.963554
2221.787354	90.293564
2221.039795	117.028091
2220.291992	96.950294
2219.543945	100.277031
2218.795898	100.260651
2218.047852	106.927223
2217.299561	90.205109
2216.551025	86.849983
2215.802490	93.515472
2215.053955	83.482315
2214.305176	123.533630
2213.556152	93.469635
2212.807129	96.792015
2212.058105	113.461746
2211.308838	103.433510
2210.559326	96.744560
2209.809814	126.748016
2209.060303	93.378006
2208.310547	106.700279
2207.560547	90.013641
2206.810547	76.665749
2206.060303	119.978943
2205.310059	89.969490
2204.559814	96.618095
2203.809326	89.940063
2203.058594	99.917061
2202.307861	93.240669
2201.557129	109.872818
2200.806152	103.196976
2200.054932	99.851700
2199.303711	106.491058
2198.552246	96.491730
2197.800781	99.802704
2197.049316	99.786369
2196.297607	109.747047
2195.545654	89.778343
2194.793701	99.737389
2194.041504	83.100891
2193.289307	116.322197
2192.537109	103.011368
2191.784668	102.994507
2191.031982	126.230667
2190.279297	86.354210
2189.526367	109.585472
2188.773438	112.887756
2188.020508	122.828331
2187.267090	106.212509
2186.513916	102.876518
2185.760498	102.859673
2185.006836	145.970459
2184.253174	106.142944
2183.499268	129.340530
2182.745361	126.003456
2181.991211	129.298157
2181.237061	122.647377
2180.482666	132.570038
2179.728271	139.175735
2178.973877	106.021278
2178.218994	129.192261
2177.464355	125.859009
2176.709229	135.772980
2175.954346	129.128754
2175.198975	158.901642
2174.443848	139.016144
2173.688232	119.137161
2172.932861	99.264687
2172.177002	119.098099
2171.421387	145.540482
2170.665283	112.444656
2169.909424	85.972992
2169.153076	92.571114
2168.396729	122.306053
2167.640381	89.235725
2166.883789	99.134544
2166.127197	109.030106
2165.370361	105.708824
2164.613525	92.480049
2163.856445	132.092682
2163.099365	82.544380
2162.342041	85.832069
2161.584473	85.817986
2160.826904	95.704353
2160.069336	108.887077
2159.311523	125.364548
2158.553711	105.552818
2157.795654	108.833473
2157.037354	112.113052
2156.279053	98.907043
2155.520752	108.779884
2154.762207	125.241127
2154.003662	118.630005
2153.244873	105.431580
2152.485840	121.885246
2151.726807	115.277924
2150.967773	135.017670
2150.208252	108.654915
2149.448975	121.805199
2148.689453	88.870277
2147.929688	98.728531
2147.169922	102.002724
2146.410156	95.406227
2145.650146	131.573166
2144.889893	128.262756
2144.129639	118.376945
2143.369141	101.918953
2142.608643	95.327866
2141.847900	108.458710
2141.087158	121.585236
2140.326416	88.709778
2139.565186	82.125183
2138.804199	108.387421
2138.042725	118.221382
2137.281494	114.918564
2136.519775	105.051125
2135.758301	98.469238
2134.996338	105.016579
2134.234619	137.811600
2133.472412	104.982040
2132.710449	118.085373
2131.947998	108.227127
2131.185547	98.372108
2130.423096	127.862709
2129.660400	121.285690
2128.897705	111.433380
2128.134766	117.968880
2127.371826	88.462097
2126.608643	124.481728
2125.845215	124.461243
2125.081787	114.616493
2124.318359	108.049194
2123.554688	111.305092
2122.790771	153.837601
2122.026855	107.995850
2121.262939	127.610451
2120.498779	124.317924
2119.734375	111.213509
2118.969971	124.276993
2118.205322	94.827347
2117.440674	91.542366
2116.676025	137.290939
2115.911133	101.317101
2115.145996	127.442459
2114.380859	124.154251
2113.615479	147.000549
2112.850098	97.984222
2112.084473	91.436882
2111.318848	120.807404
2110.552979	107.729393
2109.787109	114.239616
2109.020996	146.855301
2108.254883	137.042374
2107.488525	120.707909
2106.722168	120.688011
2105.955566	133.713333
2105.188965	123.908997
2104.422119	110.847672
2103.655029	88.011581
2102.887939	107.551979
2102.120850	143.378998
2101.353516	130.323059
2100.585938	114.013870
2099.818359	127.023079
2099.050781	110.719810
2098.282959	104.189697
2097.514893	110.683296
2096.746826	120.429604
2095.978760	136.681320
2095.210449	136.658783
2094.441895	100.850555
2093.673340	100.833916
2092.904541	104.069450
2092.135742	130.065353
2091.366699	123.541702
2090.597656	107.268509
2089.828369	126.750954
2089.059082	120.231064
2088.289551	123.460167
2087.520020	133.185043
2086.750244	110.427902
2085.980469	126.646393
2085.210449	123.378677
2084.440186	116.865768
2083.670166	116.846474
2082.899658	84.375183
2082.129150	116.807892
2081.358643	123.276855
2080.587891	110.282127
2079.816895	107.020859
2079.045898	110.245705
2078.274902	152.373306
2077.503662	129.657990
2076.732178	129.636566
2075.960693	116.653641
2075.188965	116.634369
2074.417236	132.811646
2073.645264	119.834602
2072.873291	116.576561
2072.101074	129.508102
2071.328857	129.486710
2070.556396	132.701935
2069.783936	122.971710
2069.011230	139.129196
2068.238525	135.871170
2067.465576	103.503784
2066.692627	142.294174
2065.919434	116.403259
2065.145996	139.014236
2064.372559	109.900063
2063.599121	119.577347
2062.825439	174.489426
2062.051514	125.999306
2061.277588	151.820206
2060.503662	142.106049
2059.729248	113.020203
2058.955078	122.687347
2058.180664	119.438972
2057.406006	119.419212
2056.631348	125.853477
2055.856445	112.926743
2055.081543	135.489670
2054.306396	170.946762
2053.531250	112.870689
2052.755859	106.403320
2051.980225	125.728569
2051.204590	145.047409
2050.428955	135.355179
2049.653076	132.110565
2048.877197	112.758636
2048.101074	125.624535
2047.324707	135.265564
2046.548340	138.463242
2045.771851	132.001236
2044.995239	106.227295
2044.218506	144.831421
2043.441528	131.935654
2042.664551	148.000854
2041.887329	154.410095
2041.110107	135.086456
2040.332642	122.200829
2039.555176	141.472260
2038.777466	125.375084
2037.999634	179.995926
2037.221802	134.974579
2036.443726	128.525925
2035.665527	138.142471
2034.887207	134.907486
2034.108765	160.577530
2033.330200	128.440735
2032.551514	166.945282
2031.772705	141.237976
2030.993774	147.633392
2030.214600	121.937805
2029.435425	150.792801
2028.656128	121.897369
2027.876587	144.328217
2027.097046	141.097519
2026.317261	134.661652
2025.537476	153.873505
2024.757446	144.232483
2023.977295	124.980759
2023.197021	153.796951
2022.416626	166.585724
2021.636230	185.776337
2020.855591	137.707870
2020.074707	169.704803
2019.293823	169.676636
2018.512817	166.447571
2017.731689	156.818787
2016.950439	131.193954
2016.168945	153.567429
2015.387451	140.746765
2014.605713	156.714706
2013.823975	195.061432
2013.041992	163.057068
2012.260010	159.833328
2011.477783	143.826111
2010.695435	140.606628
2009.912964	172.534027
2009.130371	172.505371
2008.347656	178.864746
2007.564819	156.480667
2006.781860	137.296951
2005.998779	162.813522
2005.215576	153.210800
2004.432129	153.185349
2003.648682	181.877380
2002.864990	146.753845
2002.081299	165.868088
2001.297363	172.219009
2000.513428	165.812973
1999.729248	162.597229
1998.944946	137.069000
1998.160522	156.168945
1997.375977	146.583206
1996.591309	130.628540
1995.806519	168.833206
1995.021606	140.140121
1994.236572	191.068390
1993.451416	171.932953
1992.666016	155.987289
1991.880615	190.973083
1991.094971	143.205994
1990.309326	162.273132
1989.523438	152.702255
1988.737549	174.942230
1987.951416	178.093369
1987.165161	168.524612
1986.378784	158.959030
1985.592285	193.897751
1984.805664	181.153000
1984.018921	190.655640
1983.232056	200.155106
1982.444946	177.886047
1981.657837	152.448380
1980.870605	193.704239
1980.083130	130.172974
1979.295654	161.895538
1978.507935	165.042480
1977.720093	155.494904
1976.932129	190.370224
1976.144165	171.304672
1975.355957	196.650391
1974.567627	171.247635
1973.779053	161.706940
1972.990479	180.701187
1972.201782	161.653076
1971.412964	215.501541
1970.623901	186.948135
1969.834839	177.412735
1969.045532	180.550735
1968.256226	183.687683
1967.466675	183.657089
1966.677002	180.460510
1965.887207	202.588562
1965.097290	145.586273
1964.307251	202.521042
1963.517090	192.995697
1962.726807	202.453552
1961.936401	192.931366
1961.145874	189.736923
1960.355103	202.352325
1959.564331	164.383850
1958.773315	180.159943
1957.982178	205.411301
1957.191040	208.536697
1956.399658	205.342804
1955.608154	224.260117
1954.816528	214.748520
1954.024780	214.712692
1953.232910	179.949738
1952.440918	189.389175
1951.648682	173.577789
1950.856445	192.481430
1950.063965	192.449310
1949.271484	179.799683
1948.478760	198.692810
1947.685913	204.966309
1946.893066	201.779297
1946.099976	198.593353
1945.306763	220.622452
1944.513428	207.980728
1943.719971	204.795319
1942.926270	233.112671
1942.132568	207.876602
1941.338745	226.736603
1940.544678	210.955780
1939.750610	173.143738
1938.956299	185.705002
1938.161865	191.968018
1937.367310	176.203506
1936.572632	210.779694
1935.777832	204.453613
1934.982910	201.274551
1934.187866	204.385315
1933.392700	207.495041
1932.597290	223.177063
1931.801880	207.425705
1931.006226	197.964188
1930.210571	204.214630
1929.414673	188.474304
1928.618652	216.709229
1927.822510	216.673019
1927.026245	207.217804
1926.229858	247.991974
1925.433350	241.673294
1924.636719	251.047165
1923.839844	203.941727
1923.042969	213.318741
1922.245850	200.737015
1921.448730	213.247406
1920.651367	219.482681
1919.853882	213.176102
1919.056274	213.140442
1918.258545	238.175949
1917.460693	213.069153
1916.662720	213.033508
1915.864624	219.262512
1915.066284	216.094040
1914.267944	225.451706
1913.469360	209.760223
1912.670776	247.287842
1911.871948	212.819733
1911.072998	215.913300
1910.273926	265.935638
1909.474731	256.506744
1908.675415	237.698166
1907.875977	215.768784
1907.076294	231.365463
1906.276611	221.948624
1905.476807	218.785950
1904.676758	243.749237
1903.876587	243.708420
1903.076294	224.923950
1902.275879	221.762863
1901.475342	259.200500
1900.674683	227.933334
1899.873901	252.869980
1899.072998	277.798248
1898.271851	259.026886
1897.470703	252.742920
1896.669312	249.580811
1895.867920	227.704330
1895.066284	261.972046
1894.264526	243.218994
1893.462646	243.178223
1892.660645	258.723206
1891.858521	224.396973
1891.056152	243.055984
1890.253784	236.784073
1889.451172	202.478745
1888.648560	246.048309
1887.845703	261.577118
1887.042725	236.625336
1886.239624	249.037537
1885.436401	255.220673
1884.633057	236.506317
1883.829590	227.132446
1883.025879	223.983475
1882.222168	223.945892
1881.418213	236.347687
1880.614258	264.291901
1879.810059	270.465149
1879.005737	242.445313
1878.201294	226.865875
1877.396729	276.543488
1876.592041	233.003159
1875.787231	229.857864
1874.982178	263.981628
1874.177124	267.042450
1873.371826	251.474518
1872.566406	288.681549
1871.760986	232.768616
1870.955322	235.832596
1870.149536	238.895554
1869.343506	260.569580
1868.537476	251.221329
1867.731323	260.482086
1866.924927	241.835587
1866.118530	220.095428
1865.311890	223.157883
1864.505127	251.010452
1863.698242	266.460144
1862.891235	291.198212
1862.084106	253.981308
1861.276855	278.713135
1860.469482	266.281128
1859.661865	294.098358
1858.854126	232.143890
1858.046387	269.241669
1857.238403	263.007996
1856.430298	284.619629
1855.622070	266.012756
1854.813721	293.801910
1854.005249	278.291870
1853.196533	247.328964
1852.387817	275.107208
1851.578857	234.883514
1850.769775	222.483810
1849.960693	278.058014
1849.151367	299.634338
1848.341919	256.345032
1847.532227	253.213943
1846.722534	293.308289
1845.912720	280.911194
1845.102661	259.259033
1844.292603	253.043610
1843.482300	265.342560
1842.671875	262.213043
1841.861328	302.265350
1841.050659	280.627747
1840.239868	255.914108
1839.428833	314.443939
1838.617798	283.568359
1837.806519	283.520630
1836.995117	305.041504
1836.183716	277.263763
1835.372070	286.457672
1834.560303	264.851746
1833.748291	289.440369
1832.936279	258.605286
1832.124146	267.796112
1831.311768	292.371796
1830.499390	286.168396
1829.686768	258.431152
1828.874023	249.159485
1828.061157	255.268570
1827.248169	264.450592
1826.434937	264.406036
1825.621704	279.731354
1824.808228	264.316956
1823.994751	307.293518
1823.181030	264.227905
1822.367188	276.470978
1821.553223	331.709259
1820.739136	282.519501
1819.924927	276.331207
1819.110474	239.446671
1818.296021	276.238068
1817.481323	273.122681
1816.666626	285.349762
1815.851685	291.437164
1815.036621	266.850098
1814.221436	285.205444
1813.406006	272.892517
1812.590576	303.503387
1811.774902	331.038788
1810.959229	288.077759
1810.143311	242.067062
1809.327271	251.217102
1808.511108	260.364044
1807.694824	306.258942
1806.878418	284.772766
1806.061768	296.970947
1805.245117	275.493561
1804.428223	278.507599
1803.611206	229.500488
1802.794067	293.711060
1801.976807	296.720459
1801.159424	238.559677
1800.341919	321.083801
1799.524170	287.397949
1798.706421	281.235596
1797.888428	327.033997
1797.070313	244.470123
1796.252075	302.480682
1795.433716	317.703827
1794.615234	296.269897
1793.796509	302.327484
1792.977783	268.690155
1792.158813	280.855896
1791.339844	247.233521
1790.520630	320.433746
1789.701294	268.508636
1788.881714	298.970459
1788.062134	301.970154
1787.242432	271.422241
1786.422485	301.868103
1785.602417	256.087219
1784.782349	298.717926
1783.962036	280.381683
1783.141479	304.711182
1782.320923	271.147125
1781.500244	268.055206
1780.679321	268.009888
1779.858398	261.874451
1779.037231	298.364624
1778.215942	298.314178
1777.394531	298.263733
1776.572998	310.385254
1775.751221	270.780548
1774.929443	307.238312
1774.107422	261.564606
1773.285278	291.929718
1772.463013	288.839905
1771.640625	319.190094
1770.818115	291.781555
1769.995483	291.732208
1769.172607	276.491028
1768.349731	303.784851
1767.526611	291.584106
1766.703369	258.129730
1765.880005	270.231262
1765.056519	270.185547
1764.232910	267.104523
1763.409058	309.546021
1762.585083	267.014099
1761.761108	279.103821
1760.936890	339.721039
1760.112549	303.270996
1759.288086	275.929871
1758.463379	339.548492
1757.638672	290.992279
1756.813721	324.280182
1755.988647	354.526703
1755.163574	287.814789
1754.338257	315.028076
1753.512695	302.860291
1752.687134	287.668518
1751.861328	287.619781
1751.035522	281.516937
1750.209473	278.442657
1749.383301	281.421509
1748.557007	299.526978
1747.730591	287.376160
1746.903931	290.351929
1746.077271	323.566559
1745.250366	323.511719
1744.423340	305.319092
1743.596313	314.334686
1742.768921	296.149780
1741.941528	329.335205
1741.114014	271.882050
1740.286255	323.182709
1739.458374	329.167694
1738.630493	292.879364
1737.802368	310.942841
1736.973999	313.908447
1736.145630	292.730316
1735.317139	295.697998
1734.488403	301.681458
1733.659546	310.679169
1732.830566	313.642242
1732.001465	304.543182
1731.172241	286.402893
1730.342896	322.525330
1729.513306	325.484344
1728.683594	355.561401
1727.853882	313.322968
1727.023926	337.367462
1726.193726	292.134705
1725.363525	334.241699
1724.533203	349.238342
1723.702637	313.057068
1722.871948	300.965271
1722.041138	340.033020
1721.210205	330.949371
1720.379150	294.795715
1719.547974	294.745636
1718.716553	303.716858
1717.885010	339.744293
1717.053467	291.589355
1716.221558	312.578796
1715.389648	321.540833
1714.557617	330.499817
1713.725342	309.415436
1712.893066	327.383972
1712.060547	315.316284
1711.227905	333.277679
1710.395142	318.211090
1709.562256	312.154022
1708.729126	318.102905
1707.895874	321.049286
1707.062622	344.994293
1706.229126	350.934509
1705.395508	353.873749
1704.561646	293.845184
1703.727783	353.753387
1702.893677	332.711426
1702.059570	332.654846
1701.225220	323.609100
1700.390747	356.508636
1699.556030	335.480438
1698.721313	320.449127
1697.886353	341.354980
1697.051392	347.284576
1696.216187	323.278870
1695.380859	368.116058
1694.545410	377.030334
1693.709717	359.015381
1692.874023	338.015259
1692.038086	337.957733
1691.202026	331.919678
1690.365845	325.883636
1689.529541	355.720642
1688.692993	319.795197
1687.856445	361.575958
1687.019653	358.526672
1686.182739	298.721344
1685.345703	382.298187
1684.508545	334.453949
1683.671143	355.296783
1682.833740	325.384460
1681.996094	319.359711
1681.158325	325.273621
1680.320435	340.136444
1679.482422	337.095367
1678.644287	372.829559
1677.805908	345.926849
1676.967407	363.757629
1676.128784	330.903381
1675.290039	318.924561
1674.451172	321.850311
1673.612183	345.632141
1672.772949	318.761505
1671.933594	357.428589
1671.094116	378.214081
1670.254517	345.396484
1669.414795	372.131012
1668.574829	369.091003
1667.734863	363.075989
1666.894653	371.940643
1666.054321	368.902191
1665.213867	371.813751
1664.373169	383.646332
1663.532471	353.845947
1662.691528	371.623474
1661.850464	371.560089
1661.009277	329.889038
1660.167969	410.062347
1659.326538	332.747406
1658.484863	350.513336
1657.643066	341.543671
1656.801147	386.026947
1655.959106	388.929993
1655.116943	356.210907
1654.274658	359.118011
1653.432129	382.795990
1652.589478	367.896118
1651.746704	364.866882
1650.903809	349.975128
1650.060791	376.603821
1649.217529	352.820465
1648.374146	364.617676
1647.530640	385.302460
1646.687012	382.273285
1645.843262	397.022247
1644.999390	352.519196
1644.155273	367.268188
1643.311035	405.702759
1642.466675	387.868469
1641.622192	343.397339
1640.777588	408.454620
1639.932739	423.181366
1639.087769	384.644562
1638.242798	354.995819
1637.397461	375.639679
1636.552124	396.276489
1635.706665	410.992615
1634.860962	387.272156
1634.015137	375.382843
1633.169189	384.184448
1632.323120	372.299713
1631.476929	357.464752
1630.630493	386.941101
1629.783936	389.828156
1628.937256	389.761475
1628.090454	410.360443
1627.243530	416.193665
1626.396484	386.610229
1625.549194	401.297668
1624.701782	368.776672
1623.854248	365.763855
1623.006592	359.802826
1622.158691	395.125641
1621.310791	365.576080
1620.462646	400.885773
1619.614380	400.817139
1618.765991	391.908478
1617.917358	362.379608
1617.068726	368.208923
1616.219849	418.213715
1615.370850	403.418762
1614.521729	370.963928
1613.672363	391.505981
1612.822998	394.382080
1611.973389	403.142456
1611.123657	406.015533
1610.273804	400.062714
1609.423828	438.228912
1608.573608	373.459991
1607.723389	376.336121
1606.872925	435.064056
1606.022339	434.989502
1605.171509	402.590210
1604.320679	396.644989
1603.469604	384.826569
1602.618408	387.697693
1601.767090	402.314240
1600.915649	378.756500
1600.064087	413.918671
1599.212280	399.172272
1598.360352	410.842163
1597.508301	419.573975
1596.656128	387.232635
1595.803833	416.496979
1594.951294	407.627838
1594.098633	384.101349
1593.245850	407.488007
1592.392944	398.624908
1591.539795	427.862122
1590.686646	418.998535
1589.833252	392.560638
1588.979736	351.486511
1588.126099	377.783173
1587.272217	404.070770
1586.418335	447.914612
1585.564209	383.442780
1584.709961	427.275085
1583.855591	418.423615
1583.000977	415.426239
1582.146362	383.179535
1581.291504	403.585480
1580.436523	397.668121
1579.581421	426.835114
1578.726074	362.455231
1577.870605	417.920959
1577.015137	376.940857
1576.159424	420.698914
1575.303467	368.048309
1574.447510	408.872314
1573.591309	414.642120
1572.734985	397.053802
1571.878540	396.985565
1571.021973	423.183960
1570.165161	420.193207
1569.308350	455.131104
1568.451294	457.969879
1567.594116	437.475616
1566.736694	460.728455
1565.879272	451.902740
1565.021606	411.015045
1564.163818	428.431396
1563.305908	457.497711
1562.447876	390.408600
1561.589600	448.601410
1560.731201	442.699280
1559.872681	422.239166
1559.014038	439.635498
1558.155273	442.470886
1557.296265	430.752808
1556.437134	433.588684
1555.577881	418.966644
1554.718506	453.802460
1553.859009	459.541351
1552.999268	410.026459
1552.139404	471.013153
1551.279419	389.536438
1550.419312	418.534271
1549.558960	430.086182
1548.698608	432.917633
1547.838013	464.797974
1546.977173	415.341675
1546.116333	397.846252
1545.255249	432.619598
1544.394165	412.224182
1543.532837	415.055695
1542.671265	412.082245
1541.809692	429.420197
1540.947876	440.950195
1540.085938	429.272278
1539.223877	463.998199
1538.361694	443.621857
1537.499268	405.858551
1536.636841	405.788635
1535.774170	469.474518
1534.911377	449.111176
1534.048340	454.827759
1533.185303	434.473938
1532.322021	480.734955
1531.458618	483.547577
1530.594971	506.624207
1529.731323	460.224945
1528.867432	480.403564
1528.003418	457.172760
1527.139282	465.772949
1526.275024	474.370117
1525.410522	430.908295
1524.545898	462.640533
1523.681152	491.470795
1522.816284	448.028442
1521.951172	453.731171
1521.086060	439.205353
1520.220703	444.907623
1519.355225	418.834259
1518.489502	418.761993
1517.623779	427.352264
1516.757813	441.713623
1515.891724	461.843048
1515.025513	427.131073
1514.159058	478.996765
1513.292480	426.983643
1512.425781	455.755219
1511.558960	455.676544
1510.692017	438.296692
1509.824829	412.273743
1508.957520	449.675507
1508.090088	481.300262
1507.222534	461.046387
1506.354736	486.896149
1505.486938	458.006622
1504.618896	469.447693
1503.750610	431.932465
1502.882324	449.132172
1502.013794	474.961578
1501.145142	463.367279
1500.276367	446.021881
1499.407471	494.854889
1498.538330	489.016235
1497.669067	471.675323
1496.799683	483.096100
1495.930176	494.512909
1495.060547	459.932495
1494.190674	528.830933
1493.320679	531.613098
1492.450562	445.328583
1491.580200	448.124176
1490.709717	482.511841
1489.839233	496.786377
1488.968384	482.344971
1488.097534	522.450012
1487.226440	516.619446
1486.355347	516.530090
1485.483887	487.749603
1484.612427	507.745575
1483.740845	550.679565
1482.869019	524.775635
1481.997070	527.552002
1481.124878	550.393799
1480.252686	544.566284
1479.380249	555.934631
1478.507690	587.354980
1477.635010	550.012878
1476.762207	638.706482
1475.889160	641.459595
1475.015991	638.485413
1474.142700	641.237549
1473.269165	646.850830
1472.395630	715.419067
1471.521851	686.683411
1470.647949	769.524353
1469.773804	755.090149
1468.899658	837.890503
1468.025269	860.619019
1467.150757	869.046021
1466.276001	917.485046
1465.401245	968.764954
1464.526245	1020.027039
1463.651123	1051.274292
1462.775879	1056.804565
1461.900391	1048.054199
1461.024780	1127.819336
1460.149048	1079.093262
1459.273193	1098.885986
1458.397217	1138.648071
1457.520996	1075.678955
1456.644653	1061.228638
1455.768188	1095.271851
1454.891479	1103.637329
1454.014648	1066.379272
1453.137695	1020.581848
1452.260620	977.650452
1451.383423	1017.378052
1450.505981	968.763489
1449.628418	988.537109
1448.750732	979.820679
1447.872803	945.476868
1446.994873	1030.732666
1446.116699	1044.787964
1445.238403	1087.301880
1444.359863	1132.646729
1443.481201	1158.058350
1442.602417	1334.238525
1441.723511	1365.295044
1440.844482	1544.221924
1439.965210	1663.375732
1439.085815	1739.844849
1438.206299	1836.184082
1437.326538	1798.920654
1436.446777	1662.220947
1435.566772	1446.023193
1434.686646	1346.357544
1433.806274	1243.886475
1432.925781	1189.721313
1432.045166	1090.151855
1431.164429	979.263184
1430.283569	950.713562
1429.402466	882.449402
1428.521240	822.719849
1427.639893	873.633423
1426.758301	757.206482
1425.876709	751.403931
1424.994873	776.788269
1424.112793	793.660278
1423.230713	756.680237
1422.348389	716.879517
1421.465942	793.246521
1420.583374	761.950806
1419.700562	804.298950
1418.817627	775.843628
1417.934570	939.909851
1417.051392	993.527100
1416.167969	1078.256470
1415.284546	1225.206909
1414.400757	1165.583008
1413.516968	1080.522583
1412.633057	992.663452
1411.748901	828.489441
1410.864624	797.247009
1409.980103	760.362183
1409.095459	630.227783
1408.210815	610.338623
1407.325806	573.505493
1406.440796	601.652222
1405.555542	556.360901
1404.670166	561.911377
1403.784668	590.045410
1402.899048	575.829285
1402.013184	522.107178
1401.127197	567.163635
1400.241089	561.422485
1399.354736	552.862549
1398.468262	583.788879
1397.581665	527.292297
1396.694946	572.308533
1395.807983	549.658752
1394.920898	541.108215
1394.033691	541.013977
1393.146362	524.015991
1392.258789	574.627075
1391.371094	518.200806
1390.483276	574.426880
1389.595337	532.096863
1388.707153	557.337646
1387.818848	562.869202
1386.930420	630.303650
1386.041748	551.419556
1385.152954	573.826477
1384.264038	562.476929
1383.375000	579.250183
1382.485718	562.280823
1381.596313	564.993652
1380.706787	522.738831
1379.817139	556.366882
1378.927246	578.745361
1378.037231	533.701172
1377.147095	544.841980
1376.256714	570.018677
1375.366333	626.068970
1374.475586	595.082764
1373.584839	606.205017
1372.693970	564.008972
1371.802856	600.382446
1370.911499	631.133057
1370.020142	619.804749
1369.128540	594.460022
1368.236816	625.195557
1367.344971	613.874084
1366.453003	653.003174
1365.560791	630.472412
1364.668457	627.560730
1363.775879	551.820862
1362.883301	599.335266
1361.990479	571.229187
1361.097534	534.733948
1360.204346	548.636414
1359.311035	545.741882
1358.417603	568.032043
1357.524048	553.944336
1356.630249	534.267090
1355.736450	573.327881
1354.842285	587.208862
1353.948120	497.642456
1353.053711	567.436890
1352.159180	547.774353
1351.264526	494.587341
1350.369751	547.582947
1349.474731	564.247009
1348.579590	513.877747
1347.684204	502.618622
1346.788818	480.196075
1345.893188	499.651550
1344.997314	507.936768
1344.101440	558.074707
1343.205322	471.490662
1342.309082	518.827942
1341.412720	488.059204
1340.516113	568.838074
1339.619385	490.676422
1338.722534	524.039978
1337.825439	498.865662
1336.928223	484.846008
1336.030884	487.547180
1335.133423	523.673340
1334.235718	515.226685
1333.337891	478.937714
1332.439941	515.046326
1331.541870	506.605560
1330.643555	517.649109
1329.745117	489.732788
1328.846436	531.378357
1327.947754	528.503723
1327.048828	492.256744
1326.149780	525.538025
1325.250488	505.985046
1324.351074	486.438873
1323.451538	472.457886
1322.551880	522.391296
1321.651978	461.179626
1320.751953	499.986694
1319.851807	486.013031
1318.951416	485.927887
1318.050903	502.500214
1317.150269	502.412170
1316.249512	449.593964
1315.348511	516.110046
1314.447388	493.825195
1313.546021	557.536316
1312.644653	538.025330
1311.743042	549.022400
1310.841309	540.609070
1309.939331	576.548584
1309.037231	543.190918
1308.135010	562.491943
1307.232666	590.097412
1306.330078	548.445068
1305.427368	567.734985
1304.524536	634.090271
1303.621460	589.683594
1302.718262	661.547668
1301.814941	680.804077
1300.911499	708.354797
1300.007813	710.997009
1299.104004	766.193054
1298.199951	862.853027
1297.295898	1078.377075
1296.391602	1379.527466
1295.487061	1849.182129
1294.582520	2451.325439
1293.677734	2605.630371
1292.772827	2292.994141
1291.867676	1834.073364
1290.962402	1281.416626
1290.057007	869.774475
1289.151489	681.893860
1288.245728	634.850403
1287.339844	607.141602
1286.433838	540.812988
1285.527588	507.612793
1284.621216	490.973938
1283.714722	463.309753
1282.808105	471.500275
1281.901245	465.903809
1280.994263	485.116333
1280.087036	446.449097
1279.179810	468.413635
1278.272217	404.968842
1277.364624	404.897675
1276.456787	437.873566
1275.548828	396.495026
1274.640747	377.154663
1273.732544	423.880341
1272.824097	423.805817
1271.915405	420.979797
1271.006714	440.162903
1270.097778	412.580170
1269.188721	412.507629
1268.279541	404.186371
1267.370117	404.115295
1266.460571	439.776001
1265.550781	414.965607
1264.640991	395.659149
1263.730957	381.853821
1262.820679	406.506622
1261.910400	373.480896
1260.999878	365.178070
1260.089233	351.387726
1259.178345	395.241638
1258.267334	419.870331
1257.356201	386.871216
1256.444824	373.086700
1255.533447	373.020996
1254.621704	345.532166
1253.709961	342.729492
1252.797974	348.151855
1251.885864	372.758362
1250.973633	348.029236
1250.061157	364.407379
1249.148560	383.519165
1248.235840	364.279022
1247.322876	334.091827
1246.409790	328.557007
1245.496582	309.336700
1244.583130	347.600342
1243.669556	317.437286
1242.755859	311.909241
1241.841919	347.416626
1240.927856	311.799316
1240.013672	344.559570
1239.099365	355.435303
1238.184814	341.704468
1237.270142	311.579559
1236.355225	338.851349
1235.440186	336.059418
1234.525024	349.658691
1233.609741	281.316376
1232.694214	341.343140
1231.778564	305.789520
1230.862671	341.222748
1229.946777	316.598877
1229.030640	341.102386
1228.114258	335.585541
1227.197876	313.703491
1226.281128	321.830261
1225.364380	302.685242
1224.447388	368.065735
1223.530273	313.482147
1222.613037	335.230438
1221.695557	376.045807
1220.777954	324.214142
1219.860229	324.156921
1218.942261	351.334961
1218.024170	332.211609
1217.105957	348.488342
1216.187500	315.761810
1215.268921	353.808502
1214.350220	326.534790
1213.431274	310.153259
1212.512207	288.337189
1211.593018	350.838959
1210.673706	318.146576
1209.754150	339.840118
1208.834351	288.133514
1207.914551	342.437836
1206.994507	304.335388
1206.074219	326.016022
1205.153931	312.376801
1204.233398	301.458252
1203.312744	298.689606
1202.391846	350.219543
1201.470825	331.156830
1200.549683	336.526123
1199.628296	341.893524
1198.706787	301.138641
1197.785156	311.935333
1196.863281	320.016174
1195.941284	317.248077
1195.019165	309.058838
1194.096802	317.135864
1193.174438	306.239441
1192.251709	289.927643
1191.328979	281.748993
1190.406006	292.533722
1189.482788	303.314636
1188.559570	316.799408
1187.636108	292.378479
1186.712402	330.220917
1185.788696	265.212494
1184.864746	319.280975
1183.940552	275.939789
1183.016357	311.053528
1182.091919	327.224457
1181.167236	316.351105
1180.242554	346.032257
1179.317505	321.644897
1178.392456	313.480682
1177.467163	364.762054
1176.541748	343.085754
1175.616211	367.333832
1174.690430	353.766235
1173.764526	345.603516
1172.838501	356.340485
1171.912231	407.559692
1170.985840	453.363556
1170.059204	439.792664
1169.132446	493.667450
1168.205566	504.368591
1167.278564	498.885864
1166.351318	423.303772
1165.423828	423.228760
1164.496338	371.944031
1163.568604	336.846100
1162.640747	377.200745
1161.712646	325.951416
1160.784424	342.053650
1159.856079	306.985840
1158.927490	352.701874
1157.998779	317.644592
1157.069946	328.353943
1156.140869	317.531921
1155.211670	290.570862
1154.282349	328.179230
1153.352783	322.741974
1152.423096	338.818970
1151.493164	341.447418
1150.563232	349.451080
1149.632935	357.451874
1148.702637	338.578522
1147.772095	346.578400
1146.841431	349.203064
1145.910522	341.083984
1144.979492	314.171173
1144.048340	338.278137
1143.116943	314.059631
1142.185425	295.217316
1141.253784	372.981110
1140.321899	346.086456
1139.389893	391.625183
1138.457764	367.418640
1137.525391	418.300201
1136.592896	428.949646
1135.660278	410.110229
1134.727417	503.836761
1133.794434	594.850464
1132.861206	704.585022
1131.927856	846.423218
1130.994385	1215.847656
1130.060669	1518.200562
1129.126831	1831.154541
1128.192871	1940.571777
1127.258667	1814.446533
1126.324341	1434.174805
1125.389893	1182.448730
1124.455200	957.559692
1123.520386	767.516113
1122.585327	641.711182
1121.650146	540.010864
1120.714844	507.840698
1119.779297	515.767456
1118.843628	462.237854
1117.907837	408.727234
1116.971802	392.628845
1116.035645	408.581818
1115.099365	392.489136
1114.162842	328.350861
1113.226196	336.299561
1112.289307	362.925385
1111.352417	352.188416
1110.415161	386.804779
1109.477905	320.057343
1108.540405	336.000366
1107.602661	322.609589
1106.664917	357.206512
1105.726807	335.820953
1104.788696	322.437286
1103.850342	295.736908
1102.911865	343.633057
1101.973145	380.858704
1101.034302	308.893311
1100.095337	362.086243
1099.156128	330.078644
1098.216797	332.681305
1097.277344	321.978119
1096.337646	319.260254
1095.397827	340.483582
1094.457764	372.337555
1093.517700	358.975800
1092.577271	334.984375
1091.636841	358.847870
1090.696167	321.576691
1089.755249	369.348694
1088.814209	366.626129
1087.873047	358.592041
1086.931763	406.331848
1085.990234	374.395905
1085.048584	384.948425
1084.106689	366.299377
1083.164673	387.464996
1082.222412	390.049286
1081.280151	389.979706
1080.337524	339.513580
1079.394897	419.012329
1078.452026	384.468018
1077.509033	421.513855
1076.565796	416.137512
1075.622437	400.162750
1074.678955	347.099091
1073.735229	415.914764
1072.791382	384.056519
1071.847290	386.636169
1070.903076	383.919434
1069.958740	407.676117
1069.014160	397.016235
1068.069458	463.102905
1067.124512	523.874268
1066.179565	621.658936
1065.234253	737.922852
1064.288940	1002.232300
1063.343384	1202.992676
1062.397583	1390.463989
1061.451660	1342.641724
1060.505615	1308.049072
1059.559448	1199.491211
1058.613037	1017.007935
1057.666382	755.356628
1056.719727	628.471130
1055.772827	501.630981
1054.825684	477.784119
1053.878418	409.079010
1052.931030	379.979645
1051.983398	387.826569
1051.035645	337.638947
1050.087769	327.029236
1049.139648	326.970764
1048.191406	300.548401
1047.242920	289.950989
1046.294312	287.263672
1045.345581	310.927063
1044.396606	316.140472
1043.447510	271.305359
1042.498291	271.256805
1041.548828	300.172272
1040.599121	310.649048
1039.649414	297.432709
1038.699341	342.118011
1037.749268	268.383026
1036.798950	302.534546
1035.848511	310.371185
1034.897827	262.979340
1033.947021	247.156326
1032.996094	252.369781
1032.044922	310.148987
1031.093506	278.558533
1030.142090	267.998871
1029.190430	275.831787
1028.238525	275.782410
1027.286499	254.724777
1026.334351	265.181396
1025.381958	254.633530
1024.429443	241.464828
1023.476807	293.904510
1022.523926	251.873016
1021.570923	254.451096
1020.617737	259.650970
1019.664368	259.604431
1018.710815	225.474564
1017.757080	246.404755
1016.803223	259.464874
1015.849121	277.761078
1014.894897	246.272278
1013.940491	259.325378
1012.985962	256.659882
1012.031189	246.139832
1011.076294	293.220398
1010.121216	282.697540
1009.165955	264.327148
1008.210510	261.663086
1007.254944	235.454544
1006.299133	245.875076
1005.343201	266.752747
1004.387085	232.713089
1003.430786	240.514191
1002.474365	240.471024
1001.517700	245.654572
1000.560913	224.707458
999.603943	229.891953
998.646790	240.298447
997.689514	258.535614
996.731995	255.878189
995.774353	234.947998
994.816528	237.515869
993.858521	216.596466
992.900330	213.948441
991.942017	247.822586
990.983459	247.778076
990.024780	252.949020
989.065918	252.903580
988.106873	258.071716
987.147705	234.568512
986.188293	242.343918
985.228760	224.062714
984.269043	265.701050
983.309143	247.422195
982.349060	242.169769
981.388794	268.161316
980.428406	257.700958
979.467834	257.654663
978.507019	244.597809
977.546082	265.366943
976.585022	228.902863
975.623718	262.670807
974.662292	244.421951
973.700623	252.177292
972.738831	220.940369
971.776855	220.900635
970.814758	246.844528
969.852417	246.800125
968.889954	233.768585
967.927246	202.562988
966.964417	233.684479
966.001404	241.430511
965.038208	231.004837
964.074890	241.343628
963.111328	236.110947
962.147644	228.285980
961.183777	259.369171
960.219727	243.763153
959.255493	220.384445
958.291077	264.413727
957.326538	264.366119
956.361755	233.222214
955.396851	269.452698
954.431763	227.957367
953.466492	256.405853
952.501038	235.643738
951.535461	248.546432
950.569641	225.204620
949.603699	258.809265
948.637573	253.587372
947.671265	238.018723
946.704773	243.149216
945.738098	258.622772
944.771240	255.990402
943.804260	263.700165
942.837097	232.634674
941.869751	232.592728
940.902222	250.638092
939.934509	258.343201
938.966614	260.879578
937.998535	240.172546
937.030334	260.785522
936.061951	222.014954
935.093323	247.785950
934.124573	276.128265
933.155640	270.918121
932.186584	250.231598
931.217285	260.503418
930.247864	252.720093
929.278198	278.457611
928.308411	255.206757
927.338440	262.892853
926.368286	249.960815
925.397949	255.068604
924.427429	236.990677
923.456787	265.278625
922.485901	278.106018
921.514893	265.182861
920.543701	257.412598
919.572327	259.939789
918.600769	270.185638
917.629028	290.718689
916.657104	272.660309
915.685059	270.039276
914.712769	303.417877
913.740356	275.083466
912.767761	295.597046
911.794983	287.833801
910.822021	264.656494
909.848877	249.194565
908.875549	267.129395
907.902039	274.785400
906.928406	267.032867
905.954590	300.357666
904.980530	261.802948
904.006348	266.888092
903.031982	264.274078
902.057434	277.052795
901.082703	269.308197
900.107849	246.180115
899.132751	258.955170
898.157532	251.217987
897.182068	266.550446
896.206482	292.127472
895.230713	279.264343
894.254761	261.282654
893.278625	281.724426
892.302307	271.430786
891.325806	299.543915
890.349182	258.533875
889.372314	243.131409
888.395325	281.469635
887.418091	266.068573
886.440735	278.809875
885.463196	263.414825
884.485474	250.582336
883.507568	255.649963
882.529480	299.056305
881.551270	309.224457
880.572815	265.731567
879.594238	286.120636
878.615417	278.406250
877.636475	291.124451
876.657349	308.944550
875.677979	257.832611
874.698486	313.937286
873.718811	301.121033
872.739014	334.234833
871.758972	295.910034
870.778748	318.810791
869.798401	300.902832
868.817810	313.596100
867.837097	295.695557
866.856140	285.447418
865.875061	290.492035
864.893799	249.675934
863.912354	303.122955
862.930725	285.240479
861.948914	303.013031
860.966919	310.595703
859.984741	287.630707
859.002441	254.494293
858.019897	277.348450
857.037231	295.106293
856.054321	251.812256
855.071289	279.740631
854.088074	279.689880
853.104614	322.856079
852.121033	284.671814
851.137268	271.913879
850.153320	289.650085
849.169189	266.734528
848.184937	304.784149
847.200439	274.255920
846.215759	253.894577
845.230896	291.925751
844.245911	294.410767
843.260681	251.218735
842.275330	276.544128
841.289795	286.640472
840.304016	276.443695
839.318115	281.464905
838.332031	266.202240
837.345764	263.619080
836.359314	271.174194
835.372681	263.523285
834.385864	263.475403
833.398865	240.630905
832.411743	243.119675
831.424377	248.139557
830.436829	250.626038
829.449158	288.547211
828.461243	285.964111
827.473206	288.442322
826.484924	290.919617
825.496521	303.513092
824.507935	308.515533
823.519104	331.214630
822.530151	290.708038
821.541016	252.743637
820.551697	255.224640
819.562195	272.863831
818.572510	275.340240
817.582642	265.187744
816.592590	255.038956
815.602356	262.566589
814.611938	295.333649
813.621399	282.661102
812.630615	287.656250
811.639648	274.989685
810.648560	262.327728
809.657227	272.367676
808.665771	262.232239
807.674072	274.789490
806.682251	284.821655
805.690186	294.850128
804.697998	277.159058
803.705566	241.840210
802.713013	256.908417
801.720276	244.270370
800.727356	259.332611
799.734253	244.181381
798.740906	269.305634
797.747437	266.740143
796.753784	244.047928
795.759949	284.251434
794.765930	271.624451
793.771729	304.264496
792.777344	261.468933
791.782776	279.016937
790.788025	299.071747
789.793091	271.376953
788.798035	256.253723
787.802734	283.837189
786.807251	266.205780
785.811584	318.886505
784.815796	296.234222
783.819763	268.570160
782.823547	263.502106
781.827148	255.926773
780.830627	238.319687
779.833862	248.308884
778.836975	263.309845
777.839844	253.232788
776.842529	248.172974
775.845093	250.634033
774.847412	260.611816
773.849609	278.102234
772.851563	217.932220
771.853394	272.991669
770.854980	240.389145
769.856445	265.381226
768.857666	220.276245
767.858765	245.262848
766.859680	282.751434
765.860352	285.201569
764.860901	287.650787
763.861206	277.594818
762.861389	280.044495
761.861389	249.994064
760.861145	247.448898
759.860779	267.395905
758.860168	239.862762
757.859436	252.309509
756.858521	259.756378
755.857361	254.714493
754.856079	244.680954
753.854614	262.110229
752.852905	249.583160
751.851074	257.023651
750.848999	274.441101
749.846802	266.907532
748.844421	309.256836
747.841797	304.213165
746.839050	261.774933
745.836121	259.234406
744.832947	264.171356
743.829651	284.056854
742.826111	266.565979
741.822449	261.535583
740.818604	301.333466
739.814514	291.318726
738.810303	293.754852
737.805847	246.410233
736.801270	271.250519
735.796448	258.760437
734.791504	248.762573
733.786316	268.614410
732.781006	273.538666
731.775452	283.433594
730.769775	268.466888
729.763855	320.610046
728.757751	283.277924
727.751526	285.710480
726.745056	303.046021
725.738403	248.352890
724.731628	295.485809
723.724609	263.157623
722.717407	260.627228
721.710083	250.652634
720.702515	272.937988
719.694763	272.887970
718.686829	277.798645
717.678711	295.106964
716.670410	277.696838
715.661987	255.335083
714.653320	255.288284
713.644470	262.675690
712.635437	267.582764
711.626221	282.396667
710.616821	247.670959
709.607178	287.245636
708.597412	267.386536
707.587463	289.615601
706.577332	240.064621
705.567017	259.816101
704.556458	254.820450
703.545776	252.300171
702.534912	259.673096
701.523804	244.789719
700.512573	227.439606
699.501099	249.643295
698.489502	286.666412
697.477661	242.139236
696.465698	261.857635
695.453491	269.219269
694.441101	259.292023
693.428589	224.678497
692.415833	276.476593
691.402893	227.064072
690.389771	278.842712
689.376465	261.521210
688.362976	266.406647
687.349304	251.560043
686.335449	229.321426
685.321411	246.536880
684.307190	256.351257
683.292725	283.413239
682.278137	248.865005
681.263367	219.256592
680.248352	270.941467
679.233215	295.518188
678.217834	317.623657
677.202332	285.562561
676.186584	231.361603
675.170654	290.379242
674.154541	260.801208
673.138306	268.133057
672.121826	270.543213
671.105164	253.280243
670.088318	258.150818
669.071289	267.935822
668.054016	270.344208
667.036621	243.265030
666.019043	255.504120
665.001282	257.913422
663.983276	243.130768
662.965149	272.550995
661.946777	274.955811
660.928223	279.814209
659.909546	287.124878
658.890625	282.164825
657.871521	250.221848
656.852234	264.891998
655.832764	220.702682
654.813110	252.535461
653.793274	267.197052
652.773254	274.500519
651.752991	242.594162
650.732605	286.649384
649.711975	244.954346
648.691223	288.992889
647.670227	284.042358
646.649048	279.093628
645.627747	271.699005
644.606201	283.885376
643.584473	256.917847
642.562561	269.102417
641.540466	281.282501
640.518127	271.448700
639.495667	264.063568
638.473022	271.348633
637.450134	288.407532
636.427063	278.579620
635.403870	278.528229
634.380432	254.049088
633.356812	283.310181
632.333008	253.955368
631.309021	266.115662
630.284851	295.358307
629.260498	297.744354
628.235901	263.528320
627.211182	278.117462
626.186218	285.383667
625.161133	270.698669
624.135803	251.142487
623.110291	263.285248
622.084595	287.610443
621.058716	268.061920
620.032654	272.885376
619.006409	272.834991
617.979919	275.220215
616.953308	250.818115
615.926453	272.683899
614.899414	277.501984
613.872253	255.546722
612.844849	294.432800
611.817261	318.707184
610.789490	301.621307
609.761475	267.517853
608.733337	272.331482
607.705017	257.694672
606.676453	284.384003
605.647705	281.901276
604.618774	276.989685
603.589722	269.650635
602.560425	255.027786
601.530884	276.836121
600.501221	301.064331
599.471375	279.161255
598.441284	288.817810
597.411011	305.750519
596.380615	293.563263
595.349976	269.252045
594.319153	257.076019
593.288147	259.453247
592.256897	261.829590
591.225525	295.715759
590.193970	295.661041
589.162170	293.183319
588.130188	278.593750
587.098022	264.009552
586.065674	293.020599
585.033142	261.490631
584.000427	290.491364
582.967468	256.553192
581.934387	290.383820
580.901062	287.910645
579.867554	287.857330
578.833862	307.152191
577.799988	304.677246
576.765930	302.203186
575.731628	285.226990
574.697205	299.674530
573.662537	299.619019
572.627747	297.147675
571.592712	282.600281
570.557434	246.323837
569.522034	270.423126
568.486450	265.544922
567.450623	296.872467
566.414673	272.685944
565.378479	287.111603
564.342102	294.295166
563.305542	299.064209
562.268799	272.483795
561.231812	291.720581
560.194702	303.718842
559.157349	325.352692
558.119812	320.473206
557.082092	366.187164
556.044189	284.224152
555.006042	301.029053
553.967773	313.012115
552.929260	288.880676
551.890625	300.861542
550.851746	271.928345
549.812683	307.967896
548.773376	305.505188
547.733948	305.448486
546.694275	307.796448
545.654419	317.356171
544.614441	305.278412
543.574158	271.575256
542.533752	324.388062
541.493164	314.718109
540.452332	343.483459
539.411316	300.192017
538.370178	338.553711
537.328735	338.490814
536.287170	326.426971
535.245422	326.366333
534.203430	331.104309
533.161255	333.441650
532.118896	309.395538
531.076355	318.929932
530.033630	285.305328
528.990723	323.605560
527.947571	294.785797
526.904236	304.315765
525.860718	304.259186
524.817017	328.155579
523.773132	347.253387
522.729004	361.555237
521.684692	380.639709
520.640198	356.633759
519.595520	346.995148
518.550659	354.108490
517.505615	325.336456
516.460327	303.750336
515.414856	310.867706
514.369202	303.637329
513.323364	308.361633
512.277283	327.423889
511.231079	324.973450
510.184631	322.523895
509.138000	312.909393
508.091187	286.581207
507.044159	303.241974
505.996948	305.572815
504.949554	310.289612
503.901947	338.868622
502.854126	341.191467
501.806152	295.803253
500.757965	321.983887
499.709564	336.231628
