#Wave		#Intensity
3200.600830	8.419704
3200.007080	21.049261
3199.413086	12.627648
3198.819092	16.834320
3198.224854	16.831776
3197.630615	12.621923
3197.036377	21.033358
3196.442139	37.854321
3195.847656	42.054001
3195.252930	4.204764
3194.658447	42.041283
3194.063721	16.813971
3193.468750	8.405714
3192.873779	4.202222
3192.278809	16.806345
3191.683838	29.406656
3191.088623	16.801262
3190.493164	29.397762
3189.897949	12.597136
3189.302490	37.785690
3188.706787	-16.791100
3188.111328	8.394279
3187.515381	33.572041
3186.919678	8.391741
3186.323730	16.780941
3185.727783	20.973003
3185.131592	12.581898
3184.535400	8.386662
3183.939209	25.156181
3183.342773	25.152374
3182.746338	20.957140
3182.149902	12.572381
3181.553223	33.521275
3180.956543	12.568576
3180.359619	33.511131
3179.762695	25.129543
3179.165771	33.500984
3178.568604	16.747957
3177.971436	25.118132
3177.374268	25.114328
3176.776855	16.740351
3176.179443	16.737816
3175.581787	16.735283
3174.984131	29.282309
3174.386475	12.547661
3173.788574	33.455360
3173.190674	37.631580
3172.592773	16.722614
3171.994629	20.900103
3171.396484	12.538162
3170.798340	16.715017
3170.199951	25.068727
3169.601563	25.064930
3169.002930	29.237988
3168.404297	16.704891
3167.805664	-8.351180
3167.206787	25.049744
3166.607910	20.871622
3166.008789	8.347384
3165.409912	20.865297
3164.810547	25.034563
3164.211426	16.687180
3163.612061	8.342325
3163.012695	12.511591
3162.413086	8.339796
3161.813477	29.184862
3161.213623	12.505902
3160.614014	29.176016
3160.013916	16.669481
3159.414063	16.666954
3158.813965	4.166107
3158.213867	12.496426
3157.613525	16.659374
3157.013184	20.821060
3156.412598	20.817902
3155.812256	29.140644
3155.211426	37.460857
3154.610840	29.131805
3154.010010	24.966331
3153.409180	37.443817
3152.808105	12.479379
3152.207031	20.795809
3151.605957	12.475593
3151.004639	24.947401
3150.403320	24.943615
3149.801758	0.000000
3149.200195	0.000000
3148.598633	33.243019
3147.996826	24.928480
3147.395020	8.308232
3146.793213	29.074400
3146.191162	4.152855
3145.589111	-12.456676
3144.986816	20.757975
3144.384766	33.207718
3143.782227	33.202675
3143.179932	0.000000
3142.577393	8.298149
3141.974609	12.445333
3141.371826	37.330334
3140.769043	4.147185
3140.166260	0.000000
3139.563232	4.145926
3138.960205	0.000000
3138.356934	24.868000
3137.753662	8.288074
3137.150391	24.860447
3136.546875	-4.142778
3135.943359	28.995045
3135.339600	4.141520
3134.735840	16.563564
3134.132080	20.701309
3133.528076	8.279265
3132.924072	0.000000
3132.320068	8.276751
3131.715820	37.239716
3131.111572	-4.137118
3130.507080	20.682446
3129.902588	41.358604
3129.298096	20.676159
3128.693604	28.942225
3128.088867	4.133975
3127.483887	16.533386
3126.878906	45.459904
3126.273926	33.056721
3125.668945	0.000000
3125.063721	16.523336
3124.458252	28.911442
3123.853027	24.777470
3123.247559	41.289501
3122.641846	16.513290
3122.036133	16.510778
3121.430420	12.381201
3120.824707	33.011517
3120.218750	8.251624
3119.612549	-4.125185
3119.006592	16.498228
3118.400391	4.123930
3117.793945	0.000000
3117.187500	16.490700
3116.581055	16.488192
3115.974609	28.849947
3115.367920	16.483175
3114.760986	20.600836
3114.154297	20.597700
3113.547363	20.594566
3112.940186	8.236573
3112.333008	4.117660
3111.725830	37.053299
3111.118408	28.814846
3110.510986	8.231561
3109.903564	37.036385
3109.295898	41.145275
3108.688232	24.683407
3108.080566	20.566374
3107.472656	20.563244
3106.864746	24.672134
3106.256592	28.779776
3105.648438	16.443083
3105.040039	12.330434
3104.431885	16.438076
3103.823486	4.108893
3103.214844	20.541336
3102.606201	4.107642
3101.997559	24.642096
3101.388672	16.425562
3100.779785	12.317295
3100.170898	16.420559
3099.561768	32.836117
3098.952637	28.727224
3098.343262	4.103264
3097.733887	20.513195
3097.124512	28.714096
3096.514893	4.101389
3095.905273	20.503819
3095.295410	28.700974
3094.685791	24.597086
3094.075684	4.098889
3093.465820	4.098265
3092.855713	20.488201
3092.245361	20.485079
3091.635254	16.385565
3091.024658	8.191534
3090.414307	49.141708
3089.803711	28.661627
3089.193115	28.657257
3088.582275	16.373079
3087.971436	28.648520
3087.360596	32.736176
3086.749512	32.731182
3086.138428	28.635418
3085.527100	32.721199
3084.915771	12.268579
3084.304443	16.355610
3083.692871	8.176558
3083.081299	0.000000
3082.469482	24.522192
3081.857910	28.604860
3081.245850	28.600496
3080.634033	32.681293
3080.021973	28.591770
3079.409668	36.755238
3078.797607	12.249877
3078.185059	32.661354
3077.572754	16.328186
3076.960205	40.814232
3076.347656	16.323202
3075.734863	32.641422
3075.122070	36.715996
3074.509033	24.473595
3073.895996	16.313240
3073.282959	20.388435
3072.669922	16.308260
3072.056641	28.535097
3071.443115	4.075820
3070.829834	36.676781
3070.216064	4.074575
3069.602539	12.221861
3068.988770	20.366657
3068.375000	16.290838
3067.760986	16.288349
3067.146973	0.000000
3066.532715	16.283375
3065.918701	8.140444
3065.304199	28.487202
3064.689941	36.620808
3064.075439	36.615215
3063.460693	32.541885
3062.846191	32.536915
3062.231445	36.598438
3061.616455	40.658718
3061.001465	32.522003
3060.386475	28.452404
3059.771240	28.448057
3059.156006	12.190162
3058.540771	48.753193
3057.925293	40.621452
3057.309814	16.246098
3056.694092	44.669941
3056.078369	24.361698
3055.462646	12.178987
3054.846680	16.236166
3054.230713	16.233685
3053.614502	20.289003
3052.998291	24.343082
3052.382080	16.226240
3051.765625	32.447517
3051.149170	28.387238
3050.532715	20.273497
3049.916016	28.378555
3049.299316	16.213837
3048.682373	20.264196
3048.065430	40.522198
3047.448486	24.309599
3046.831299	24.305880
3046.214111	20.251802
3045.596680	28.348185
3044.979248	36.442089
3044.361816	32.388016
3043.744141	36.430943
3043.126465	24.283577
3042.508545	24.279861
3041.890869	32.368195
3041.272705	40.454052
3040.654785	28.313503
3040.036621	16.176668
3039.418213	16.174192
3038.799805	32.343433
3038.181396	32.338482
3037.562988	20.208458
3036.944336	12.123219
3036.325439	12.121363
3035.706543	40.398357
3035.087646	36.352955
3034.468750	32.308792
3033.849609	40.379803
3033.230469	36.336258
3032.611084	16.146975
3031.991699	32.289005
3031.372070	40.355076
3030.752441	52.453564
3030.132813	40.342716
3029.513184	48.403843
3028.893066	40.330357
3028.273193	20.162088
3027.653076	36.286201
3027.032959	20.155912
3026.412598	36.275082
3025.792480	28.209631
3025.171875	28.205309
3024.551270	20.143562
3023.930664	16.112379
3023.310059	36.247299
3022.689209	28.188023
3022.068115	28.183702
3021.447266	48.307514
3020.826172	44.275101
3020.204834	68.414665
3019.583496	52.309078
3018.962158	32.185268
3018.340576	48.270500
3017.718994	20.109625
3017.097412	24.127850
3016.475586	32.165535
3015.853760	36.180676
3015.231689	32.155670
3014.609619	8.037684
3013.987549	32.145809
3013.365234	52.228928
3012.742920	40.169937
3012.120361	12.049132
3011.497803	36.141853
3010.875244	36.136307
3010.252441	32.116234
3009.629639	32.111309
3009.006836	24.079786
3008.383789	40.126820
3007.760498	48.144794
3007.137451	28.080154
3006.514160	40.108353
3005.890625	32.081757
3005.267090	32.076832
3004.643555	16.035955
3004.019775	44.092110
3003.395996	28.054308
3002.772217	24.042858
3002.148193	32.052223
3001.524170	60.088696
3000.899902	44.058277
3000.275635	16.018732
2999.651367	60.061024
2999.026855	24.020720
2998.402344	28.019871
2997.777588	24.013344
2997.152832	64.025749
2996.528076	28.006964
2995.903076	24.002283
2995.278076	23.998596
2994.653076	31.993214
2994.027832	19.992687
2993.402344	27.985462
2992.777100	55.962326
2992.151367	51.957035
2991.525879	43.956890
2990.900146	27.968267
2990.274414	19.974264
2989.648438	39.942390
2989.022461	19.968126
2988.396240	31.944094
2987.770264	59.885971
2987.143799	35.926060
2986.517578	23.947025
2985.891113	51.877247
2985.264404	35.909496
2984.637695	35.903976
2984.010986	39.887177
2983.384033	47.857254
2982.757080	63.799858
2982.130127	39.868782
2981.502930	51.821445
2980.875732	19.928261
2980.248291	31.880316
2979.620850	47.813118
2978.993408	55.773392
2978.365723	31.865608
2977.738037	63.721416
2977.110107	31.855808
2976.482178	35.832272
2975.854248	51.749763
2975.226074	43.781525
2974.597900	23.877159
2973.969482	55.704800
2973.341309	47.739624
2972.712646	43.754589
2972.083984	59.656166
2971.455322	59.646988
2970.826660	43.734394
2970.197754	35.777180
2969.568604	55.644825
2968.939697	39.740185
2968.310547	63.574509
2967.681152	15.891181
2967.051758	23.833103
2966.422363	55.602013
2965.792725	51.622490
2965.163086	71.466293
2964.533203	27.788168
2963.903564	43.660397
2963.273438	35.716644
2962.643311	51.582764
2962.013184	59.509407
2961.383057	43.633511
2960.752686	23.796431
2960.122314	47.585533
2959.491699	47.578205
2958.861084	55.499355
2958.230225	35.672661
2957.599609	71.334328
2956.968506	43.586487
2956.337646	63.388760
2955.706299	59.417805
2955.075195	75.250954
2954.443848	55.439529
2953.812500	51.471630
2953.180908	75.216171
2952.549316	71.246445
2951.917725	59.362888
2951.285889	87.052155
2950.653809	75.169815
2950.021973	75.158226
2949.389893	75.146645
2948.757568	83.044014
2948.125244	90.938950
2947.492920	83.018410
2946.860352	102.768852
2946.227783	82.992813
2945.595215	86.931442
2944.962402	94.819679
2944.329590	98.755272
2943.696533	71.092827
2943.063477	98.724808
2942.430420	98.709587
2941.797119	138.172104
2941.163574	114.467796
2940.530273	153.915710
2939.896729	134.162231
2939.262939	149.922882
2938.629150	177.512863
2937.995361	138.044266
2937.361328	193.232147
2936.727295	193.202332
2936.093262	189.230225
2935.458984	157.667511
2934.824707	208.877228
2934.190186	236.428284
2933.555664	220.632339
2932.921143	220.598282
2932.286377	224.502884
2931.651367	181.149796
2931.016602	177.184402
2930.381592	188.967514
2929.746338	255.854004
2929.111084	251.878891
2928.475830	247.905014
2927.840332	243.932343
2927.204834	267.497375
2926.569336	243.857010
2925.933594	271.347321
2925.297607	302.761139
2924.661865	255.538101
2924.025879	322.321350
2923.389648	318.341431
2922.753418	235.772034
2922.117188	282.882751
2921.480713	286.767365
2920.844238	263.156769
2920.207764	282.751648
2919.571045	321.972961
2918.934082	306.219635
2918.297363	290.471161
2917.660156	266.878204
2917.023193	286.457336
2916.385986	321.724243
2915.748779	235.371597
2915.111328	313.780304
2914.473877	274.515320
2913.836182	294.078094
2913.198486	301.873505
2912.560791	293.987183
2911.922852	297.860931
2911.284912	333.082428
2910.646729	368.293030
2910.008545	336.896851
2909.370361	344.678345
2908.731934	356.373627
2908.093506	375.896454
2907.455078	313.198608
2906.816406	313.150146
2906.177490	352.239441
2905.538574	367.837616
2904.899658	336.480225
2904.260498	355.987946
2903.621338	434.159882
2902.982178	387.163757
2902.342773	422.295135
2901.703369	445.687012
2901.063721	433.891235
2900.424072	480.723999
2899.784424	445.480133
2899.144531	464.946747
2898.504639	492.220367
2897.864502	492.144196
2897.224365	531.121033
2896.583984	503.705933
2895.943848	484.107513
2895.303223	538.681396
2894.662842	534.695129
2894.021973	534.612305
2893.381348	507.217834
2892.740479	511.040344
2892.099609	585.070129
2891.458496	526.481567
2890.817383	541.997070
2890.176025	573.102356
2889.534668	600.299927
2888.893311	502.770782
2888.251709	522.177124
2887.610107	564.954895
2886.968262	596.032471
2886.326416	603.730164
2885.684570	595.847778
2885.042480	619.118408
2884.400391	677.420837
2883.758057	653.960144
2883.115723	743.375244
2882.473389	817.196899
2881.830811	914.340515
2881.188232	1023.124634
2880.545410	1100.758179
2879.902588	1147.255493
2879.259766	1322.055664
2878.616699	1387.943237
2877.973633	1220.578735
2877.330322	1146.544312
2876.687012	1018.128967
2876.043457	955.804932
2875.399902	858.537109
2874.756348	765.183655
2874.112549	772.832153
2873.468750	648.457092
2872.824707	632.827026
2872.180664	648.255920
2871.536621	539.482666
2870.892334	543.279541
2870.248047	570.355042
2869.603760	488.799896
2868.958984	581.814331
2868.314453	550.698792
2867.669678	542.858276
2867.024902	562.158813
2866.379883	480.668121
2865.734863	554.232849
2865.089844	565.772278
2864.444580	554.060852
2863.799316	507.487457
2863.153809	522.902100
2862.508301	580.912170
2861.862549	588.566284
2861.216797	572.988708
2860.571045	607.738281
2859.925049	510.885345
2859.279053	588.200867
2858.632813	619.062683
2857.986572	665.389038
2857.340332	684.625427
2856.693848	707.723145
2856.047363	668.945862
2855.400635	730.700195
2854.753906	773.107666
2854.107178	722.743347
2853.460205	722.631104
2852.813232	765.019958
2852.166016	784.216797
2851.518799	849.758118
2850.871338	841.902222
2850.223877	946.027527
2849.576416	884.108765
2848.928711	910.992310
2848.281006	953.305664
2847.633301	1038.054199
2846.985352	1061.042847
2846.337158	1111.028564
2845.688965	1056.855957
2845.040771	1122.252808
2844.392578	1164.493774
2843.743896	1056.363159
2843.095459	1102.455933
2842.446777	1179.367310
2841.798096	1036.602905
2841.149170	1028.735840
2840.500244	997.757141
2839.851074	905.160095
2839.202148	774.080383
2838.552734	750.856750
2837.903320	754.589905
2837.253906	619.745300
2836.604492	623.497681
2835.954834	546.437622
2835.304932	530.962463
2834.655029	477.022461
2834.005127	419.252899
2833.354980	403.804657
2832.704834	357.599884
2832.054688	365.233368
2831.404297	319.048981
2830.753906	269.035583
2830.103271	272.836487
2829.452637	249.741013
2828.801758	261.226868
2828.150879	222.776474
2827.500000	199.699539
2826.848877	218.867355
2826.197754	153.567215
2825.546387	145.866150
2824.895020	172.709335
2824.243408	165.007660
2823.591797	130.450867
2822.940186	145.775330
2822.288330	126.574646
2821.636475	134.224930
2820.984619	126.535233
2820.332520	122.681725
2819.680176	107.329788
2819.028076	99.647850
2818.375488	107.296356
2817.723145	130.268143
2817.070557	95.770477
2816.417725	122.567108
2815.764893	88.081390
2815.112061	95.725723
2814.458984	99.539238
2813.805908	84.212387
2813.152832	80.372025
2812.499512	95.666069
2811.845947	80.346977
2811.192383	99.461708
2810.538818	80.321938
2809.885010	84.133675
2809.231201	87.944221
2808.577393	84.107445
2807.923340	87.916809
2807.269287	49.684361
2806.614990	76.425560
2805.960693	103.158424
2805.306152	72.581642
2804.651611	57.292362
2803.997070	80.196800
2803.342285	61.092796
2802.687500	80.171791
2802.032471	80.159286
2801.377441	80.146782
2800.722412	61.054691
2800.067139	68.675812
2799.411621	64.850372
2798.756348	83.910919
2798.100586	87.711365
2797.445068	72.445915
2796.789307	64.809914
2796.133301	76.235062
2795.477539	60.978531
2794.821289	60.969017
2794.165283	64.769470
2793.509033	83.806236
2792.852539	68.558037
2792.196045	72.355522
2791.539551	98.997360
2790.882813	76.139931
2790.226074	98.966454
2789.569092	79.921967
2788.912109	79.909485
2788.255127	57.069294
2787.597900	60.864410
2786.940430	68.461769
2786.283203	87.465263
2785.625488	83.649361
2784.968018	64.628052
2784.310303	79.822182
2783.652588	68.408325
2782.994629	91.196854
2782.336426	98.781158
2781.678467	94.967049
2781.020264	72.163681
2780.361816	64.557419
2779.703369	72.141136
2779.044922	53.148319
2778.386230	41.752869
2777.727539	37.951221
2777.068604	68.301521
2776.409668	91.054466
2775.750732	72.073517
2775.091553	64.476753
2774.432373	102.388252
2773.772949	49.290340
2773.113525	94.774300
2772.453857	75.807587
2771.794189	79.585526
2771.134521	75.783890
2770.474609	56.829029
2769.814697	68.184174
2769.154541	60.598675
2768.494385	37.868248
2767.833984	68.152191
2767.173584	75.712814
2766.513184	64.345825
2765.852539	56.766846
2765.191895	60.541832
2764.531006	68.098907
2763.870117	79.436295
2763.209229	68.077599
2762.548096	68.066948
2761.886719	68.056305
2761.225586	75.606285
2760.563965	52.916115
2759.902588	79.361755
2759.240967	68.013718
2758.579102	49.113327
2757.917236	71.769783
2757.255371	60.428253
2756.593262	41.537922
2755.931152	67.960503
2755.269043	52.849895
2754.606689	90.585640
2753.944092	67.928589
2753.281494	60.371517
2752.618896	86.770470
2751.956055	90.528923
2751.293213	52.800266
2750.630371	79.187996
2749.967285	75.405327
2749.303955	94.241898
2748.640625	124.379822
2747.977295	90.443886
2747.313721	52.750668
2746.650146	79.113609
2745.986572	105.468285
2745.322754	30.129076
2744.658691	109.200790
2743.994873	75.299088
2743.330566	82.816017
2742.666504	71.511719
2742.002197	67.737328
2741.337646	75.251900
2740.673096	90.288132
2740.008545	90.273979
2739.343750	56.412392
2738.678955	63.924023
2738.013916	78.952591
2737.348877	105.253616
2736.683594	78.927841
2736.018311	112.736382
2735.353027	101.446831
2734.687500	108.944328
2734.021973	101.415024
2733.356201	101.399117
2732.690430	116.402954
2732.024658	90.104279
2731.358643	101.351418
2730.692383	161.386200
2730.026367	112.577362
2729.359863	135.071640
2728.693604	131.299057
2728.027100	112.524391
2727.360352	142.508530
2726.693604	157.484711
2726.026855	138.714767
2725.359863	142.441467
2724.692871	138.671234
2724.025635	168.627747
2723.358398	149.867798
2722.691162	168.574814
2722.023682	172.293884
2721.355957	157.287109
2720.688477	187.217163
2720.020508	198.419037
2719.352783	168.442551
2718.684814	168.416107
2718.016602	183.357635
2717.348389	172.104630
2716.680176	130.928619
2716.011719	172.050583
2715.343262	160.804642
2714.674561	216.865219
2714.005859	164.492599
2713.337158	164.466766
2712.668213	164.440933
2711.999023	160.678391
2711.329834	164.389267
2710.660645	141.950256
2709.991455	153.132782
2709.321777	168.046158
2708.652344	145.617126
2707.982666	141.861053
2707.312988	138.106171
2706.643066	141.816483
2705.972900	175.377029
2705.302979	130.579391
2704.632813	123.098358
2703.962402	130.538345
2703.291992	104.414261
2702.621582	119.311821
2701.950928	130.476791
2701.280273	130.456284
2700.609375	126.709030
2699.938477	137.867554
2699.267334	115.492493
2698.596191	100.574417
2697.925049	134.078140
2697.253662	137.780853
2696.582031	96.803757
2695.910645	111.679077
2695.239014	74.441002
2694.567139	100.479546
2693.895264	107.905502
2693.223145	119.049408
2692.551270	126.470100
2691.878906	78.101593
2691.206543	70.652229
2690.534180	100.384735
2689.861816	89.216835
2689.189209	89.202797
2688.516357	122.634544
2687.843506	70.596657
2687.170654	63.155487
2686.497559	92.861099
2685.824463	107.701920
2685.151123	115.111511
2684.477783	66.828423
2683.804199	77.954216
2683.130615	111.345634
2682.457031	92.773415
2681.783203	85.338104
2681.109375	89.034431
2680.435303	96.438782
2679.761230	81.589195
2679.086914	85.284363
2678.412598	107.515518
2677.738281	92.671196
2677.063721	92.656593
2676.389160	111.170403
2675.714355	92.627403
2675.039551	96.317329
2674.364502	92.598221
2673.689453	103.693672
2673.014404	70.352470
2672.339111	96.256638
2671.663574	55.523922
2670.988037	74.020233
2670.312500	74.008568
2669.636719	81.396591
2668.960938	70.285973
2668.285156	96.165649
2667.609131	70.263817
2666.932861	51.765179
2666.256592	92.423248
2665.580322	73.926941
2664.903809	85.002579
2664.227295	107.160263
2663.550781	92.364967
2662.874023	99.738434
2662.197021	77.562103
2661.520020	96.014130
2660.843018	99.691254
2660.165771	81.217094
2659.488525	88.586494
2658.811035	84.881996
2658.133545	81.178665
2657.455811	84.855217
2656.778076	59.020405
2656.100342	106.957603
2655.422363	99.565506
2654.744385	88.488708
2654.066162	99.534088
2653.387939	117.947708
2652.709473	84.761536
2652.031006	92.117561
2651.352539	88.418900
2650.673828	77.354324
2649.994873	69.976196
2649.316162	117.836044
2648.636963	92.044876
2647.958008	95.711555
2647.278809	55.209488
2646.599365	69.920975
2645.919922	106.704636
2645.240479	99.330009
2644.560791	84.601089
2643.880859	88.265457
2643.201172	84.574371
2642.520996	88.237579
2641.841064	95.575607
2641.160889	95.560509
2640.480469	95.545410
2639.800049	69.810616
2639.119629	69.799591
2638.438965	69.788559
2637.758301	84.467537
2637.077393	106.485718
2636.396484	77.098167
2635.715332	77.085976
2635.034180	88.084335
2634.353027	84.400818
2633.671631	113.739639
2632.989990	91.711021
2632.308350	84.360802
2631.626709	84.347466
2630.944824	106.334335
2630.262939	87.986916
2629.581055	58.648670
2628.898926	62.304359
2628.216553	76.952034
2627.534180	98.922684
2626.851807	80.590919
2626.169189	98.891396
2625.486572	102.537827
2624.803711	95.198631
2624.120850	87.861763
2623.437988	95.168518
2622.754883	95.153458
2622.071533	91.479240
2621.388184	73.171814
2620.704834	84.134270
2620.021240	91.435822
2619.337646	51.195957
2618.653809	84.094337
2617.969971	62.146847
2617.286133	98.688194
2616.602051	102.327110
2615.917725	98.656952
2615.233398	80.374420
2614.549072	65.750481
2613.864502	80.348976
2613.179932	69.381310
2612.495117	62.068188
2611.810303	65.708855
2611.125488	76.648186
2610.440430	83.934723
2609.755127	76.623917
2609.069824	94.852676
2608.384521	91.190056
2607.698975	91.175613
2607.013428	83.868279
2606.327637	83.854988
2605.641846	98.422874
2604.956055	98.407280
2604.270020	76.526871
2603.583740	102.019661
2602.897461	83.788582
2602.211182	87.417709
2601.524658	54.627411
2600.838135	91.031258
2600.151367	65.532120
2599.464600	69.161827
2598.777832	65.511345
2598.090820	94.612503
2597.403564	72.767311
2596.716309	87.306931
2596.029053	112.753578
2595.341553	87.279251
2594.654053	50.904823
2593.966309	72.709648
2593.278564	98.142456
2592.590820	76.320915
2591.902832	98.111336
2591.214600	87.196243
2590.526367	108.978012
2589.838135	116.224777
2589.149658	79.891861
2588.461182	58.093956
2587.772461	83.496811
2587.083740	83.483566
2586.394775	119.761765
2585.705811	97.971352
2585.016846	105.211792
2584.327637	116.077347
2583.638184	101.551559
2582.948975	87.030380
2582.259277	94.267952
2581.569824	83.377640
2580.879883	94.238029
2580.190186	83.351173
2579.500244	94.208107
2578.810059	101.438782
2578.119873	90.555962
2577.429688	57.946613
2576.739258	68.800674
2576.048584	94.133347
2575.358154	65.158890
2574.667236	57.909817
2573.976563	61.519409
2573.285645	47.036781
2572.594482	79.588066
2571.903320	97.660744
2571.212158	68.713310
2570.520752	90.397888
2569.829102	54.230118
2569.137451	79.524872
2568.445801	50.598694
2567.753906	68.658745
2567.062012	86.713058
2566.370117	68.636925
2565.677979	90.297394
2564.985596	72.226433
2564.293213	68.604210
2563.600830	90.254349
2562.908203	86.630402
2562.215332	97.443710
2561.522705	75.777504
2560.829590	86.589096
2560.136719	111.826462
2559.443604	68.527901
2558.750244	61.304691
2558.056885	82.928452
2557.363525	93.730293
2556.669922	64.879883
2555.976074	93.700485
2555.282227	90.082291
2554.588379	79.259804
2553.894287	68.440765
2553.200195	82.836166
2552.505859	43.211994
2551.811523	82.809814
2551.117188	53.997807
2550.422607	82.783463
2549.727783	53.980625
2549.032959	75.560844
2548.338135	68.353699
2547.643066	61.148838
2546.947998	57.542686
2546.252686	75.512756
2545.557373	61.119644
2544.861816	93.462227
2544.166260	82.664963
2543.470703	79.058243
2542.774902	71.859688
2542.078857	86.217896
2541.382813	93.387848
2540.686768	71.825371
2539.990479	46.679054
2539.294189	57.441994
2538.597656	68.201508
2537.901123	71.779625
2537.204346	39.472504
2536.507568	57.405407
2535.810791	60.983528
2535.113770	60.973816
2534.416504	71.722473
2533.719238	57.368835
2533.021973	64.529655
2532.324463	78.857010
2531.626953	89.595963
2530.929199	71.665352
2530.231445	53.740444
2529.533447	53.731880
2528.835449	68.049538
2528.137451	82.362625
2527.439209	75.188667
2526.740723	96.655731
2526.042236	78.743973
2525.343750	85.888817
2524.645020	53.671951
2523.946289	75.128754
2523.247314	89.424728
2522.548340	89.410469
2521.849121	75.092819
2521.149902	75.080841
2520.450684	67.919449
2519.751221	89.353447
2519.051514	75.044922
2518.351807	57.167961
2517.652100	92.883118
2516.952148	67.865295
2516.252197	85.710907
2515.552002	85.697235
2514.851807	89.253708
2514.151367	82.100304
2513.450928	46.397118
2512.750244	82.074104
2512.049561	85.628876
2511.348877	103.451714
2510.647949	82.034813
2509.946777	78.455559
2509.245605	60.615070
2508.544434	57.040371
2507.843018	78.417992
2507.141602	85.533241
2506.439941	89.082901
2505.738281	60.566700
2505.036377	96.178810
2504.334473	78.355400
2503.632568	60.537685
2502.930420	81.890846
2502.228027	85.437668
2501.525635	60.508682
2500.823242	88.969147
2500.120605	92.513130
2499.417969	64.037315
2498.715088	81.812393
2498.012207	60.460365
2497.309082	88.898094
2496.605957	92.439247
2495.902588	85.314896
2495.199219	95.963921
2494.495605	67.519379
2493.791992	95.933250
2493.088379	63.945278
2492.384521	74.590897
2491.680664	92.335876
2490.976563	102.973549
2490.272461	53.253666
2489.568115	99.390953
2488.863770	92.276840
2488.159180	70.970833
2487.454590	67.411514
2486.749756	53.211105
2486.044922	92.217827
2485.339844	67.379173
2484.634766	78.005516
2483.929688	67.357620
2483.224365	70.891418
2482.519043	92.144096
2481.813477	77.955612
2481.107666	109.828972
2480.402100	81.472969
2479.696045	88.543411
2478.990234	70.823395
2478.284180	77.893265
2477.577881	67.260689
2476.871582	67.249924
2476.165039	81.394775
2475.458496	60.151726
2474.751953	74.293182
2474.045166	81.355698
2473.338379	95.489220
2472.631348	84.865723
2471.924072	81.316628
2471.217041	77.768669
2470.509521	102.496826
2469.802246	77.743759
2469.094482	74.198074
2468.386963	52.990135
2467.679199	49.449539
2466.971191	109.477867
2466.263184	84.743484
2465.554932	91.790733
2464.846680	70.596947
2464.138428	88.232048
2463.429932	105.861488
2462.721436	84.675621
2462.012695	81.134468
2461.303955	81.121468
2460.594971	70.529106
2459.885986	66.991913
2459.176758	102.234421
2458.467529	137.465637
2457.758057	95.153267
2457.048584	66.948967
2456.338867	77.507431
2455.629150	66.927505
2454.919434	77.482582
2454.209473	66.906052
2453.499512	66.895325
2452.789307	80.965561
2452.078857	91.511612
2451.368408	66.863144
2450.657959	109.075005
2449.947266	84.431618
2449.236572	77.383240
2448.525879	66.820259
2447.814697	63.293247
2447.103760	94.924644
2446.392578	66.788109
2445.681152	73.806587
2444.969727	73.794746
2444.258301	80.809853
2443.546631	98.361420
2442.834717	59.709850
2442.122803	59.700268
2441.410889	84.269203
2440.698730	66.702415
2439.986572	91.262337
2439.274170	101.776268
2438.561768	105.268890
2437.849121	77.184792
2437.136475	119.266434
2436.423584	80.667282
2435.710693	77.147621
2434.997803	112.196701
2434.284424	84.134010
2433.571289	108.655647
2432.857910	122.656029
2432.144287	98.109062
2431.430908	119.113297
2430.717041	112.088631
2430.003174	91.057381
2429.289307	115.554260
2428.575195	80.524879
2427.861084	119.017654
2427.146729	115.498573
2426.432373	80.486069
2425.717773	87.470802
2425.003174	90.955017
2424.288330	104.931229
2423.573486	83.931488
2422.858643	90.911163
2422.143555	101.384621
2421.428223	111.854698
2420.712891	83.877541
2419.997559	104.830063
2419.281982	59.394154
2418.566162	80.343872
2417.850586	108.272156
2417.134521	80.318039
2416.418457	104.745811
2415.702393	90.765106
2414.986084	97.731316
2414.269775	76.776543
2413.553223	94.210594
2412.836670	90.706726
2412.120117	66.275017
2411.403076	83.702347
2410.686279	90.662949
2409.969238	104.594269
2409.251953	101.091522
2408.534668	111.531319
2407.817383	73.180649
2407.099854	83.621567
2406.382080	80.124435
2405.664307	90.560875
2404.946533	87.063751
2404.228516	87.049736
2403.510498	83.554291
2402.792236	83.540840
2402.073975	90.488007
2401.355469	107.872177
2400.636963	100.896431
2399.918213	86.965675
2399.199463	111.298141
2398.480469	55.640110
2397.761475	76.492828
2397.042480	55.622189
2396.323242	86.895668
2395.603760	79.931137
2394.884277	86.867676
2394.164795	83.379539
2393.445068	76.418930
2392.725098	93.771759
2392.005127	104.174049
2391.285156	79.853905
2390.564941	79.841034
2389.844727	72.886589
2389.124268	93.696228
2388.403809	72.863098
2387.683105	72.851357
2386.962402	72.839615
2386.241455	90.167839
2385.520508	69.348694
2384.799316	90.138771
2384.078125	69.326332
2383.356689	79.712433
2382.635254	90.095177
2381.913818	79.686729
2381.192139	90.066124
2380.470215	93.515121
2379.748291	103.888931
2379.026367	96.947365
2378.304199	62.313251
2377.581787	69.225777
2376.859375	62.293148
2376.136963	86.504303
2375.414307	103.788422
2374.691650	96.853561
2373.968750	100.296432
2373.245850	79.532608
2372.522705	89.891922
2371.799316	76.050117
2371.076172	89.862907
2370.352783	100.215530
2369.629150	93.289047
2368.905518	107.092361
2368.181641	100.167007
2367.457764	82.883446
2366.733643	89.775909
2366.009521	96.666138
2365.285400	100.102333
2364.561035	100.086166
2363.836426	124.224831
2363.111816	79.353050
2362.387207	86.239388
2361.662354	93.123489
2360.937256	93.108452
2360.212158	86.197601
2359.487061	103.420410
2358.761719	89.616547
2358.036377	82.709602
2357.310791	72.359207
2356.584961	75.792633
2355.859375	103.336891
2355.133301	92.988174
2354.407471	86.086250
2353.681152	89.515228
2352.955078	110.154785
2352.228516	79.160950
2351.502197	106.677948
2350.775635	82.576035
2350.048828	113.523689
2349.322021	120.384445
2348.594971	127.242981
2347.867920	99.714859
2347.140869	130.639725
2346.413330	79.058624
2345.686035	68.735512
2344.958496	82.469276
2344.230713	99.634254
2343.502930	85.877708
2342.775146	75.560158
2342.047119	113.321907
2341.319092	89.269485
2340.590820	96.120811
2339.862305	72.078949
2339.133789	96.089714
2338.405273	78.918060
2337.676514	68.613297
2336.947754	96.043068
2336.218750	89.168419
2335.489746	65.150993
2334.760498	85.711113
2334.031250	78.841461
2333.301758	85.683365
2332.572266	89.096275
2331.842529	113.065430
2331.112793	82.216087
2330.382813	89.053009
2329.652832	95.887711
2328.922607	133.536255
2328.192383	78.739395
2327.462158	130.070114
2326.731689	88.980927
2326.000977	102.653664
2325.270264	106.058273
2324.539307	78.675652
2323.808350	54.722023
2323.077393	123.104599
2322.346191	105.989563
2321.614746	105.972389
2320.883301	95.701492
2320.151855	92.268623
2319.420166	99.087280
2318.688232	102.487473
2317.956299	95.639465
2317.224365	88.793686
2316.492188	95.608467
2315.760010	88.764900
2315.027588	105.817917
2314.295166	112.626617
2313.562500	105.783607
2312.829590	92.119171
2312.096924	98.926773
2311.363770	98.910728
2310.630615	88.664200
2309.897461	102.288261
2309.164063	71.590172
2308.430664	102.255081
2307.697021	126.094147
2306.963379	78.370132
2306.229492	105.612175
2305.495605	115.813911
2304.761719	108.983643
2304.027344	91.940033
2303.293213	105.543648
2302.558838	122.546928
2301.824219	88.491753
2301.089600	81.671440
2300.354736	119.084846
2299.619873	91.850548
2298.885010	102.039597
2298.149658	81.618423
2297.414551	95.206039
2296.679199	88.391258
2295.943604	78.179573
2295.208008	88.362556
2294.472412	95.144226
2293.736572	95.128777
2293.000488	61.144279
2292.264404	122.268700
2291.528320	84.895027
2290.791992	91.671738
2290.055420	95.051552
2289.318848	115.400986
2288.582275	95.020668
2287.845459	88.219147
2287.108398	94.989799
2286.371582	111.934074
2285.634277	128.872833
2284.896973	111.897697
2284.159668	94.928070
2283.422119	118.640808
2282.684570	105.064781
2281.946777	115.213608
2281.208740	121.971054
2280.470703	125.338760
2279.732666	121.931396
2278.994385	98.206551
2278.256104	91.418816
2277.517578	104.945282
2276.779053	128.621689
2276.040283	91.374229
2275.301514	111.661453
2274.562500	104.877037
2273.823486	128.538040
2273.084229	101.460892
2272.344971	111.588829
2271.605469	94.666031
2270.865967	121.693665
2270.126221	94.635231
2269.386475	84.481995
2268.646484	91.225708
2267.906494	94.589043
2267.166260	111.461807
2266.426025	84.427017
2265.685547	104.672462
2264.945068	104.655434
2264.204346	131.641846
2263.463623	94.496719
2262.722656	121.475998
2261.981689	128.203796
2261.240723	111.316750
2260.499268	104.553253
2259.758057	101.164093
2259.016602	104.519211
2258.274902	117.986343
2257.533203	97.744194
2256.791260	117.947914
2256.049316	87.604179
2255.307129	80.852226
2254.564941	104.417114
2253.822754	131.342072
2253.080322	104.383102
2252.337646	127.932632
2251.594971	138.010086
2250.852051	111.063187
2250.109131	127.870110
2249.366211	134.578186
2248.623047	90.825470
2247.879639	90.810661
2247.136230	127.786774
2246.392578	104.230110
2245.648926	94.127983
2244.905273	131.085464
2244.161377	110.900383
2243.417236	114.242371
2242.673096	131.021362
2241.928955	120.923073
2241.184570	130.978638
2240.439941	134.315155
2239.695313	120.863922
2238.950439	120.844215
2238.205566	151.030624
2237.460693	134.227554
2236.715576	144.271088
2235.970215	117.410797
2235.224854	110.683548
2234.479492	137.493484
2233.733887	110.647430
2232.988037	110.629379
2232.242188	127.370621
2231.496338	103.890656
2230.750244	127.329048
2230.003906	130.658493
2229.257568	137.336502
2228.511230	117.219345
2227.764648	123.897362
2227.017822	137.269257
2226.270996	110.466980
2225.523926	123.836693
2224.776855	140.548431
2224.029785	107.067039
2223.282471	117.085449
2222.534912	147.169098
2221.787354	100.326180
2221.039795	93.622475
2220.291992	127.038322
2219.543945	116.989868
2218.795898	126.996826
2218.047852	130.317551
2217.299561	123.614403
2216.551025	136.955750
2215.802490	86.835793
2215.053955	86.821602
2214.305176	140.227371
2213.556152	103.484238
2212.807129	116.817947
2212.058105	136.821518
2211.308838	123.452896
2210.559326	116.760681
2209.809814	110.070648
2209.060303	130.062225
2208.310547	120.037811
2207.560547	113.350510
2206.810547	129.998444
2206.060303	116.646194
2205.310059	106.630508
2204.559814	103.281410
2203.809326	116.588974
2203.058594	136.553314
2202.307861	133.200958
2201.557129	133.179169
2200.806152	143.144196
2200.054932	133.135605
2199.303711	113.146751
2198.552246	119.782837
2197.800781	106.456215
2197.049316	116.417435
2196.297607	129.701050
2195.545654	116.379333
2194.793701	129.658600
2194.041504	136.285461
2193.289307	103.028236
2192.537109	119.626106
2191.784668	136.218536
2191.031982	129.552521
2190.279297	106.282104
2189.526367	119.547791
2188.773438	119.528214
2188.020508	142.746429
2187.267090	132.765640
2186.513916	119.469505
2185.760498	159.266586
2185.006836	149.287964
2184.253174	152.580490
2183.499268	145.922638
2182.745361	142.582855
2181.991211	139.244156
2181.237061	139.221344
2180.482666	139.198532
2179.728271	125.920898
2178.973877	155.718750
2178.218994	159.005859
2177.464355	149.043564
2176.709229	152.330673
2175.954346	142.372726
2175.198975	135.728485
2174.443848	145.635956
2173.688232	132.374619
2172.932861	135.661743
2172.177002	122.406380
2171.421387	119.078575
2170.665283	138.902222
2169.909424	142.186096
2169.153076	142.162781
2168.396729	132.222763
2167.640381	128.896042
2166.883789	138.788361
2166.127197	135.461655
2165.370361	142.046234
2164.613525	118.902916
2163.856445	115.581093
2163.099365	112.260353
2162.342041	122.145638
2161.584473	171.635971
2160.826904	122.105553
2160.069336	122.085518
2159.311523	128.663605
2158.553711	118.746918
2157.795654	85.747589
2157.037354	118.707939
2156.279053	138.469864
2155.520752	115.372604
2154.762207	135.128586
2154.003662	154.878067
2153.244873	135.084213
2152.485840	121.885246
2151.726807	115.277924
2150.967773	111.965874
2150.208252	131.702927
2149.448975	111.929100
2148.689453	141.534134
2147.929688	134.928986
2147.169922	108.583542
2146.410156	157.913742
2145.650146	138.151825
2144.889893	154.573074
2144.129639	118.376945
2143.369141	115.069786
2142.608643	154.496887
2141.847900	147.898239
2141.087158	131.443497
2140.326416	101.851967
2139.565186	118.260262
2138.804199	105.102951
2138.042725	121.505310
2137.281494	131.335495
2136.519775	131.313904
2135.758301	131.292313
2134.996338	134.552490
2134.234619	114.842995
2133.472412	124.666176
2132.710449	144.326569
2131.947998	121.345566
2131.185547	108.209320
2130.423096	144.255371
2129.660400	140.953644
2128.897705	108.155930
2128.134766	140.907272
2127.371826	153.989578
2126.608643	111.378387
2125.845215	134.287140
2125.081787	140.814545
2124.318359	140.791382
2123.554688	114.578773
2122.790771	144.018173
2122.026855	130.904068
2121.262939	170.147263
2120.498779	130.860962
2119.734375	137.381393
2118.969971	140.629227
2118.205322	117.716713
2117.440674	117.697327
2116.676025	130.753281
2115.911133	147.073212
2115.145996	140.513474
2114.380859	147.024765
2113.615479	137.200516
2112.850098	117.581070
2112.084473	111.030495
2111.318848	130.602600
2110.552979	127.316551
2109.787109	133.823547
2109.020996	127.274597
2108.254883	159.882767
2107.488525	107.658401
2106.722168	127.211693
2105.955566	146.758530
2105.188965	107.605186
2104.422119	133.669250
2103.655029	123.868156
2102.887939	159.698395
2102.120850	149.896225
2101.353516	153.129593
2100.585938	136.816650
2099.818359	136.794083
2099.050781	123.745667
2098.282959	143.260834
2097.514893	143.237198
2096.746826	136.703873
2095.978760	139.935638
2095.210449	159.435242
2094.441895	120.370018
2093.673340	136.613693
2092.904541	120.330307
2092.135742	149.575150
2091.366699	130.043900
2090.597656	146.275238
2089.828369	136.501022
2089.059082	136.478500
2088.289551	146.202835
2087.520020	136.433456
2086.750244	133.163055
2085.980469	146.130447
2085.210449	142.859512
2084.440186	133.097122
2083.670166	139.566620
2082.899658	155.769577
2082.129150	142.765198
2081.358643	133.009232
2080.587891	158.936005
2079.816895	126.479202
2079.045898	119.973267
2078.274902	142.647354
2077.503662	145.865234
2076.732178	136.118393
2075.960693	158.778564
2075.188965	149.032806
2074.417236	139.290253
2073.645264	136.028473
2072.873291	171.626602
2072.101074	194.262161
2071.328857	142.435379
2070.556396	145.648468
2069.783936	126.207809
2069.011230	135.893646
2068.238525	122.931061
2067.465576	139.083206
2066.692627	148.762085
2065.919434	161.671188
2065.145996	151.945801
2064.372559	168.082443
2063.599121	164.822830
2062.825439	138.945282
2062.051514	158.306824
2061.277588	142.129547
2060.503662	151.795090
2059.729248	154.999130
2058.955078	161.430725
2058.180664	138.807449
2057.406006	151.694672
2056.631348	132.307495
2055.856445	122.606178
2055.081543	148.393448
2054.306396	177.397583
2053.531250	164.468719
2052.755859	135.422409
2051.980225	161.190475
2051.204590	151.493958
2050.428955	167.582596
2049.653076	132.110565
2048.877197	135.310364
2048.101074	132.066818
2047.324707	164.251038
2046.548340	132.023087
2045.771851	157.757568
2044.995239	170.607483
2044.218506	141.612946
2043.441528	148.025375
2042.664551	151.218262
2041.887329	164.060730
2041.110107	147.951828
2040.332642	157.574753
2039.555176	154.333359
2038.777466	154.307800
2037.999634	144.639587
2037.221802	154.256668
2036.443726	144.591660
2035.665527	144.567688
2034.887207	131.695404
2034.108765	141.308228
2033.330200	173.394989
2032.551514	166.945282
2031.772705	154.077789
2030.993774	144.423981
2030.214600	157.235596
2029.435425	137.959381
2028.656128	176.430405
2027.876587	150.742798
2027.097046	160.338089
2026.317261	176.342651
2025.537476	173.107697
2024.757446	153.847992
2023.977295	163.436371
2023.197021	157.001053
2022.416626	182.603577
2021.636230	172.964172
2020.855591	179.340485
2020.074707	147.290955
2019.293823	166.475189
2018.512817	176.050308
2017.731689	137.616486
2016.950439	134.393799
2016.168945	172.763351
2015.387451	153.541931
2014.605713	172.705994
2013.823975	175.875061
2013.041992	150.268280
2012.260010	156.636658
2011.477783	166.199066
2010.695435	194.931915
2009.912964	166.143875
2009.130371	153.338104
2008.347656	143.730606
2007.564819	175.641556
2006.781860	185.191238
2005.998779	162.813522
2005.215576	181.937836
2004.432129	181.907608
2003.648682	181.877380
2002.864990	146.753845
2002.081299	178.627182
2001.297363	178.597488
2000.513428	146.680710
1999.729248	156.220871
1998.944946	175.320816
1998.160522	137.046219
1997.375977	156.142990
1996.591309	159.303101
1995.806519	140.163422
1995.021606	159.250137
1994.236572	162.408127
1993.451416	181.484787
1992.666016	175.087784
1991.880615	178.241547
1991.094971	162.300125
1990.309326	159.091309
1989.523438	155.883545
1988.737549	165.399933
1987.951416	165.372406
1987.165161	165.344910
1986.378784	162.138214
1985.592285	165.289886
1984.805664	187.509247
1984.018921	174.767670
1983.232056	177.915649
1982.444946	196.945267
1981.657837	200.088501
1980.870605	200.055191
1980.083130	168.272385
1979.295654	165.069962
1978.507935	196.781418
1977.720093	149.148178
1976.932129	203.061569
1976.144165	187.166214
1975.355957	209.337524
1974.567627	133.192596
1973.779053	149.024048
1972.990479	183.871384
1972.201782	145.804749
1971.412964	186.979279
1970.623901	174.273682
1969.834839	171.076569
1969.045532	180.550735
1968.256226	186.854721
1967.466675	148.825577
1966.677002	193.124405
1965.887207	170.934097
1965.097290	174.070541
1964.307251	196.192261
1963.517090	180.340240
1962.726807	161.330170
1961.936401	158.140472
1961.145874	170.763229
1960.355103	202.352325
1959.564331	183.351212
1958.773315	170.677841
1957.982178	192.770599
1957.191040	205.377045
1956.399658	180.069839
1955.608154	202.149963
1954.816528	173.693649
1954.024780	186.294846
1953.232910	205.205841
1952.440918	205.171616
1951.648682	170.421829
1950.856445	176.704269
1950.063965	182.984604
1949.271484	182.954071
1948.478760	145.077286
1947.685913	182.893021
1946.893066	163.945679
1946.099976	182.831970
1945.306763	192.256714
1944.513428	163.863602
1943.719971	182.740433
1942.926270	173.259415
1942.132568	185.829071
1941.338745	179.499817
1940.544678	192.064224
1939.750610	188.884079
1938.956299	195.147629
1938.161865	204.556091
1937.367310	195.082458
1936.572632	195.049866
1935.777832	242.198898
1934.982910	188.694885
1934.187866	216.962875
1933.392700	207.495041
1932.597290	204.317032
1931.801880	185.426010
1931.006226	194.821899
1930.210571	197.931107
1929.414673	188.474304
1928.618652	194.724243
1927.822510	160.149628
1927.026245	210.357468
1926.229858	204.044037
1925.433350	219.703003
1924.636719	194.561554
1923.839844	160.015808
1923.042969	203.907623
1922.245850	222.692627
1921.448730	213.247406
1920.651367	197.534424
1919.853882	184.961609
1919.056274	188.065094
1918.258545	209.970901
1917.460693	222.469254
1916.662720	200.502121
1915.864624	166.013046
1915.066284	197.303253
1914.267944	178.482590
1913.469360	181.583481
1912.670776	184.683319
1911.871948	209.690033
1911.072998	190.879883
1910.273926	212.748505
1909.474731	190.815994
1908.675415	168.890793
1907.875977	231.404205
1907.076294	209.479538
1906.276611	200.066360
1905.476807	212.534927
1904.676758	206.249359
1903.876587	187.468018
1903.076294	215.552124
1902.275879	221.762863
1901.475342	221.725723
1900.674683	212.321472
1899.873901	227.895157
1899.072998	215.371674
1898.271851	218.456406
1897.470703	209.058960
1896.669312	196.544891
1895.867920	171.558060
1895.066284	196.479034
1894.264526	205.800674
1893.462646	227.589874
1892.660645	196.380264
1891.858521	233.746857
1891.056152	211.894958
1890.253784	218.090591
1889.451172	239.859436
1888.648560	221.132019
1887.845703	202.410858
1887.042725	236.625336
1886.239624	205.455963
1885.436401	220.983749
1884.633057	214.722839
1883.829590	199.129807
1883.025879	208.429062
1882.222168	220.835541
1881.418213	217.688660
1880.614258	211.433502
1879.810059	205.180450
1879.005737	198.929474
1878.201294	205.111603
1877.396729	254.792877
1876.592041	208.149490
1875.787231	236.070251
1874.982178	177.022964
1874.177124	226.675583
1873.371826	220.428284
1872.566406	223.495392
1871.760986	223.457870
1870.955322	226.523422
1870.149536	223.382843
1869.343506	214.039291
1868.537476	226.409348
1867.731323	248.078156
1866.924927	210.831024
1866.118530	210.795624
1865.311890	232.456131
1864.505127	244.812653
1863.698242	238.574783
1862.891235	210.654037
1862.084106	207.521317
1861.276855	244.648193
1860.469482	226.029343
1859.661865	216.704041
1858.854126	238.334396
1858.046387	191.873367
1857.238403	250.631149
1856.430298	241.307953
1855.622070	222.708359
1854.813721	210.300323
1854.005249	216.449234
1853.196533	222.596069
1852.387817	241.105194
1851.578857	222.521225
1850.769775	256.474396
1849.960693	244.073135
1849.151367	222.408997
1848.341919	256.345032
1847.532227	240.862045
1846.722534	219.209351
1845.912720	243.867966
1845.102661	240.740524
1844.292603	237.614120
1843.482300	271.513306
1842.671875	256.043335
1841.861328	256.000244
1841.050659	215.867508
1840.239868	243.580902
1839.428833	228.125992
1838.617798	243.498917
1837.806519	274.275391
1836.995117	252.660645
1836.183716	246.456696
1835.372070	258.735962
1834.560303	246.373718
1833.748291	227.857315
1832.936279	246.290756
1832.124146	233.936829
1831.311768	246.207825
1830.499390	243.089279
1829.686768	239.971771
1828.874023	249.159485
1828.061157	252.193039
1827.248169	227.550507
1826.434937	230.586670
1825.621704	221.325897
1824.808228	267.390411
1823.994751	248.907745
1823.181030	261.155487
1822.367188	248.823868
1821.553223	276.424377
1820.739136	254.881729
1819.924927	260.979462
1819.110474	248.656158
1818.296021	267.030121
1817.481323	239.365952
1816.666626	217.847656
1815.851685	236.217484
1815.036621	230.043182
1814.221436	251.471466
1813.406006	282.091125
1812.590576	254.452347
1811.774902	220.692520
1810.959229	254.366531
1810.143311	251.259476
1809.327271	257.344330
1808.511108	254.237823
1807.694824	232.756805
1806.878418	248.027893
1806.061768	235.739822
1805.245117	226.516922
1804.428223	263.204987
1803.611206	269.280579
1802.794067	235.580734
1801.976807	250.835846
1801.159424	238.559677
1800.341919	278.272644
1799.524170	250.708847
1798.706421	293.463226
1797.888428	250.624191
1797.070313	268.917145
1796.252075	223.041321
1795.433716	271.881165
1794.615234	265.726593
1793.796509	268.735535
1792.977783	247.317062
1792.158813	274.750305
1791.339844	228.919922
1790.520630	247.191757
1789.701294	247.149994
1788.881714	262.361816
1788.062134	301.970154
1787.242432	262.273163
1786.422485	268.327209
1785.602417	240.843933
1784.782349	265.188354
1783.962036	256.000671
1783.141479	265.098724
1782.320923	240.681137
1781.500244	243.686539
1780.679321	231.463074
1779.858398	283.189819
1779.037231	222.251205
1778.215942	246.565796
1777.394531	258.698120
1776.572998	304.299255
1775.751221	276.865509
1774.929443	285.944580
1774.107422	258.523163
1773.285278	225.029144
1772.463013	234.112335
1771.640625	319.190094
1770.818115	240.111908
1769.995483	212.721390
1769.172607	243.069031
1768.349731	258.217133
1767.526611	264.248108
1766.703369	276.350677
1765.880005	294.521729
1765.056519	242.863403
1764.232910	270.139801
1763.409058	254.920242
1762.585083	276.116852
1761.761108	266.968872
1760.936890	263.890442
1760.112549	306.303711
1759.288086	260.768890
1758.463379	266.788086
1757.638672	275.836426
1756.813721	254.575104
1755.988647	309.074554
1755.163574	281.755524
1754.338257	269.591339
1753.512695	269.545654
1752.687134	254.359543
1751.861328	251.288864
1751.035522	251.246292
1750.209473	275.416107
1749.383301	275.369446
1748.557007	290.450409
1747.730591	260.151031
1746.903931	281.278442
1746.077271	275.182800
1745.250366	314.441284
1744.423340	256.951721
1743.596313	265.975494
1742.768921	296.149780
1741.941528	271.928162
1741.114014	311.153900
1740.286255	299.019531
1739.458374	274.809723
1738.630493	292.879364
1737.802368	286.791931
1736.973999	280.706604
1736.145630	289.712494
1735.317139	271.559387
1734.488403	259.446045
1733.659546	280.516144
1732.830566	256.342224
1732.001465	289.466766
1731.172241	262.284760
1730.342896	292.382782
1729.513306	286.305664
1728.683594	259.137970
1727.853882	265.119446
1727.023926	304.233154
1726.193726	262.017731
1725.363525	237.883743
1724.533203	289.024841
1723.702637	298.006226
1722.871948	279.897705
1722.041138	279.850189
1721.210205	309.888947
1720.379150	297.803833
1719.547974	261.661957
1718.716553	258.610413
1717.885010	276.605988
1717.053467	291.589355
1716.221558	285.528687
1715.389648	285.480164
1714.557617	333.504364
1713.725342	288.387177
1712.893066	294.345215
1712.060547	276.277130
1711.227905	282.235168
1710.395142	294.195160
1709.562256	294.145142
1708.729126	297.096100
1707.895874	273.041901
1707.062622	263.995636
1706.229126	275.948486
1705.395508	278.900513
1704.561646	287.848328
1703.727783	284.801453
1702.893677	284.753021
1702.059570	275.713928
1701.225220	341.587402
1700.390747	278.615997
1699.556030	281.563965
1698.721313	266.541779
1697.886353	314.405914
1697.051392	311.358582
1696.216187	311.305603
1695.380859	311.252594
1694.545410	296.238098
1693.709717	314.138458
1692.874023	332.032715
1692.038086	275.151428
1691.202026	260.153259
1690.365845	272.067993
1689.529541	304.903412
1688.692993	283.930298
1687.856445	334.681885
1687.019653	295.784515
1686.182739	292.746918
1685.345703	283.736938
1684.508545	280.702423
1683.671143	304.540100
1682.833740	256.725372
1681.996094	304.436340
1681.158325	295.432007
1680.320435	298.365326
1679.482422	295.331329
1678.644287	313.176819
1677.805908	298.212799
1676.967407	304.125214
1676.128784	289.167816
1675.290039	298.060364
1674.451172	295.029449
1673.612183	312.856689
1672.772949	324.719666
1671.933594	318.707153
1671.094116	300.784424
1670.254517	339.441376
1669.414795	312.590057
1668.574829	342.302155
1667.734863	282.723114
1666.894653	288.625946
1666.054321	285.601685
1665.213867	303.400024
1664.373169	282.530243
1663.532471	324.110992
1662.691528	309.190735
1661.850464	303.193024
1661.009277	294.225372
1660.167969	306.061035
1659.326538	303.037842
1658.484863	317.838379
1657.643066	294.024567
1656.801147	282.096619
1655.959106	285.017395
1655.116943	368.084625
1654.274658	273.048401
1653.432129	353.121887
1652.589478	305.591125
1651.746704	299.606140
1650.903809	320.316223
1650.060791	260.953827
1649.217529	358.750214
1648.374146	323.116486
1647.530640	284.531036
1646.687012	311.152679
1645.843262	317.025208
1644.999390	311.046356
1644.155273	328.764252
1643.311035	313.901398
1642.466675	310.886932
1641.622192	313.794128
1640.777588	337.419037
1639.932739	316.646179
1639.087769	331.386078
1638.242798	337.246033
1637.397461	295.779266
1636.552124	295.728699
1635.706665	304.548492
1634.860962	310.408966
1634.015137	336.957825
1633.169189	316.213348
1632.323120	342.752106
1631.476929	304.288177
1630.630493	316.051117
1629.783936	298.277618
1628.937256	315.943024
1628.090454	292.271088
1627.243530	321.738373
1626.396484	309.878448
1625.549194	345.234039
1624.701782	330.423889
1623.854248	353.964996
1623.006592	315.564789
1622.158691	336.151672
1621.310791	306.612183
1620.462646	312.455078
1619.614380	338.926239
1618.765991	344.761597
1617.917358	332.917847
1617.068726	374.100250
1616.219849	326.913513
1615.370850	320.968231
1614.521729	297.359985
1613.672363	303.196381
1612.822998	323.746490
1611.973389	320.748383
1611.123657	373.651978
1610.273804	344.171600
1609.423828	349.994904
1608.573608	314.647369
1607.723389	294.012573
1606.872925	302.781067
1606.022339	343.876831
1605.171509	355.572357
1604.320679	323.192200
1603.469604	337.824860
1602.618408	314.270111
1601.767090	323.026031
1600.915649	334.715057
1600.064087	319.979706
1599.212280	346.340637
1598.360352	337.477478
1597.508301	352.090027
1596.656128	340.295349
1595.803833	328.504669
1594.951294	304.987732
1594.098633	322.527832
1593.245850	351.788208
1592.392944	331.210388
1591.539795	322.361877
1590.686646	307.656281
1589.833252	322.251282
1588.979736	345.628418
1588.126099	322.140686
1587.272217	354.293945
1586.418335	307.392395
1585.564209	319.047791
1584.709961	333.625732
1583.855591	327.716400
1583.000977	345.213348
1582.146362	351.004150
1581.291504	359.717499
1580.436523	353.807678
1579.581421	339.129272
1578.726074	312.763794
1577.870605	353.625427
1577.015137	341.876587
1576.159424	350.582428
1575.303467	335.917114
1574.447510	347.541473
1573.591309	338.721741
1572.734985	353.261108
1571.878540	364.876434
1571.021973	344.384186
1570.165161	370.587067
1569.308350	364.688385
1568.451294	390.878754
1567.594116	361.646515
1566.736694	332.424316
1565.879272	364.437714
1565.021606	297.330048
1564.163818	410.944397
1563.305908	405.045746
1562.447876	364.187134
1561.589600	364.124512
1560.731201	332.024445
1559.872681	352.351318
1559.014038	328.998749
1558.155273	375.518066
1557.296265	387.095428
1556.437134	355.018921
1555.577881	381.143280
1554.718506	354.896790
1553.859009	392.646088
1552.999268	346.050690
1552.139404	415.770874
1551.279419	372.094513
1550.419312	363.311005
1549.558960	363.248474
1548.698608	377.713379
1547.838013	363.123413
1546.977173	386.296814
1546.116333	386.230286
1545.255249	380.356842
1544.394165	394.806274
1543.532837	365.713409
1542.671265	394.670319
1541.809692	368.488953
1540.947876	403.237335
1540.085938	411.869354
1539.223877	463.998199
1538.361694	423.325409
1537.499268	391.363617
1536.636841	399.991638
1535.774170	486.862457
1534.911377	475.188599
1534.048340	463.518738
1533.185303	582.195068
1532.322021	587.886719
1531.458618	637.008789
1530.594971	726.643860
1529.731323	740.991089
1528.867432	827.683289
1528.003418	850.688538
1527.139282	838.969910
1526.275024	743.372681
1525.410522	676.728455
1524.545898	636.130737
1523.681152	586.873962
1522.816284	517.400574
1521.951172	447.951141
1521.086060	459.431915
1520.220703	407.350464
1519.355225	424.611267
1518.489502	407.209930
1517.623779	372.489502
1516.757813	409.956421
1515.891724	386.793549
1515.025513	380.954742
1514.159058	380.889008
1513.292480	389.478333
1512.425781	363.450378
1511.558960	400.880005
1510.692017	369.091949
1509.824829	337.314880
1508.957520	380.494659
1508.090088	394.839142
1507.222534	403.415588
1506.354736	386.059662
1505.486938	368.709717
1504.618896	348.485718
1503.750610	371.461914
1502.882324	377.155853
1502.013794	397.240601
1501.145142	382.781677
1500.276367	428.756500
1499.407471	362.509979
1498.538330	422.855225
1497.669067	414.153931
1496.799683	439.962524
1495.930176	416.885864
1495.060547	388.068054
1494.190674	431.112183
1493.320679	428.164063
1492.450562	410.851532
1491.580200	410.780487
1490.709717	396.348999
1489.839233	370.436096
1488.968384	387.598633
1488.097534	416.237640
1487.226440	390.334686
1486.355347	430.441742
1485.483887	461.927551
1484.612427	436.030090
1483.740845	458.899628
1482.869019	447.349731
1481.997070	421.468170
1481.124878	424.261871
1480.252686	392.660950
1479.380249	490.024841
1478.507690	467.018860
1477.635010	449.750122
1476.762207	466.857208
1475.889160	458.185425
1475.015991	529.685181
1474.142700	523.868164
1473.269165	560.985718
1472.395630	583.781982
1471.521851	529.318481
1470.647949	586.440491
1469.773804	634.962158
1468.899658	694.905762
1468.025269	711.940613
1467.150757	734.686951
1466.276001	766.000000
1465.401245	828.737000
1464.526245	805.735657
1463.651123	865.587219
1462.775879	848.299866
1461.900391	916.690491
1461.024780	902.255432
1460.149048	833.585205
1459.273193	933.339478
1458.397217	921.762695
1457.520996	913.043152
1456.644653	904.326538
1455.768188	881.351624
1454.891479	926.827209
1454.014648	883.897278
1453.137695	943.610596
1452.260620	934.896057
1451.383423	880.587769
1450.505981	897.530823
1449.628418	903.072815
1448.750732	908.612793
1447.872803	845.803101
1446.994873	868.434998
1446.116699	965.076660
1445.238403	922.214111
1444.359863	1024.504517
1443.481201	973.110413
1442.602417	1100.960205
1441.723511	1186.100098
1440.844482	1291.117432
1439.965210	1285.206543
1439.085815	1461.242310
1438.206299	1514.994019
1437.326538	1418.106445
1436.446777	1361.032227
1435.566772	1244.318604
1434.686646	1224.219604
1433.806274	1045.091797
1432.925781	971.085144
1432.045166	916.976685
1431.164429	800.441223
1430.283569	811.653992
1429.402466	785.975830
1428.521240	765.980530
1427.639893	658.061523
1426.758301	660.783203
1425.876709	649.326416
1424.994873	615.193665
1424.112793	566.900208
1423.230713	569.635681
1422.348389	561.036133
1421.465942	609.100037
1420.583374	600.496521
1419.700562	577.735840
1418.817627	642.760986
1417.934570	696.439209
1417.051392	863.321289
1416.167969	894.301880
1415.284546	905.464661
1414.400757	888.332703
1413.516968	876.863831
1412.633057	704.197144
1411.748901	596.625488
1410.864624	548.460754
1409.980103	477.699677
1409.095459	505.877899
1408.210815	466.230896
1407.325806	485.925812
1406.440796	454.770020
1405.555542	389.735016
1404.670166	451.788055
1403.784668	429.123932
1402.899048	381.063477
1402.013184	400.752563
1401.127197	426.078156
1400.241089	378.043274
1399.354736	400.543274
1398.468262	397.653290
1397.581665	358.107605
1396.694946	394.695557
1395.807983	391.808044
1394.920898	408.649445
1394.033691	383.218231
1393.146362	391.603333
1392.258789	371.817505
1391.371094	405.548431
1390.483276	402.661957
1389.595337	433.560394
1388.707153	408.151306
1387.818848	424.966278
1386.930420	385.498230
1386.041748	405.124603
1385.152954	402.241089
1384.264038	390.921448
1383.375000	418.972229
1382.485718	390.785156
1381.596313	385.095184
1380.706787	415.942719
1379.817139	379.341034
1378.927246	384.893768
1378.037231	373.590820
1377.147095	407.227234
1376.256714	418.388092
1375.366333	415.507629
1374.475586	465.961060
1373.584839	435.008209
1372.693970	434.932312
1371.802856	454.495117
1370.911499	437.585571
1370.020142	490.795593
1369.128540	490.709930
1368.236816	538.284973
1367.344971	479.326355
1366.453003	470.834930
1365.560791	507.180023
1364.668457	437.051208
1363.775879	462.184998
1362.883301	473.306824
1361.990479	425.621765
1361.097534	386.352264
1360.204346	445.067261
1359.311035	397.412048
1358.417603	433.719055
1357.524048	428.047913
1356.630249	450.350830
1355.736450	380.354095
1354.842285	411.046204
1353.948120	438.931824
1353.053711	385.745270
1352.159180	399.651703
1351.264526	405.170441
1350.369751	399.512024
1349.474731	377.095795
1348.579590	432.886169
1347.684204	435.602814
1346.788818	524.865479
1345.893188	502.442902
1344.997314	552.590576
1344.101440	569.236206
1343.205322	571.926514
1342.309082	588.562866
1341.412720	560.570862
1340.516113	585.568604
1339.619385	613.345520
1338.722534	568.639099
1337.825439	593.622253
1336.928223	554.507813
1336.030884	526.550964
1335.133423	523.673340
1334.235718	481.806549
1333.337891	431.600861
1332.439941	414.821106
1331.541870	448.151062
1330.643555	461.987915
1329.745117	431.298767
1328.846436	428.441162
1327.947754	386.642181
1327.048828	397.698944
1326.149780	467.144928
1325.250488	428.141205
1324.351074	466.981323
1323.451538	416.874603
1322.551880	441.809692
1321.651978	450.066864
1320.751953	469.431946
1319.851807	483.235809
1318.951416	452.607117
1318.050903	413.660400
1317.150269	516.290955
1316.249512	485.672516
1315.348511	516.110046
1314.447388	471.630798
1313.546021	504.833893
1312.644653	482.558807
1311.743042	532.385315
1310.841309	454.666107
1309.939331	496.164398
1309.037231	521.019836
1308.135010	532.012085
1307.232666	531.918823
1306.330078	578.914246
1305.427368	578.812744
1304.524536	595.324951
1303.621460	650.589844
1302.718262	667.083618
1301.814941	647.594116
1300.911499	622.577454
1300.007813	666.732605
1299.104004	730.234558
1298.199951	818.604187
1297.295898	915.237976
1296.391602	1219.181641
1295.487061	1594.885132
1294.582520	1995.329102
1293.677734	2196.687256
1292.772827	2019.492554
1291.867676	1607.576294
1290.962402	1173.711304
1290.057007	822.834290
1289.151489	668.090393
1288.245728	610.008423
1287.339844	576.784485
1286.433838	485.627960
1285.527588	471.748840
1284.621216	455.116302
1283.714722	405.396027
1282.808105	424.625977
1281.901245	446.606018
1280.994263	421.720459
1280.087036	388.576050
1279.179810	405.040009
1278.272217	352.625916
1277.364624	435.196136
1276.456787	432.365723
1275.548828	396.495026
1274.640747	382.660553
1273.732544	412.870453
1272.824097	412.797882
1271.915405	415.476807
1271.006714	393.395599
1270.097778	371.322144
1269.188721	409.757568
1268.279541	398.687225
1267.370117	373.875366
1266.460571	362.815186
1265.550781	373.743835
1264.640991	395.659149
1263.730957	354.382324
1262.820679	395.519958
1261.910400	348.765259
1260.999878	362.432373
1260.089233	378.839905
1259.178345	340.346954
1258.267334	332.054291
1257.356201	406.077576
1256.444824	326.450836
1255.533447	383.992218
1254.621704	345.532166
1253.709961	356.438660
1252.797974	323.479675
1251.885864	353.572266
1250.973633	298.702271
1250.061157	342.488129
1249.148560	323.251862
1248.235840	306.761292
1247.322876	325.876434
1246.409790	323.081055
1245.496582	342.186584
1244.583130	317.493225
1243.669556	314.700745
1242.755859	325.589478
1241.841919	347.416626
1240.927856	317.269501
1240.013672	336.355774
1239.099365	319.891785
1238.184814	330.769928
1237.270142	289.714325
1236.355225	319.722626
1235.440186	327.862823
1234.525024	333.268433
1233.609741	341.403351
1232.694214	333.150909
1231.778564	330.361908
1230.862671	338.492981
1229.946777	327.516083
1229.030640	357.475311
1228.114258	321.943848
1227.197876	335.526337
1226.281128	340.921906
1225.364380	319.046600
1224.447388	280.820526
1223.530273	406.163818
1222.613037	288.897766
1221.695557	340.621216
1220.777954	321.489655
1219.860229	329.604919
1218.942261	337.717316
1218.024170	307.704193
1217.105957	351.210907
1216.187500	340.260559
1215.268921	334.757294
1214.350220	348.303772
1213.431274	312.873901
1212.512207	340.020294
1211.593018	337.240540
1210.673706	326.304169
1209.754150	345.277557
1208.834351	299.006470
1207.914551	339.720062
1206.994507	345.094604
1206.074219	336.883209
1205.153931	325.958405
1204.233398	317.753296
1203.312744	309.551056
1202.391846	342.074890
1201.470825	293.155212
1200.549683	295.817322
1199.628296	322.899414
1198.706787	320.129364
1197.785156	306.510376
1196.863281	322.728180
1195.941284	341.651764
1195.019165	338.880310
1194.096802	300.872498
1193.174438	322.499939
1192.251709	292.637238
1191.328979	330.513214
1190.406006	316.911530
1189.482788	349.353455
1188.559570	311.384033
1187.636108	351.937042
1186.712402	354.581482
1185.788696	365.343750
1184.864746	354.455994
1183.940552	386.856750
1183.016357	365.149780
1182.091919	365.085144
1181.167236	335.278107
1180.242554	340.625488
1179.317505	364.891266
1178.392456	337.802460
1177.467163	332.338745
1176.541748	367.398895
1175.616211	332.221039
1174.690430	359.167267
1173.764526	356.403625
1172.838501	364.439117
1171.912231	402.161560
1170.985840	429.076233
1170.059204	442.490784
1169.132446	455.900543
1168.205566	501.671448
1167.278564	490.795807
1166.351318	436.784790
1165.423828	390.880066
1164.496338	412.372742
1163.568604	371.878113
1162.640747	377.200745
1161.712646	371.746246
1160.784424	360.906982
1159.856079	371.614441
1158.927490	366.163757
1157.998779	368.790741
1157.069946	384.873871
1156.140869	349.823303
1155.211670	344.380310
1154.282349	352.389191
1153.352783	376.532318
1152.423096	328.062805
1151.493164	373.710144
1150.563232	360.203400
1149.632935	333.263397
1148.702637	338.578522
1147.772095	314.338562
1146.841431	392.181885
1145.910522	413.597900
1144.979492	421.580139
1144.048340	416.135803
1143.116943	483.168671
1142.185425	507.237030
1141.253784	517.880249
1140.321899	499.008362
1139.389893	458.684296
1138.457764	480.057922
1137.525391	471.928436
1136.592896	495.973022
1135.660278	487.843536
1134.727417	533.316589
1133.794434	616.286499
1132.861206	664.399536
1131.927856	808.923462
1130.994385	1009.635559
1130.060669	1239.729980
1129.126831	1501.868042
1128.192871	1568.517334
1127.258667	1504.010254
1126.324341	1386.012207
1125.389893	1153.021362
1124.455200	909.414246
1123.520386	772.864685
1122.585327	639.037415
1121.650146	601.497253
1120.714844	531.896301
1119.779297	574.559631
1118.843628	499.644379
1117.907837	435.441406
1116.971802	440.705841
1116.035645	416.593201
1115.099365	397.829132
1114.162842	379.071716
1113.226196	408.363739
1112.289307	418.965332
1111.352417	392.209839
1110.415161	381.469543
1109.477905	389.403076
1108.540405	362.667084
1107.602661	413.260223
1106.664917	370.535126
1105.726807	378.464874
1104.788696	391.721344
1103.850342	367.672913
1102.911865	362.279785
1101.973145	354.225220
1101.034302	370.139374
1100.095337	402.022247
1099.156128	335.402496
1098.216797	364.618713
1097.277344	372.536682
1096.337646	340.544281
1095.397827	385.704071
1094.457764	369.678009
1093.517700	393.543854
1092.577271	393.473724
1091.636841	385.429199
1090.696167	406.621765
1089.755249	411.863647
1088.814209	427.730469
1087.873047	395.779358
1086.931763	422.266449
1085.990234	430.157013
1085.048584	427.425476
1084.106689	422.040588
1083.164673	419.311432
1082.222412	398.009460
1081.280151	450.996948
1080.337524	440.306702
1079.394897	456.139984
1078.452026	445.452606
1077.509033	466.581360
1076.565796	447.944214
1075.622437	392.212494
1074.678955	418.638611
1073.735229	429.160461
1072.791382	399.948517
1071.847290	399.877136
1070.903076	418.339783
1069.958740	420.912354
1069.014160	460.538818
1068.069458	494.858521
1067.124512	531.811768
1066.179565	650.757874
1065.234253	756.437012
1064.288940	904.389038
1063.343384	1144.826050
1062.397583	1221.282104
1061.451660	1223.706909
1060.505615	1212.918213
1059.559448	1022.473816
1058.613037	903.420044
1057.666382	731.586670
1056.719727	578.299072
1055.772827	567.635071
1054.825684	504.181030
1053.878418	427.553558
1052.931030	393.173401
1051.983398	408.932770
1051.035645	377.205994
1050.087769	363.951904
1049.139648	350.702515
1048.191406	326.912292
1047.242920	329.489746
1046.294312	316.253601
1045.345581	368.896515
1044.396606	321.409485
1043.447510	323.986023
1042.498291	350.263672
1041.548828	337.035553
1040.599121	344.873108
1039.649414	297.432709
1038.699341	357.908081
1037.749268	334.163147
1036.798950	334.103363
1035.848511	326.152771
1034.897827	341.873138
1033.947021	326.036011
1032.996094	304.946808
1032.044922	289.121948
1031.093506	310.093445
1030.142090	320.547699
1029.190430	294.220581
1028.238525	302.047394
1027.286499	333.505646
1026.334351	294.062531
1025.381958	275.634247
1024.429443	317.578735
1023.476807	351.635773
1022.523926	291.228180
1021.570923	306.915253
1020.617737	298.992035
1019.664368	285.827118
1018.710815	291.019470
1017.757080	285.724670
1016.803223	277.810883
1015.849121	296.103790
1014.894897	288.190948
1013.940491	330.050476
1012.985962	340.467194
1012.031189	335.169128
1011.076294	295.838440
1010.121216	311.490814
1009.165955	334.988831
1008.210510	321.845612
1007.254944	285.161621
1006.299133	308.651703
1005.343201	313.826752
1004.387085	285.008179
1003.430786	313.714172
1002.474365	282.292084
1001.517700	274.401398
1000.560913	292.642273
999.603943	261.240845
998.646790	261.193970
997.689514	287.261780
996.731995	279.377228
995.774353	276.716522
994.816528	289.717163
993.858521	297.493927
992.900330	287.003998
991.942017	294.778442
990.983459	299.941895
990.024780	284.241669
989.065918	255.510834
988.106873	276.319214
987.147705	289.301147
986.188293	284.037476
985.228760	265.748810
984.269043	312.589478
983.309143	268.257751
982.349060	278.625427
981.388794	302.006927
980.428406	322.776978
979.467834	275.872650
978.507019	283.629364
977.546082	288.781677
976.585022	304.336761
975.623718	327.688354
974.662292	270.424286
973.700623	314.571686
972.738831	249.532639
971.776855	296.266724
970.814758	314.401978
969.852417	275.376984
968.889954	277.924866
967.927246	275.277924
966.964417	285.614349
966.001404	290.755035
965.038208	306.276062
964.074890	293.245483
963.111328	300.976593
962.147644	311.299042
961.183777	319.024109
960.219727	290.441193
959.255493	290.388916
958.291077	267.006012
957.326538	261.774292
956.361755	279.866669
955.396851	287.588928
954.431763	292.717987
953.466492	264.175720
952.501038	302.970520
951.535461	326.217194
950.569641	315.804169
949.603699	287.278259
948.637573	271.700745
947.671265	331.156494
946.704773	310.403259
945.738098	297.416199
944.771240	289.605316
943.804260	292.138397
942.837097	286.916077
941.869751	271.358185
940.902222	294.564362
939.934509	304.844971
938.966614	291.875183
937.998535	294.405060
937.030334	299.516052
936.061951	281.391052
935.093323	276.178070
934.124573	304.515289
933.155640	317.361237
932.186584	268.289551
931.217285	299.192047
930.247864	283.665405
929.278198	283.614227
928.308411	275.829529
927.338440	288.666656
926.368286	314.383698
925.397949	319.479858
924.427429	306.542267
923.456787	275.580688
922.485901	298.706451
921.514893	316.674652
920.543701	316.617493
919.572327	283.102722
918.600769	288.197998
917.629028	283.000488
916.657104	285.521667
915.685059	298.329102
914.712769	323.988586
913.740356	321.359192
912.767761	323.871552
911.794983	298.113586
910.822021	318.615570
909.848877	313.419983
908.875549	308.226227
907.902039	282.489655
906.928406	323.520569
905.954590	315.760620
904.980530	282.336517
904.006348	346.441254
903.031982	330.984039
902.057434	336.054810
901.082703	353.947906
900.107849	276.952637
899.132751	348.692108
898.157532	297.360046
897.182068	320.373138
896.206482	333.127808
895.230713	315.133148
894.254761	350.938446
893.278625	371.364014
892.302307	304.719482
891.325806	299.543915
890.349182	330.206604
889.372314	337.824707
888.395325	337.763550
887.418091	309.560547
886.440735	329.967621
885.463196	317.120789
884.485474	304.278564
883.507568	322.118958
882.529480	332.284790
881.551270	334.780182
880.572815	370.491119
879.594238	304.003174
878.615417	352.477661
877.636475	301.339355
876.657349	314.051056
875.677979	326.758148
874.698486	306.280273
873.718811	326.639771
872.739014	326.580597
871.758972	339.276154
870.778748	344.315643
869.798401	346.803284
868.817810	379.884705
867.837097	318.637482
866.856140	336.420166
865.875061	313.425598
864.893799	331.202789
863.912354	328.595490
862.930725	318.348724
861.948914	338.661621
860.966919	366.604736
859.984741	338.538818
859.002441	295.213379
858.019897	328.238098
857.037231	330.722565
856.054321	338.293243
855.071289	307.714691
854.088074	335.627869
853.104614	338.109131
852.121033	320.255798
851.137268	373.563934
850.153320	401.444824
849.169189	353.105713
848.184937	332.722687
847.200439	345.359314
846.215759	337.679779
845.230896	345.233917
844.245911	327.405060
843.260681	324.808044
842.275330	337.434570
841.289795	322.153442
840.304016	344.920563
839.318115	337.250763
838.332031	342.260010
837.345764	271.223450
836.359314	324.395294
835.372681	316.734711
834.385864	344.544739
833.398865	319.152557
832.411743	291.237122
831.424377	334.228790
830.436829	331.636475
829.449158	318.920593
828.461243	306.209351
827.473206	331.455627
826.484924	354.162994
825.496521	311.100922
824.507935	323.688416
823.519104	356.498169
822.530151	366.544922
821.541016	300.764923
820.551697	325.979980
819.562195	313.288086
818.572510	295.548706
817.582642	325.802094
816.592590	305.541718
815.602356	330.732910
814.611938	318.051636
813.621399	305.374939
812.630615	320.459167
811.639648	287.603912
810.648560	300.163452
809.657227	340.459595
808.665771	305.097107
807.674072	305.041565
806.682251	289.862732
805.690186	272.169342
804.697998	312.433838
803.705566	299.781097
802.713013	314.838745
801.720276	287.080627
800.727356	297.099518
799.734253	304.597382
798.740906	294.474396
797.747437	334.683411
796.753784	339.654327
795.759949	294.313446
794.765930	329.470398
793.771729	341.983246
792.777344	357.005676
791.782776	301.639923
790.788025	311.637787
789.793091	301.529968
788.798035	288.913513
787.802734	324.026520
786.807251	313.921936
785.811584	301.310089
784.815796	318.828339
783.819763	316.260193
782.823547	303.654785
781.827148	331.199341
780.830627	303.544006
779.833862	263.357910
778.836975	303.433258
777.839844	310.899658
776.842529	315.856506
775.845093	313.292542
774.847412	303.211823
773.849609	303.156464
772.851563	300.596161
771.853394	348.127014
770.854980	338.047241
769.856445	297.927979
768.857666	305.382996
767.858765	317.840637
766.859680	307.773682
765.860352	320.226318
764.860901	317.666504
763.861206	297.601654
762.861389	297.547302
761.861389	284.993225
760.861145	292.439606
759.860779	277.391998
758.860168	277.341339
757.859436	294.777435
756.858521	322.197784
755.857361	269.697693
754.856079	317.086548
753.854614	329.510010
752.852905	297.003967
751.851074	329.389557
750.848999	394.197205
749.846802	463.970093
748.844421	536.211426
747.841797	650.816711
746.839050	585.877197
745.836121	451.167572
744.832947	391.272675
743.829651	371.267273
742.826111	313.900116
741.822449	353.695740
740.818604	338.688873
739.814514	301.278320
738.810303	333.586029
737.805847	308.635040
736.801270	298.624420
735.796448	288.617432
734.791504	310.953217
733.786316	323.332153
732.781006	300.892517
731.775452	318.241241
730.769775	330.612000
729.763855	313.153992
728.757751	318.066437
727.751526	315.523743
726.745056	290.626129
725.738403	288.089355
724.731628	315.350372
723.724609	302.879517
722.717407	300.341858
721.710083	295.323395
720.702515	305.194305
719.694763	315.061584
718.686829	300.121765
717.678711	322.385773
716.670410	354.559357
715.661987	354.494354
714.653320	277.595032
713.644470	351.886292
712.635437	307.224670
711.626221	334.417114
710.616821	329.402374
709.607178	341.723236
708.597412	341.660553
707.587463	294.566315
706.577332	279.662903
705.567017	316.728180
704.556458	311.722107
703.545776	291.876678
702.534912	299.242340
701.523804	294.242188
700.512573	301.604675
699.501099	291.662476
698.489502	279.252625
697.477661	338.500763
696.465698	328.557220
695.453491	313.677490
694.441101	298.803192
693.428589	335.783264
692.415833	353.001373
691.402893	328.255676
690.389771	320.792480
689.376465	305.930481
688.362976	320.674652
687.349304	298.419281
686.335449	315.625183
685.321411	382.132172
684.307190	340.158386
683.292725	362.276031
682.278137	445.985809
681.263367	507.492767
680.248352	514.788818
679.233215	519.619507
678.217834	403.800629
677.202332	352.029724
676.186584	342.119812
675.170654	295.300934
674.154541	292.786255
673.138306	300.112213
672.121826	280.381165
671.105164	319.674072
670.088318	302.405243
669.071289	282.684601
668.054016	299.836304
667.036621	262.922821
666.019043	292.355682
665.001282	282.476624
663.983276	309.439148
662.965149	292.194305
661.946777	321.600098
660.928223	331.358948
659.909546	267.492401
658.890625	304.247284
657.871521	299.284943
656.852234	286.966339
655.832764	301.627014
654.813110	306.475067
653.793274	301.515930
652.773254	294.107697
651.752991	294.053528
650.732605	274.399414
649.711975	328.238831
648.691223	293.891052
647.670227	335.463806
646.649048	303.575531
645.627747	335.340210
644.606201	323.041962
643.584473	291.173553
642.562561	303.351807
641.540466	327.755249
640.518127	315.467407
639.495667	308.074158
638.473022	293.349854
637.450134	325.069489
636.427063	320.122192
635.403870	298.074097
634.380432	305.347443
633.356812	271.098541
632.333008	302.792938
631.309021	310.061371
630.284851	341.736877
629.260498	295.303833
628.235901	317.210022
627.211182	307.393005
626.186218	324.410522
625.161133	295.085907
624.135803	319.414215
623.110291	312.041779
622.084595	314.421570
621.058716	268.061920
620.032654	275.321869
619.006409	289.887207
617.979919	314.189453
616.953308	328.742188
615.926453	318.942780
614.899414	304.278503
613.872253	348.030304
612.844849	340.666046
611.817261	343.035980
610.789490	299.188873
609.761475	274.813782
608.733337	282.057617
607.705017	308.747375
606.676453	308.690338
605.647705	294.052185
604.618774	293.997833
603.589722	306.089935
602.560425	310.891022
601.530884	318.118713
600.501221	315.631958
599.471375	322.856049
598.441284	327.650452
597.411011	315.456909
596.380615	332.381561
595.349976	325.042999
594.319153	366.212036
593.288147	315.223572
592.256897	351.530487
591.225525	361.161041
590.193970	334.436249
589.162170	356.181396
588.130188	348.847839
587.098022	290.652740
586.065674	305.128876
585.033142	307.493622
584.000427	305.015930
582.967468	307.379791
581.934387	287.963959
580.901062	278.232971
579.867554	326.560852
578.833862	324.081848
577.799988	290.168793
576.765930	338.467590
575.731628	343.239227
574.697205	335.925476
573.662537	328.614410
572.627747	321.306030
571.592712	311.584930
570.557434	301.867462
569.522034	316.298462
568.486450	325.896027
567.450623	318.594849
566.414673	287.164825
565.378479	318.476746
564.342102	308.768677
563.305542	303.887817
562.268799	356.881439
561.231812	378.513489
560.194702	301.308350
559.157349	342.222809
558.119812	378.302948
557.082092	361.368896
556.044189	337.215088
555.006042	313.070221
553.967773	339.497772
552.929260	332.212769
551.890625	293.640869
550.851746	305.618591
549.812683	356.087860
548.773376	353.616241
547.733948	367.981232
546.694275	379.936218
545.654419	346.206726
544.614441	350.949982
543.574158	310.028381
542.533752	329.193817
541.493164	353.156952
540.452332	396.327057
539.411316	377.041168
538.370178	357.762421
537.328735	362.497253
536.287170	328.827148
535.245422	333.565582
534.203430	331.104309
533.161255	323.846191
532.118896	354.965424
531.076355	309.338043
530.033630	306.883026
528.990723	337.988007
527.947571	354.701630
526.904236	313.900513
525.860718	335.403839
524.817017	371.270935
523.773132	344.858521
522.729004	409.443359
521.684692	430.912872
520.640198	426.045715
519.595520	349.388214
518.550659	334.967499
517.505615	332.513000
516.460327	361.151978
515.414856	339.563171
514.369202	313.200714
513.323364	341.827240
512.277283	358.493317
511.231079	370.374146
510.184631	315.356689
509.138000	341.572845
508.091187	324.792023
507.044159	327.119293
505.996948	334.220276
504.949554	336.544891
503.901947	355.573395
502.854126	331.647644
501.806152	348.284454
500.757965	379.225464
499.709564	393.462555
