#Wave		#Intensity
3200.600830	50.518227
3200.007080	16.839409
3199.413086	25.255297
3198.819092	42.085800
3198.224854	8.415888
3197.630615	8.414616
3197.036377	21.033358
3196.442139	4.206036
3195.847656	12.616199
3195.252930	33.638115
3194.658447	8.408257
3194.063721	25.220957
3193.468750	25.217144
3192.873779	8.404444
3192.278809	-4.201586
3191.683838	25.205706
3191.088623	33.602524
3190.493164	50.396164
3189.897949	-8.398090
3189.302490	46.182510
3188.706787	20.988874
3188.111328	25.182840
3187.515381	37.768547
3186.919678	50.350441
3186.323730	29.366648
3185.727783	25.167604
3185.131592	4.193966
3184.535400	33.546650
3183.939209	4.192697
3183.342773	4.192062
3182.746338	8.382856
3182.149902	8.381587
3181.553223	37.711437
3180.956543	20.947626
3180.359619	25.133347
3179.762695	0.000000
3179.165771	4.187623
3178.568604	33.495914
3177.971436	0.000000
3177.374268	20.928608
3176.776855	16.740351
3176.179443	41.844543
3175.581787	29.286743
3174.984131	0.000000
3174.386475	50.190643
3173.788574	16.727680
3173.190674	25.087721
3172.592773	25.083921
3171.994629	29.260143
3171.396484	8.358774
3170.798340	41.787540
3170.199951	25.068727
3169.601563	54.307346
3169.002930	45.945408
3168.404297	12.528667
3167.805664	8.351180
3167.206787	41.749573
3166.607910	29.220272
3166.008789	20.868460
3165.409912	16.692238
3164.810547	33.379417
3164.211426	16.687180
3163.612061	29.198137
3163.012695	37.534775
3162.413086	41.698982
3161.813477	41.692661
3161.213623	16.674536
3160.614014	29.176016
3160.013916	25.004221
3159.414063	12.500216
3158.813965	54.159389
3158.213867	12.496426
3157.613525	54.142963
3157.013184	12.492636
3156.412598	0.000000
3155.812256	16.651796
3155.211426	45.785496
3154.610840	20.808432
3154.010010	16.644220
3153.409180	24.962543
3152.808105	20.798965
3152.207031	29.114134
3151.605957	16.634125
3151.004639	16.631599
3150.403320	8.314539
3149.801758	29.096470
3149.200195	29.092054
3148.598633	12.466131
3147.996826	29.083227
3147.395020	54.003510
3146.793213	4.153486
3146.191162	-8.305711
3145.589111	0.000000
3144.986816	24.909569
3144.384766	37.358681
3143.782227	24.902008
3143.179932	33.197636
3142.577393	45.639820
3141.974609	33.187557
3141.371826	45.625961
3140.769043	41.471851
3140.166260	8.293111
3139.563232	33.167404
3138.960205	24.871777
3138.356934	8.289333
3137.753662	24.864223
3137.150391	37.290668
3136.546875	28.999449
3135.943359	24.852896
3135.339600	8.283040
3134.735840	-8.281782
3134.132080	62.103928
3133.528076	28.977430
3132.924072	28.973028
3132.320068	0.000000
3131.715820	20.688732
3131.111572	28.959824
3130.507080	37.228401
3129.902588	33.086884
3129.298096	8.270464
3128.693604	20.673018
3128.088867	37.205776
3127.483887	4.133347
3126.878906	37.194466
3126.273926	45.452991
3125.668945	33.051697
3125.063721	37.177505
3124.458252	33.041649
3123.853027	28.907047
3123.247559	4.128950
3122.641846	41.283226
3122.036133	45.404640
3121.430420	28.889469
3120.824707	41.264393
3120.218750	24.754871
3119.612549	0.000000
3119.006592	28.871899
3118.400391	61.858944
3117.793945	45.356327
3117.187500	16.490700
3116.581055	32.976383
3115.974609	20.607105
3115.367920	24.724764
3114.760986	24.721003
3114.154297	24.717241
3113.547363	0.000000
3112.940186	24.709719
3112.333008	24.705959
3111.725830	20.585167
3111.118408	20.582033
3110.510986	28.810461
3109.903564	53.496998
3109.295898	16.458109
3108.688232	61.708515
3108.080566	45.246021
3107.472656	37.013840
3106.864746	49.344269
3106.256592	41.113964
3105.648438	32.886166
3105.040039	45.211590
3104.431885	12.328556
3103.823486	32.871143
3103.214844	20.541336
3102.606201	4.107642
3101.997559	24.642096
3101.388672	49.276688
3100.779785	32.846123
3100.170898	45.156536
3099.561768	20.522572
3098.952637	36.935001
3098.343262	32.826111
3097.733887	24.615833
3097.124512	24.612083
3096.514893	12.304167
3095.905273	41.007637
3095.295410	45.101528
3094.685791	12.298543
3094.075684	28.692226
3093.465820	20.491323
3092.855713	45.074043
3092.245361	57.358219
3091.635254	49.156693
3091.024658	57.340736
3090.414307	8.190285
3089.803711	45.039700
3089.193115	20.469469
3088.582275	8.186540
3087.971436	40.926456
3087.360596	53.196281
3086.749512	0.000000
3086.138428	24.544643
3085.527100	16.360600
3084.915771	8.179052
3084.304443	28.622318
3083.692871	20.441395
3083.081299	36.788898
3082.469482	20.435160
3081.857910	32.691269
3081.245850	0.000000
3080.634033	40.851620
3080.021973	24.507231
3079.409668	36.755238
3078.797607	4.083292
3078.185059	8.165339
3077.572754	4.082047
3076.960205	65.302773
3076.347656	16.323202
3075.734863	48.962132
3075.122070	32.636440
3074.509033	32.631458
3073.895996	12.234929
3073.282959	36.699184
3072.669922	0.000000
3072.056641	20.382212
3071.443115	4.075820
3070.829834	40.751980
3070.216064	36.671181
3069.602539	52.961395
3068.988770	32.586651
3068.375000	40.727093
3067.760986	-4.072087
3067.146973	20.357328
3066.532715	24.425062
3065.918701	40.702221
3065.304199	48.835205
3064.689941	36.620808
3064.075439	32.546856
3063.460693	32.541885
3062.846191	48.805370
3062.231445	24.398958
3061.616455	8.131743
3061.001465	36.587254
3060.386475	48.775551
3059.771240	44.704090
3059.156006	16.253548
3058.540771	56.878727
3057.925293	24.372871
3057.309814	24.369146
3056.694092	36.548134
3056.078369	28.421980
3055.462646	8.119325
3054.846680	16.236166
3054.230713	77.110001
3053.614502	77.098213
3052.998291	28.400263
3052.382080	32.452480
3051.765625	48.671276
3051.149170	4.055320
3050.532715	97.312790
3049.916016	16.216318
3049.299316	40.534595
3048.682373	8.105679
3048.065430	40.522198
3047.448486	12.154799
3046.831299	44.560780
3046.214111	32.402882
3045.596680	36.447666
3044.979248	52.638577
3044.361816	40.485016
3043.744141	24.287294
3043.126465	40.472630
3042.508545	8.093287
3041.890869	36.414219
3041.272705	8.090811
3040.654785	44.492649
3040.036621	36.397503
3039.418213	24.261290
3038.799805	16.171717
3038.181396	36.380795
3037.562988	28.291842
3036.944336	12.123219
3036.325439	44.444996
3035.706543	28.278851
3035.087646	0.000000
3034.468750	16.154396
3033.849609	24.227882
3033.230469	40.373619
3032.611084	48.440926
3031.991699	48.433506
3031.372070	16.142031
3030.752441	36.314007
3030.132813	40.342716
3029.513184	60.504803
3028.893066	32.264286
3028.273193	-4.032418
3027.653076	32.254402
3027.032959	44.343006
3026.412598	48.366779
3025.792480	56.419262
3025.171875	36.263969
3024.551270	36.258411
3023.930664	52.365234
3023.310059	40.274776
3022.689209	36.241745
3022.068115	40.262432
3021.447266	32.205009
3020.826172	64.400146
3020.204834	64.390274
3019.583496	48.285305
3018.962158	36.208427
3018.340576	52.293041
3017.718994	36.197323
3017.097412	32.170467
3016.475586	24.124151
3015.853760	48.240902
3015.231689	52.252964
3014.609619	60.282635
3013.987549	28.127583
3013.365234	36.158489
3012.742920	40.169937
3012.120361	40.163773
3011.497803	44.173374
3010.875244	48.181744
3010.252441	12.043589
3009.629639	40.139133
3009.006836	36.119678
3008.383789	72.228271
3007.760498	36.108597
3007.137451	48.137409
3006.514160	56.151691
3005.890625	76.194176
3005.267090	48.115250
3004.643555	44.098877
3004.019775	48.100483
3003.395996	48.093098
3002.772217	40.071430
3002.148193	40.065281
3001.524170	68.100517
3000.899902	32.042385
3000.275635	40.046829
2999.651367	68.069160
2999.026855	40.034534
2998.402344	36.025547
2997.777588	48.026688
2997.152832	52.020924
2996.528076	48.011940
2995.903076	28.002663
2995.278076	19.998829
2994.653076	55.988121
2994.027832	71.973671
2993.402344	35.981308
2992.777100	39.973091
2992.151367	31.973558
2991.525879	51.949051
2990.900146	59.932003
2990.274414	27.963970
2989.648438	39.942390
2989.022461	63.898006
2988.396240	79.860237
2987.770264	71.863167
2987.143799	63.868553
2986.517578	59.867565
2985.891113	27.933903
2985.264404	63.839108
2984.637695	55.850632
2984.010986	39.887177
2983.384033	39.881042
2982.757080	47.849895
2982.130127	55.816296
2981.502930	55.807713
2980.875732	27.899567
2980.248291	35.865353
2979.620850	31.875412
2978.993408	31.870510
2978.365723	51.781616
2977.738037	67.704002
2977.110107	75.657547
2976.482178	23.888182
2975.854248	59.711266
2975.226074	47.761665
2974.597900	55.713367
2973.969482	59.683712
2973.341309	71.609436
2972.712646	71.598419
2972.083984	43.747856
2971.455322	51.694057
2970.826660	91.444641
2970.197754	59.628632
2969.568604	51.670193
2968.939697	71.532333
2968.310547	39.734070
2967.681152	83.428703
2967.051758	39.721836
2966.422363	59.573586
2965.792725	91.332100
2965.163086	51.614544
2964.533203	87.334244
2963.903564	43.660397
2963.273438	47.622189
2962.643311	87.293907
2962.013184	71.411285
2961.383057	55.533558
2960.752686	67.423225
2960.122314	67.412834
2959.491699	87.226707
2958.861084	79.284790
2958.230225	75.308952
2957.599609	51.519238
2956.968506	51.511303
2956.337646	47.541569
2955.706299	79.223740
2955.075195	55.448074
2954.443848	43.559631
2953.812500	83.146477
2953.180908	114.803635
2952.549316	87.078995
2951.917725	98.938148
2951.285889	91.009071
2950.653809	79.126122
2950.021973	106.803802
2949.389893	75.146645
2948.757568	94.907448
2948.125244	63.261875
2947.492920	130.457504
2946.860352	122.532089
2946.227783	75.088737
2945.595215	134.348602
2944.962402	90.868858
2944.329590	98.755272
2943.696533	142.185654
2943.063477	102.673805
2942.430420	146.090179
2941.797119	106.589912
2941.163574	153.939453
2940.530273	142.076035
2939.896729	149.946014
2939.262939	134.141525
2938.629150	185.402328
2937.995361	228.759064
2937.361328	177.458099
2936.727295	161.659088
2936.093262	208.941696
2935.458984	197.084396
2934.824707	232.523697
2934.190186	228.547348
2933.555664	279.730286
2932.921143	232.416046
2932.286377	236.318817
2931.651367	216.592148
2931.016602	240.183304
2930.381592	275.577637
2929.746338	259.790222
2929.111084	303.041809
2928.475830	243.970001
2927.840332	283.276276
2927.204834	275.364960
2926.569336	291.055145
2925.933594	287.077606
2925.297607	330.284882
2924.661865	275.194885
2924.025879	330.182861
2923.389648	282.970154
2922.753418	294.715057
2922.117188	310.385223
2921.480713	326.050568
2920.844238	349.566467
2920.207764	333.804016
2919.571045	349.458435
2918.934082	310.145508
2918.297363	294.396454
2917.660156	290.426270
2917.023193	313.925842
2916.385986	286.413055
2915.748779	286.368774
2915.111328	302.013519
2914.473877	313.731781
2913.836182	313.683289
2913.198486	317.555237
2912.560791	305.746643
2911.922852	301.780151
2911.284912	344.838287
2910.646729	344.784973
2910.008545	297.722809
2909.370361	309.427155
2908.731934	395.535553
2908.093506	375.896454
2907.455078	403.243195
2906.816406	387.523315
2906.177490	399.204681
2905.538574	414.795624
2904.899658	383.430969
2904.260498	399.019470
2903.621338	395.046387
2902.982178	414.539001
2902.342773	375.373444
2901.703369	387.043976
2901.063721	453.435883
2900.424072	492.448975
2899.784424	484.557343
2899.144531	449.318298
2898.504639	488.313873
2897.864502	476.520569
2897.224365	445.204407
2896.583984	413.897888
2895.943848	413.833832
2895.303223	523.067444
2894.662842	550.306641
2894.021973	495.589539
2893.381348	546.234558
2892.740479	487.633942
2892.099609	499.259827
2891.458496	499.182495
2890.817383	522.500732
2890.176025	491.230591
2889.534668	541.829163
2888.893311	537.847839
2888.251709	491.002380
2887.610107	576.643616
2886.968262	599.928101
2886.326416	599.835144
2885.684570	576.375671
2885.042480	615.224609
2884.400391	642.381836
2883.758057	650.067566
2883.115723	696.671021
2882.473389	762.717102
2881.830811	805.397827
2881.188232	848.065247
2880.545410	968.511597
2879.902588	1057.808472
2879.259766	1053.756104
2878.616699	1034.153809
2877.973633	1053.429443
2877.330322	983.307495
2876.687012	870.461365
2876.043457	843.128723
2875.399902	738.108826
2874.756348	718.573486
2874.112549	695.160583
2873.468750	667.871948
2872.824707	605.650391
2872.180664	578.384033
2871.536621	613.224854
2870.892334	574.324097
2870.248047	488.875732
2869.603760	543.110962
2868.958984	570.178101
2868.314453	608.871216
2867.669678	527.348022
2867.024902	523.389221
2866.379883	546.566162
2865.734863	686.008484
2865.089844	558.021973
2864.444580	577.308167
2863.799316	627.579895
2863.153809	511.282043
2862.508301	565.421143
2861.862549	569.205566
2861.216797	553.630981
2860.571045	557.416016
2859.925049	607.643921
2859.279053	564.982422
2858.632813	615.193542
2857.986572	653.783447
2857.340332	657.549866
2856.693848	669.049744
2856.047363	715.346741
2855.400635	738.432495
2854.753906	711.259033
2854.107178	765.257690
2853.460205	722.631104
2852.813232	842.294739
2852.166016	838.300720
2851.518799	857.483215
2850.871338	830.316406
2850.223877	957.611511
2849.576416	942.019775
2848.928711	976.614685
2848.281006	972.603394
2847.633301	1022.618408
2846.985352	1049.467896
2846.337158	1080.166626
2845.688965	1114.713013
2845.040771	1099.113647
2844.392578	1114.366577
2843.743896	1029.375854
2843.095459	1060.053711
2842.446777	1052.180664
2841.798096	986.506836
2841.149170	920.853455
2840.500244	866.777466
2839.851074	828.125244
2839.202148	820.294128
2838.552734	754.707275
2837.903320	692.990723
2837.253906	615.895935
2836.604492	558.068909
2835.954834	538.741333
2835.304932	550.200195
2834.655029	446.246826
2834.005127	419.252899
2833.354980	407.650391
2832.704834	380.670868
2832.054688	372.922516
2831.404297	326.736908
2830.753906	322.842712
2830.103271	280.522034
2829.452637	257.425354
2828.801758	238.177429
2828.150879	192.048676
2827.500000	211.220673
2826.848877	207.348022
2826.197754	172.763123
2825.546387	184.251968
2824.895020	168.871353
2824.243408	184.194611
2823.591797	157.308395
2822.940186	161.120102
2822.288330	180.272980
2821.636475	184.079910
2820.984619	161.044846
2820.332520	134.183136
2819.680176	114.996201
2819.028076	145.639175
2818.375488	118.792397
2817.723145	137.930969
2817.070557	130.247849
2816.417725	130.227554
2815.764893	122.548019
2815.112061	103.383781
2814.458984	107.196106
2813.805908	111.007240
2813.152832	126.298897
2812.499512	160.719009
2811.845947	141.563721
2811.192383	126.239861
2810.538818	87.971642
2809.885010	126.200508
2809.231201	126.180840
2808.577393	122.338104
2807.923340	107.029152
2807.269287	99.368721
2806.614990	95.531952
2805.960693	110.799789
2805.306152	99.322250
2804.651611	114.584724
2803.997070	133.661331
2803.342285	99.275795
2802.687500	72.536385
2802.032471	87.793503
2801.377441	83.963295
2800.722412	114.477547
2800.067139	99.198402
2799.411621	76.294556
2798.756348	110.609848
2798.100586	148.727966
2797.445068	91.510628
2796.789307	102.933395
2796.133301	114.352592
2795.477539	99.090111
2794.821289	129.559158
2794.165283	114.299065
2793.509033	76.187485
2792.852539	114.263390
2792.196045	72.355522
2791.539551	91.382179
2790.882813	98.981903
2790.226074	95.160049
2789.569092	114.174232
2788.912109	110.351196
2788.255127	125.552444
2787.597900	102.708687
2786.940430	106.496086
2786.283203	98.873779
2785.625488	68.440384
2784.968018	95.041252
2784.310303	95.026405
2783.652588	117.814339
2782.994629	110.196198
2782.336426	110.178986
2781.678467	102.564407
2781.020264	110.144562
2780.361816	94.937378
2779.703369	94.922546
2779.044922	136.667099
2778.386230	91.097168
2777.727539	94.878052
2777.068604	79.685112
2776.409668	79.672661
2775.750732	94.833580
2775.091553	117.575256
2774.432373	117.556885
2773.772949	98.580681
2773.113525	90.983330
2772.453857	117.501762
2771.794189	49.267227
2771.134521	71.994690
2770.474609	87.137840
2769.814697	109.852272
2769.154541	90.898010
2768.494385	90.883797
2767.833984	68.152191
2767.173584	75.712814
2766.513184	87.056114
2765.852539	90.826958
2765.191895	102.164345
2764.531006	83.231995
2763.870117	98.349701
2763.209229	75.641777
2762.548096	102.100426
2761.886719	113.427170
2761.225586	132.310989
2760.563965	98.272789
2759.902588	117.153061
2759.240967	136.027435
2758.579102	90.670761
2757.917236	90.656570
2757.255371	86.865616
2756.593262	128.389938
2755.931152	101.940758
2755.269043	113.249779
2754.606689	94.360039
2753.944092	94.345268
2753.281494	71.691177
2752.618896	105.633614
2751.956055	56.580574
2751.293213	98.057640
2750.630371	94.271423
2749.967285	101.797195
2749.303955	101.781250
2748.640625	105.534393
2747.977295	113.054855
2747.313721	86.661812
2746.650146	109.252129
2745.986572	79.101219
2745.322754	120.516304
2744.658691	120.497421
2743.994873	128.008453
2743.330566	135.517120
2742.666504	146.787216
2742.002197	139.237839
2741.337646	105.352661
2740.673096	116.622169
2740.008545	139.172379
2739.343750	71.455696
2738.678955	120.327576
2738.013916	139.106949
2737.348877	135.326080
2736.683594	97.720184
2736.018311	93.946983
2735.353027	116.475990
2734.687500	97.674225
2734.021973	108.927246
2733.356201	123.932259
2732.690430	127.667755
2732.024658	135.156418
2731.358643	157.657761
2730.692383	142.620361
2730.026367	150.103149
2729.359863	180.095520
2728.693604	127.547653
2728.027100	157.534149
2727.360352	161.259659
2726.693604	127.487625
2726.026855	153.710953
2725.359863	127.447624
2724.692871	146.166977
2724.025635	146.144043
2723.358398	179.841370
2722.691162	161.082596
2722.023682	134.838684
2721.355957	202.226288
2720.688477	202.194534
2720.020508	183.444016
2719.352783	179.672058
2718.684814	157.188370
2718.016602	153.421692
2717.348389	213.260086
2716.680176	183.300064
2716.011719	198.232193
2715.343262	164.544281
2714.674561	209.387100
2714.005859	198.138809
2713.337158	216.797104
2712.668213	164.440933
2711.999023	179.361923
2711.329834	168.125397
2710.660645	171.834518
2709.991455	141.927948
2709.321777	179.249237
2708.652344	149.350891
2707.982666	201.592026
2707.312988	160.501770
2706.643066	167.940567
2705.972900	164.182755
2705.302979	152.964432
2704.632813	149.210129
2703.962402	171.564682
2703.291992	190.183121
2702.621582	134.225800
2701.950928	160.300064
2701.280273	126.728958
2700.609375	134.162506
2699.938477	149.046005
2699.267334	160.199265
2698.596191	163.899048
2697.925049	148.975708
2697.253662	126.609436
2696.582031	126.589523
2695.910645	122.846977
2695.239014	145.159958
2694.567139	133.972733
2693.895264	126.509895
2693.223145	163.692932
2692.551270	141.348938
2691.878906	119.011955
2691.206543	145.022995
2690.534180	96.666786
2689.861816	122.673149
2689.189209	133.804199
2688.516357	118.918343
2687.843506	118.899628
2687.170654	107.735832
2686.497559	126.291092
2685.824463	96.560341
2685.151123	111.398239
2684.477783	133.656845
2683.804199	141.060013
2683.130615	133.614761
2682.457031	100.195290
2681.783203	115.020927
2681.109375	115.002815
2680.435303	129.821442
2679.761230	107.549393
2679.086914	126.072533
2678.412598	103.808090
2677.738281	122.325974
2677.063721	163.075607
2676.389160	125.993118
2675.714355	118.563080
2675.039551	81.499275
2674.364502	133.341446
2673.689453	85.176941
2673.014404	122.191139
2672.339111	103.660995
2671.663574	125.854225
2670.988037	59.216187
2670.312500	118.413704
2669.636719	110.995354
2668.960938	66.586716
2668.285156	125.755081
2667.609131	125.735252
2666.932861	107.227867
2666.256592	125.695618
2665.580322	88.712326
2664.903809	99.785629
2664.227295	107.160263
2663.550781	118.227158
2662.874023	140.372620
2662.197021	125.576744
2661.520020	110.785530
2660.843018	110.768059
2660.165771	121.825645
2659.488525	110.733116
2658.811035	114.406174
2658.133545	81.178665
2657.455811	129.127502
2656.778076	125.418358
2656.100342	114.333992
2655.422363	118.003563
2654.744385	117.984940
2654.066162	121.652771
2653.387939	84.774910
2652.709473	151.096649
2652.031006	103.171669
2651.352539	128.944229
2650.673828	151.025116
2649.994873	121.537613
2649.316162	114.153671
2648.636963	121.499237
2647.958008	110.436417
2647.278809	117.780243
2646.599365	128.801804
2645.919922	158.217224
2645.240479	77.256676
2644.560791	136.097412
2643.880859	91.943184
2643.201172	117.668686
2642.520996	113.973534
2641.841064	102.927574
2641.160889	99.235916
2640.480469	132.293655
2639.800049	99.204559
2639.119629	117.557205
2638.438965	113.865547
2637.758301	121.192558
2637.077393	117.501488
2636.396484	117.482918
2635.715332	95.439781
2635.034180	110.105423
2634.353027	113.757622
2633.671631	121.077682
2632.989990	113.721664
2632.308350	99.032242
2631.626709	113.685707
2630.944824	121.001137
2630.262939	113.649765
2629.581055	109.966255
2628.898926	120.943756
2628.216553	91.609566
2627.534180	87.931274
2626.851807	131.876053
2626.169189	80.578178
2625.486572	124.510216
2624.803711	135.474976
2624.120850	98.844482
2623.437988	164.714737
2622.754883	106.132706
2622.071533	124.411766
2621.388184	131.709259
2620.704834	117.056374
2620.021240	131.667587
2619.337646	80.450790
2618.653809	106.031990
2617.969971	109.670906
2617.286133	116.963783
2616.602051	131.563431
2615.917725	113.272797
2615.233398	149.788696
2614.549072	120.542549
2613.864502	146.089050
2613.179932	127.807678
2612.495117	131.438507
2611.810303	113.165245
2611.125488	98.547668
2610.440430	91.233391
2609.755127	135.004044
2609.069824	149.575378
2608.384521	105.780464
2607.698975	145.880981
2607.013428	120.332741
2606.327637	142.188904
2605.641846	120.294624
2604.956055	116.630852
2604.270020	94.747551
2603.583740	105.663216
2602.897461	120.218407
2602.211182	116.556953
2601.524658	120.180305
2600.838135	156.573761
2600.151367	149.267609
2599.464600	101.922699
2598.777832	109.185577
2598.090820	116.446159
2597.403564	120.066063
2596.716309	101.858086
2596.029053	109.116364
2595.341553	120.008972
2594.654053	87.265411
2593.966309	123.606400
2593.278564	170.840576
2592.590820	123.567200
2591.902832	127.181358
2591.214600	72.663536
2590.526367	123.508415
2589.838135	127.120850
2589.149658	119.837791
2588.461182	130.711395
2587.772461	98.017998
2587.083740	127.040207
2586.394775	141.536636
2585.705811	123.371330
2585.016846	123.351753
2584.327637	134.214432
2583.638184	105.178398
2582.948975	141.424362
2582.259277	94.267952
2581.569824	141.379486
2580.879883	108.736183
2580.190186	130.462708
2579.500244	137.688782
2578.810059	134.044098
2578.119873	126.778343
2577.429688	123.136551
2576.739258	115.874825
2576.048584	112.235916
2575.358154	148.417480
2574.667236	104.961540
2573.976563	119.420029
2573.285645	130.255707
2572.594482	83.205704
2571.903320	112.129005
2571.212158	119.344177
2570.520752	155.484375
2569.829102	97.614212
2569.137451	119.287308
2568.445801	144.567703
2567.753906	126.476639
2567.062012	93.939148
2566.370117	140.886322
2565.677979	108.356873
2564.985596	126.396263
2564.293213	104.711685
2563.600830	119.135735
2562.908203	111.897598
2562.215332	79.398575
2561.522705	122.687386
2560.829590	93.804848
2560.136719	126.255684
2559.443604	140.662537
2558.750244	104.578590
2558.056885	108.167542
2557.363525	118.965378
2556.669922	100.924263
2555.976074	100.908218
2555.282227	90.082291
2554.588379	108.081558
2553.894287	126.075089
2553.200195	104.445602
2552.505859	86.423988
2551.811523	108.012794
2551.117188	111.595467
2550.422607	115.176994
2549.727783	82.770287
2549.032959	133.131012
2548.338135	122.317146
2547.643066	118.700684
2546.947998	133.067459
2546.252686	122.258751
2545.557373	125.834564
2544.861816	122.219833
2544.166260	129.388626
2543.470703	125.774475
2542.774902	107.789528
2542.078857	143.696487
2541.382813	75.428650
2540.686768	107.738052
2539.990479	125.674377
2539.294189	114.883987
2538.597656	104.097031
2537.901123	100.491470
2537.204346	111.240700
2536.507568	125.574326
2535.810791	125.554329
2535.113770	125.534325
2534.416504	111.169830
2533.719238	121.908775
2533.021973	121.889351
2532.324463	114.701111
2531.626953	125.434349
2530.929199	114.664558
2530.231445	82.402016
2529.533447	100.299507
2528.835449	143.262177
2528.137451	103.848526
2527.439209	150.377335
2526.740723	107.395264
2526.042236	128.853775
2525.343750	114.518425
2524.645020	114.500160
2523.946289	132.369705
2523.247314	103.732681
2522.548340	92.986885
2521.849121	132.306396
2521.149902	168.038071
2520.450684	142.988312
2519.751221	157.262054
2519.051514	103.633461
2518.351807	89.324944
2517.652100	117.890114
2516.952148	114.299446
2516.252197	128.566360
2515.552002	135.687286
2514.851807	128.525345
2514.151367	110.656937
2513.450928	128.484329
2512.750244	110.621620
2512.049561	103.468224
2511.348877	110.586311
2510.647949	117.702126
2509.946777	135.514145
2509.245605	85.574219
2508.544434	106.950699
2507.843018	117.626984
2507.141602	149.683167
2506.439941	103.336159
2505.738281	106.882408
2505.036377	113.989700
2504.334473	103.286667
2503.632568	135.319534
2502.930420	113.935089
2502.228027	103.237183
2501.525635	131.695374
2500.823242	117.439270
2500.120605	120.978706
2499.417969	99.613609
2498.715088	103.154755
2498.012207	110.251259
2497.309082	113.789566
2496.605957	113.771378
2495.902588	124.417564
2495.199219	124.397682
2494.495605	127.931450
2493.791992	127.911003
2493.088379	120.785522
2492.384521	124.318169
2491.680664	131.401047
2490.976563	113.625984
2490.272461	163.311249
2489.568115	149.086426
2488.863770	102.924164
2488.159180	138.393127
2487.454590	124.179100
2486.749756	141.896271
2486.044922	124.139381
2485.339844	127.665802
2484.634766	141.828201
2483.929688	124.079826
2483.224365	113.426270
2482.519043	106.320114
2481.813477	127.563728
2481.107666	106.286102
2480.402100	138.149826
2479.696045	99.168617
2478.990234	131.023270
2478.284180	116.839897
2477.577881	106.201088
2476.871582	106.184090
2476.165039	162.789551
2475.458496	127.380127
2474.751953	137.973053
2474.045166	155.636978
2473.338379	130.855606
2472.631348	99.010002
2471.924072	123.742691
2471.217041	134.327698
2470.509521	116.634323
2469.802246	130.750870
2469.094482	162.529114
2468.386963	166.035751
2467.679199	84.770638
2466.971191	130.667130
2466.263184	102.398376
2465.554932	102.381973
2464.846680	141.193893
2464.138428	105.878456
2463.429932	134.091217
2462.721436	127.013435
2462.012695	151.686188
2461.303955	105.810608
2460.594971	116.373024
2459.885986	130.457932
2459.176758	126.911697
2458.467529	130.416122
2457.758057	133.919403
2457.048584	133.897934
2456.338867	119.784218
2455.629150	151.467514
2454.919434	137.355484
2454.209473	133.812103
2453.499512	144.353058
2452.789307	147.850159
2452.078857	144.306763
2451.368408	154.840973
2450.657959	95.000809
2449.947266	116.093475
2449.236572	119.592278
2448.525879	126.606804
2447.814697	123.070206
2447.103760	147.660553
2446.392578	147.636871
2445.681152	130.040176
2444.969727	144.075455
2444.258301	137.025391
2443.546631	140.516312
2442.834717	133.469086
2442.122803	133.447662
2441.410889	122.892593
2440.698730	140.426132
2439.986572	179.014587
2439.274170	186.004898
2438.561768	164.921265
2437.849121	150.861191
2437.136475	147.329132
2436.423584	101.710922
2435.710693	98.187881
2434.997803	115.702850
2434.284424	140.223358
2433.571289	147.210876
2432.857910	119.151573
2432.144287	126.140228
2431.430908	129.623291
2430.717041	164.630173
2430.003174	133.083862
2429.289307	143.567413
2428.575195	147.045441
2427.861084	147.021805
2427.146729	150.498138
2426.432373	129.477600
2425.717773	136.454453
2425.003174	150.425598
2424.288330	139.908310
2423.573486	146.880112
2422.858643	150.353088
2422.143555	143.336868
2421.428223	167.782043
2420.712891	139.795898
2419.997559	160.739441
2419.281982	157.219818
2418.566162	157.194534
2417.850586	139.706009
2417.134521	143.175629
2416.418457	118.711922
2415.702393	108.219933
2414.986084	150.087372
2414.269775	122.144493
2413.553223	108.167725
2412.836670	122.105202
2412.120117	160.455307
2411.403076	115.090729
2410.686279	135.994431
2409.969238	139.459030
2409.251953	160.352066
2408.534668	142.899506
2407.817383	135.906921
2407.099854	114.979652
2406.382080	139.346848
2405.664307	135.841309
2404.946533	97.511398
2404.228516	121.869629
2403.510498	128.812866
2402.792236	163.600815
2402.073975	135.732010
2401.355469	156.588638
2400.636963	128.729935
2399.918213	139.145081
2399.199463	191.293686
2398.480469	128.667755
2397.761475	139.077866
2397.042480	146.008240
2396.323242	139.033066
2395.603760	125.109612
2394.884277	111.190628
2394.164795	118.121010
2393.445068	135.469925
2392.725098	135.448090
2392.005127	128.481339
2391.285156	135.404449
2390.564941	121.497231
2389.844727	114.536072
2389.124268	131.868759
2388.403809	114.499153
2387.683105	145.702713
2386.962402	107.525139
2386.241455	145.655746
2385.520508	110.957909
2384.799316	124.807526
2384.078125	142.118988
2383.356689	114.370010
2382.635254	138.607956
2381.913818	142.050247
2381.192139	124.706940
2380.470215	135.077393
2379.748291	141.981537
2379.026367	145.421036
2378.304199	117.702805
2377.581787	124.606400
2376.859375	176.497253
2376.136963	131.486542
2375.414307	138.384552
2374.691650	148.739395
2373.968750	141.798401
2373.245850	138.317581
2372.522705	145.210022
2371.799316	148.643417
2371.076172	127.881828
2370.352783	148.595428
2369.629150	148.571457
2368.905518	162.365845
2368.181641	138.161392
2367.457764	113.964745
2366.733643	148.475540
2366.009521	151.903931
2365.285400	138.072174
2364.561035	179.464859
2363.836426	141.478287
2363.111816	141.455429
2362.387207	120.735138
2361.662354	124.164658
2360.937256	141.386902
2360.212158	110.332932
2359.487061	137.893890
2358.761719	151.658768
2358.036377	144.741806
2357.310791	144.718414
2356.584961	155.030396
2355.859375	130.893402
2355.133301	130.872253
2354.407471	141.181442
2353.681152	127.387054
2352.955078	168.674515
2352.228516	120.462318
2351.502197	134.207748
2350.775635	151.389389
2350.048828	144.484695
2349.322021	137.582230
2348.594971	154.754974
2347.867920	134.099289
2347.140869	127.201836
2346.413330	154.679916
2345.686035	113.413597
2344.958496	137.448792
2344.230713	130.555237
2343.502930	116.793686
2342.775146	164.858536
2342.047119	157.963867
2341.319092	164.805191
2340.590820	161.345642
2339.862305	161.319550
2339.133789	99.521484
2338.405273	144.111237
2337.676514	137.226593
2336.947754	150.924820
2336.218750	178.336838
2335.489746	154.304977
2334.760498	140.566223
2334.031250	126.831909
2333.301758	99.392708
2332.572266	143.924759
2331.842529	147.327682
2331.112793	140.452484
2330.382813	154.130203
2329.652832	147.256119
2328.922607	150.656281
2328.192383	136.938080
2327.462158	143.761703
2326.731689	167.694824
2326.000977	133.449768
2325.270264	177.904205
2324.539307	153.930618
2323.808350	123.124550
2323.077393	147.041611
2322.346191	126.503677
2321.614746	133.320099
2320.883301	150.388062
2320.151855	129.859543
2319.420166	140.088913
2318.688232	140.066208
2317.956299	160.537674
2317.224365	150.266235
2316.492188	133.168930
2315.760010	157.045593
2315.027588	167.260574
2314.295166	177.472244
2313.562500	184.268219
2312.829590	156.943771
2312.096924	150.095795
2311.363770	170.535736
2310.630615	150.047119
2309.897461	146.613174
2309.164063	167.043732
2308.430664	146.565613
2307.697021	136.317993
2306.963379	163.555054
2306.229492	177.155899
2305.495605	143.064240
2304.761719	139.635300
2304.027344	177.069687
2303.293213	156.613159
2302.558838	180.416306
2301.824219	146.351746
2301.089600	146.327988
2300.354736	159.913940
2299.619873	159.887985
2298.885010	142.855438
2298.149658	136.030716
2297.414551	173.410995
2296.679199	142.785873
2295.943604	173.354691
2295.208008	166.529434
2294.472412	152.910355
2293.736572	129.103333
2293.000488	190.226654
2292.264404	163.024933
2291.528320	152.811050
2290.791992	115.438492
2290.055420	118.814438
2289.318848	105.218552
2288.582275	152.711792
2287.845459	162.866119
2287.108398	139.092209
2286.371582	196.732605
2285.634277	149.221176
2284.896973	149.196930
2284.159668	145.782394
2283.422119	172.876602
2282.684570	169.459320
2281.946777	189.763596
2281.208740	176.180405
2280.470703	149.051498
2279.732666	169.349167
2278.994385	169.321640
2278.256104	186.223511
2277.517578	179.422577
2276.779053	148.930374
2276.040283	175.979996
2275.301514	172.567703
2274.562500	155.623993
2273.823486	158.981262
2273.084229	142.045242
2272.344971	189.362854
2271.605469	182.570190
2270.865967	175.779739
2270.126221	155.472168
2269.386475	158.826141
2268.646484	162.179031
2267.906494	162.152649
2267.166260	135.105209
2266.426025	178.985275
2265.685547	148.567368
2264.945068	195.806931
2264.204346	168.771606
2263.463623	124.870659
2262.722656	124.850334
2261.981689	172.062988
2261.240723	175.408203
2260.499268	192.243073
2259.758057	151.746140
2259.016602	165.207779
2258.274902	151.696732
2257.533203	175.265442
2256.791260	165.127075
2256.049316	181.947144
2255.307129	175.179825
2254.564941	151.573227
2253.822754	178.490509
2253.080322	168.359833
2252.337646	195.265594
2251.594971	181.769379
2250.852051	212.029724
2250.109131	205.265167
2249.366211	154.764908
2248.623047	161.467499
2247.879639	144.624390
2247.136230	181.591736
2246.392578	151.301773
2245.648926	171.447388
2244.905273	181.502945
2244.161377	164.670273
2243.417236	120.962509
2242.673096	154.538010
2241.928955	178.025635
2241.184570	214.939301
2240.439941	167.893936
2239.695313	188.010544
2238.950439	201.407028
2238.205566	164.455582
2237.460693	187.918579
2236.715576	187.887924
2235.970215	171.084305
2235.224854	187.826630
2234.479492	167.674988
2233.733887	140.824005
2232.988037	174.325089
2232.242188	184.352219
2231.496338	147.457703
2230.750244	177.590515
2230.003906	197.662842
2229.257568	150.735184
2228.511230	177.503586
2227.764648	170.777451
2227.017822	187.489731
2226.270996	160.679245
2225.523926	204.163208
2224.776855	163.973175
2224.029785	157.254715
2223.282471	197.372620
2222.534912	157.203354
2221.787354	187.275543
2221.039795	180.557632
2220.291992	193.900589
2219.543945	173.813522
2218.795898	137.022888
2218.047852	177.098206
2217.299561	157.023697
2216.551025	173.699966
2215.802490	203.730133
2215.053955	203.696838
2214.305176	180.292328
2213.556152	176.924667
2212.807129	150.194504
2212.058105	166.855515
2211.308838	166.828232
2210.559326	193.489120
2209.809814	196.792969
2209.060303	170.081375
2208.310547	206.731781
2207.560547	163.358078
2206.810547	173.331253
2206.060303	179.968414
2205.310059	133.288132
2204.559814	166.582916
2203.809326	169.886795
2203.058594	186.511856
2202.307861	159.841156
2201.557129	193.109802
2200.806152	156.459930
2200.054932	173.076279
2199.303711	196.342896
2198.552246	189.656158
2197.800781	166.337830
2197.049316	186.267899
2196.297607	179.586075
2195.545654	166.256195
2194.793701	189.501038
2194.041504	169.525818
2193.289307	182.792023
2192.537109	182.762115
2191.784668	196.021805
2191.031982	212.599014
2190.279297	185.993683
2189.526367	182.642456
2188.773438	182.612549
2188.020508	185.902328
2187.267090	189.191040
2186.513916	195.797241
2185.760498	179.174911
2185.006836	195.733109
2184.253174	199.018021
2183.499268	208.934692
2182.745361	175.741669
2181.991211	198.920227
2181.237061	241.979965
2180.482666	178.969543
2179.728271	195.508759
2178.973877	261.740021
2178.218994	218.633057
2177.464355	172.228119
2176.709229	225.184464
2175.954346	195.348618
2175.198975	231.731552
2174.443848	185.354858
2173.688232	155.540176
2172.932861	224.999969
2172.177002	218.346512
2171.421387	188.541077
2170.665283	201.738937
2169.909424	178.559280
2169.153076	175.223892
2168.396729	191.723007
2167.640381	194.996582
2166.883789	175.137695
2166.127197	201.540512
2165.370361	184.990448
2164.613525	208.080109
2163.856445	211.348282
2163.099365	194.804733
2162.342041	178.266602
2161.584473	178.237350
2160.826904	158.407211
2160.069336	178.178864
2159.311523	164.953354
2158.553711	171.523331
2157.795654	201.177032
2157.037354	201.144012
2156.279053	178.032684
2155.520752	178.003448
2154.762207	171.382584
2154.003662	187.830841
2153.244873	191.094742
2152.485840	227.299515
2151.726807	200.912949
2150.967773	200.879959
2150.208252	200.846954
2149.448975	190.937881
2148.689453	213.946960
2147.929688	210.620865
2147.169922	161.230103
2146.410156	217.131409
2145.650146	187.491776
2144.889893	207.193695
2144.129639	190.718414
2143.369141	141.371445
2142.608643	157.784058
2141.847900	193.911026
2141.087158	187.306976
2140.326416	180.705109
2139.565186	203.670456
2138.804199	190.499100
2138.042725	164.196365
2137.281494	154.319214
2136.519775	147.728149
2135.758301	213.350006
2134.996338	183.779022
2134.234619	190.311249
2133.472412	183.718582
2132.710449	177.128067
2131.947998	206.615417
2131.185547	173.790726
2130.423096	170.483612
2129.660400	206.513474
2128.897705	203.202057
2128.134766	206.445526
2127.371826	183.476944
2126.608643	226.032608
2125.845215	229.270721
2125.081787	212.859207
2124.318359	216.098389
2123.554688	193.147064
2122.790771	202.934708
2122.026855	179.993088
2121.262939	209.412018
2120.498779	186.476883
2119.734375	219.156036
2118.969971	199.497269
2118.205322	219.083878
2117.440674	196.162216
2116.676025	169.979263
2115.911133	173.219559
2115.145996	209.136337
2114.380859	192.765808
2113.615479	186.200699
2112.850098	244.960571
2112.084473	215.529785
2111.318848	205.699081
2110.552979	212.194260
2109.787109	182.783386
2109.020996	208.860886
2108.254883	231.666855
2107.488525	192.480179
2106.722168	189.186615
2105.955566	179.371536
2105.188965	179.341965
2104.422119	195.613541
2103.655029	189.061920
2102.887939	218.363113
2102.120850	247.654633
2101.353516	208.516891
2100.585938	221.512665
2099.818359	214.962128
2099.050781	211.670227
2098.282959	214.891251
2097.514893	201.834244
2096.746826	227.839783
2095.978760	211.530624
2095.210449	224.510849
2094.441895	198.447861
2093.673340	191.909714
2092.904541	182.121536
2092.135742	240.620911
2091.366699	250.334488
2090.597656	188.532532
2089.828369	204.751541
2089.059082	237.212631
2088.289551	230.675583
2087.520020	201.401764
2086.750244	220.855804
2085.980469	217.572006
2085.210449	207.795670
2084.440186	198.022552
2083.670166	220.710007
2082.899658	201.202362
2082.129150	175.211838
2081.358643	158.962265
2080.587891	227.051437
2079.816895	188.097275
2079.045898	197.793762
2078.274902	207.487045
2077.503662	188.004089
2076.732178	178.250290
2075.960693	217.105377
2075.188965	174.951553
2074.417236	220.272964
2073.645264	152.222336
2072.873291	213.723694
2072.101074	210.450684
2071.328857	233.076080
2070.556396	200.671219
2069.783936	203.874161
2069.011230	226.489395
2068.238525	203.806763
2067.465576	174.662628
2066.692627	190.803558
2065.919434	177.838318
2065.145996	216.603577
2064.372559	223.032471
2063.599121	235.922867
2062.825439	206.802292
2062.051514	219.691086
2061.277588	239.036057
2060.503662	193.780960
2059.729248	229.269547
2058.955078	238.917465
2058.180664	190.456741
2057.406006	200.107864
2056.631348	206.528778
2055.856445	245.212357
2055.081543	251.623657
2054.306396	219.327927
2053.531250	203.167236
2052.755859	199.909271
2051.980225	219.219040
2051.204590	225.629303
2050.428955	254.596634
2049.653076	209.443573
2048.877197	241.625656
2048.101074	225.479935
2047.324707	202.898346
2046.548340	209.304901
2045.771851	212.489777
2044.995239	189.921524
2044.218506	202.763977
2043.441528	263.871307
2042.664551	225.218689
2041.887329	218.747635
2041.110107	160.817200
2040.332642	241.185837
2039.555176	186.486145
2038.777466	234.676437
2037.999634	189.638565
2037.221802	221.743958
2036.443726	218.494064
2035.665527	231.308319
2034.887207	215.209564
2034.108765	221.597000
2033.330200	237.615356
2032.551514	234.365479
2031.772705	234.326630
2030.993774	221.450104
2030.214600	211.786713
2029.435425	208.543243
2028.656128	227.755615
2027.876587	230.925140
2027.097046	224.473328
2026.317261	234.054779
2025.537476	256.455841
2024.757446	208.335815
2023.977295	240.347610
2023.197021	211.470810
2022.416626	233.860733
2021.636230	221.009766
2020.855591	240.188156
2020.074707	182.512711
2019.293823	208.093994
2018.512817	256.073181
2017.731689	201.624161
2016.950439	239.988937
2016.168945	220.753174
2015.387451	249.505646
2014.605713	259.058990
2013.823975	246.225082
2013.041992	265.367401
2012.260010	252.536667
2011.477783	223.729507
2010.695435	258.844025
2009.912964	249.215805
2009.130371	258.758057
2008.347656	213.998901
2007.564819	233.124252
2006.781860	261.822113
2005.998779	236.239227
2005.215576	217.048645
2004.432129	245.734833
2003.648682	239.312347
2002.864990	245.653183
2002.081299	220.094193
2001.297363	242.382309
2000.513428	277.417847
1999.729248	248.678116
1998.944946	207.197327
1998.160522	239.034103
1997.375977	242.180954
1996.591309	251.698883
1995.806519	261.213654
1995.021606	216.580185
1994.236572	238.835480
1993.451416	261.083374
1992.666016	241.939468
1991.880615	251.447891
1991.094971	219.582520
1990.309326	245.000610
1989.523438	254.503754
1988.737549	235.376816
1987.951416	248.058624
1987.165161	241.657928
1986.378784	251.155273
1985.592285	222.505615
1984.805664	260.606079
1984.018921	251.029922
1983.232056	209.686310
1982.444946	241.416779
1981.657837	279.488708
1980.870605	244.511902
1980.083130	266.695862
1979.295654	282.523590
1978.507935	247.563721
1977.720093	234.829041
1976.932129	247.481293
1976.144165	269.646240
1975.355957	285.460266
1974.567627	231.501434
1973.779053	240.975052
1972.990479	269.466675
1972.201782	250.403793
1971.412964	259.869507
1970.623901	266.163452
1969.834839	269.287201
1969.045532	285.080109
1968.256226	272.364502
1967.466675	253.320114
1966.677002	275.439728
1965.887207	281.724731
1965.097290	250.028580
1964.307251	259.480103
1963.517090	278.420044
1962.726807	278.373627
1961.936401	259.350372
1961.145874	278.280823
1960.355103	297.204956
1959.564331	262.381927
1958.773315	259.177460
1957.982178	243.333389
1957.191040	268.569977
1956.399658	290.639038
1955.608154	262.163239
1954.816528	246.329178
1954.024780	287.336121
1953.232910	265.189087
1952.440918	271.457825
1951.648682	246.164871
1950.856445	255.590103
1950.063965	268.167084
1949.271484	264.967957
1948.478760	271.231445
1947.685913	271.186188
1946.893066	277.446533
1946.099976	258.486572
1945.306763	271.050446
1944.513428	271.005188
1943.719971	283.562744
1942.926270	311.866943
1942.132568	292.917023
1941.338745	264.526031
1940.544678	270.779053
1939.750610	324.251007
1938.956299	292.721436
1938.161865	286.378510
1937.367310	308.356140
1936.572632	308.304626
1935.777832	320.834900
1934.982910	279.897430
1934.187866	292.428223
1933.392700	264.084595
1932.597290	308.047211
1931.801880	289.138855
1931.006226	279.663696
1930.210571	232.490494
1929.414673	307.841370
1928.618652	248.116364
1927.822510	279.476776
1927.026245	279.430084
1926.229858	269.965942
1925.433350	313.861420
1924.636719	276.151886
1923.839844	269.830597
1923.042969	276.059540
1922.245850	304.242035
1921.448730	329.279083
1920.651367	304.140289
1919.853882	269.605072
1919.056274	300.904144
1918.258545	256.979309
1917.460693	288.270020
1916.662720	278.823273
1915.864624	278.776611
1915.066284	272.466400
1914.267944	284.945892
1913.469360	281.767487
1912.670776	363.106201
1911.871948	294.191986
1911.072998	312.917816
1910.273926	300.350830
1909.474731	287.788055
1908.675415	303.377899
1907.875977	290.818787
1907.076294	300.149780
1906.276611	290.721436
1905.476807	296.923798
1904.676758	293.749084
1903.876587	328.069031
1903.076294	309.270447
1902.275879	306.095215
1901.475342	349.764526
1900.674683	274.768951
1899.873901	337.159973
1899.072998	315.254181
1898.271851	327.684601
1897.470703	315.148560
1896.669312	318.215546
1895.867920	299.446777
1895.066284	336.821198
1894.264526	330.528381
1893.462646	271.237244
1892.660645	321.066162
1891.858521	330.362213
1891.056152	336.539063
1890.253784	317.789154
1889.451172	339.541290
1888.648560	333.255310
1887.845703	330.085419
1887.042725	302.008636
1886.239624	354.878479
1885.436401	326.806946
1884.633057	311.192535
1883.829590	320.474548
1883.025879	301.755493
1882.222168	311.035980
1881.418213	320.313324
1880.614258	320.259583
1879.810059	292.226715
1879.005737	332.585236
1878.201294	298.344147
1877.396729	313.830261
1876.592041	307.564178
1875.787231	295.087799
1874.982178	332.306274
1874.177124	344.671082
1873.371826	325.985504
1872.566406	319.722565
1871.760986	316.565308
1870.955322	332.027466
1870.149536	310.253967
1869.343506	331.915985
1868.537476	362.875244
1867.731323	334.905518
1866.924927	359.652924
1866.118530	325.493225
1865.311890	328.537994
1864.505127	291.296082
1863.698242	309.837402
1862.891235	306.687500
1862.084106	322.122620
1861.276855	291.100403
1860.469482	322.014404
1859.661865	334.343384
1858.854126	303.334686
1858.046387	343.515228
1857.238403	352.740143
1856.430298	337.212402
1855.622070	349.528412
1854.813721	364.932892
1854.005249	330.858124
1853.196533	340.077332
1852.387817	321.473602
1851.578857	349.234711
1850.769775	324.455566
1849.960693	349.117279
1849.151367	349.058563
1848.341919	355.176849
1847.532227	361.293060
1846.722534	348.882477
1845.912720	364.258484
1845.102661	308.641693
1844.292603	314.761566
1843.482300	330.135498
1842.671875	367.098267
1841.861328	370.120850
1841.050659	354.639465
1840.239868	360.746399
1839.428833	360.685669
1838.617798	354.460449
1837.806519	394.463501
1836.995117	351.259918
1836.183716	363.523621
1835.372070	344.981293
1834.560303	317.206146
1833.748291	332.548523
1832.936279	329.413879
1832.124146	295.499146
1831.311768	341.613342
1830.499390	360.018311
1829.686768	344.574860
1828.874023	366.049133
1828.061157	329.081177
1827.248169	338.250763
1826.434937	335.119293
1825.621704	359.654602
1824.808228	307.345306
1823.994751	322.658203
1823.181030	362.545258
1822.367188	380.915558
1821.553223	399.279663
1820.739136	402.283234
1819.924927	343.878845
1819.110474	365.309662
1818.296021	349.901520
1817.481323	368.255310
1816.666626	371.261505
1815.851685	343.589081
1815.036621	355.800110
1814.221436	404.807709
1813.406006	352.613922
1812.590576	377.079987
1811.774902	315.712921
1810.959229	376.952789
1810.143311	373.825073
1809.327271	358.443909
1808.511108	343.067902
1807.694824	355.260376
1806.878418	395.007385
1806.061768	422.494751
1805.245117	358.141632
1804.428223	345.839111
1803.611206	400.860870
1802.794067	357.960327
1801.976807	397.666595
1801.159424	330.313385
1800.341919	348.605286
1799.524170	348.546448
1798.706421	385.170502
1797.888428	382.049072
1797.070313	385.040436
1796.252075	369.698639
1795.433716	387.965271
1794.615234	372.628113
1793.796509	335.919403
1792.977783	384.715424
1792.158813	384.650452
1791.339844	378.480927
1790.520630	366.209991
1789.701294	311.225922
1788.881714	378.289154
1788.062134	378.225220
1787.242432	353.763824
1786.422485	390.294098
1785.602417	417.666077
1784.782349	417.595490
1783.962036	362.667603
1783.141479	383.936096
1782.320923	383.871185
1781.500244	362.483734
1780.679321	338.057922
1779.858398	353.226013
1779.037231	395.789795
1778.215942	377.458740
1777.394531	392.612457
1776.572998	380.374084
1775.751221	410.734528
1774.929443	395.455261
1774.107422	395.388367
1773.285278	410.526154
1772.463013	398.295013
1771.640625	367.828583
1770.818115	398.160248
1769.995483	343.393097
1769.172607	425.370789
1768.349731	416.185272
1767.526611	400.928162
1766.703369	428.191681
1765.880005	431.155518
1765.056519	376.438263
1764.232910	382.445099
1763.409058	324.719849
1762.585083	397.486877
1761.761108	403.487061
1760.936890	424.651306
1760.112549	394.252289
1759.288086	412.378723
1758.463379	424.435608
1757.638672	433.457245
1756.813721	397.015930
1755.988647	418.159698
1755.163574	384.762939
1754.338257	418.018036
1753.512695	399.775604
1752.687134	405.764038
1751.861328	408.722870
1751.035522	390.491211
1750.209473	384.371948
1749.383301	444.827545
1748.557007	393.318237
1747.730591	387.201538
1746.903931	453.674896
1746.077271	423.358124
1745.250366	426.309845
1744.423340	338.571686
1743.596313	432.210175
1742.768921	410.983337
1741.941528	438.106476
1741.114014	422.927612
1740.286255	450.039490
1739.458374	401.644958
1738.630493	413.654327
1737.802368	428.678497
1736.973999	452.752563
1736.145630	395.336823
1735.317139	428.460358
1734.488403	467.606232
1733.659546	401.168243
1732.830566	428.242279
1732.001465	410.077942
1731.172241	470.303680
1730.342896	455.152588
1729.513306	382.745483
1728.683594	436.918701
1727.853882	433.831787
1727.023926	439.782562
1726.193726	424.649414
1725.363525	433.610870
1724.533203	439.558594
1723.702637	400.351807
1722.871948	442.418976
1722.041138	397.206696
1721.210205	448.285950
1720.379150	394.063660
1719.547974	406.027161
1718.716553	411.972382
1717.885010	420.922150
1717.053467	471.953918
1716.221558	426.790253
1715.389648	426.717743
1714.557617	507.767914
1713.725342	384.516266
1712.893066	417.489655
1712.060547	423.424713
1711.227905	423.352753
1710.395142	435.288757
1709.562256	438.216217
1708.729126	426.137848
1707.895874	450.069061
1707.062622	407.993256
1706.229126	401.924988
1705.395508	422.849152
1704.561646	470.751953
1703.727783	416.709503
1702.893677	464.597046
1702.059570	440.542877
1701.225220	458.446228
1700.390747	428.409546
1699.556030	488.243866
1698.721313	428.263763
1697.886353	395.253143
1697.051392	407.161224
1696.216187	443.011810
1695.380859	436.950775
1694.545410	457.822540
1693.709717	448.769226
1692.874023	442.710266
1692.038086	439.644135
1691.202026	475.452484
1690.365845	439.494446
1689.529541	466.322845
1688.692993	379.570007
1687.856445	481.105225
1687.019653	498.949615
1686.182739	445.094818
1685.345703	471.899323
1684.508545	424.039825
1683.671143	435.910339
1682.833740	405.984283
1681.996094	465.608521
1681.158325	453.592560
1680.320435	453.515289
1679.482422	480.286285
1678.644287	492.135010
1677.805908	399.605164
1676.967407	477.059174
1676.128784	471.015625
1675.290039	491.799591
1674.451172	455.954590
1673.612183	467.795227
1672.772949	497.506256
1671.933594	443.807159
1671.094116	455.643738
1670.254517	452.588470
1669.414795	455.488342
1668.574829	485.176086
1667.734863	508.901581
1666.894653	446.328766
1666.054321	484.927856
1665.213867	469.972595
1664.373169	538.294495
1663.532471	490.626709
1662.691528	520.272888
1661.850464	511.266663
1661.009277	469.571808
1660.167969	484.348999
1659.326538	478.324432
1658.484863	522.799561
1657.643066	531.620178
1656.801147	486.987854
1655.959106	513.625122
1655.116943	504.632141
1654.274658	546.096802
1653.432129	489.622772
1652.589478	462.837036
1651.746704	539.884338
1650.903809	542.758057
1650.060791	542.665344
1649.217529	515.888733
1648.374146	492.085663
1647.530640	486.073883
1646.687012	530.441223
1645.843262	518.499207
1644.999390	500.636536
1644.155273	488.703613
1643.311035	521.194763
1642.466675	491.497437
1641.622192	503.254730
1640.777588	515.007996
1639.932739	559.309631
1639.087769	568.090454
1638.242798	544.326904
1637.397461	553.107239
1636.552124	553.012695
1635.706665	567.702026
1634.860962	523.260864
1634.015137	529.082886
1633.169189	549.679260
1632.323120	561.404297
1631.476929	552.445557
1630.630493	546.443542
1629.783936	546.350098
1628.937256	558.067566
1628.090454	566.828796
1627.243530	584.442200
1626.396484	572.537292
1625.549194	534.080017
1624.701782	557.590332
1623.854248	584.042236
1623.006592	592.789917
1622.158691	580.893677
1621.310791	542.467712
1620.462646	616.067078
1619.614380	571.753845
1618.765991	583.442688
1617.917358	601.019836
1617.068726	595.025574
1616.219849	589.033386
1615.370850	585.987854
1614.521729	615.329102
1613.672363	597.561768
1612.822998	606.288879
1611.973389	585.586487
1611.123657	638.444763
1610.273804	600.094055
1609.423828	597.050110
1608.573608	614.591614
1607.723389	588.025146
1606.872925	576.165955
1606.022339	626.032227
1605.171509	602.416016
1604.320679	581.745972
1603.469604	637.460815
1602.618408	596.232056
1601.767090	578.510254
1600.915649	587.219360
1600.064087	616.474609
1599.212280	545.926758
1598.360352	569.309875
1597.508301	666.036987
1596.656128	604.317566
1595.803833	607.147034
1594.951294	595.312561
1594.098633	615.734985
1593.245850	647.876587
1592.392944	574.488831
1591.539795	624.209839
1590.686646	600.662231
1589.833252	662.079895
1588.979736	638.533813
1588.126099	603.281616
1587.272217	579.753723
1586.418335	597.219482
1585.564209	635.168579
1584.709961	567.749084
1583.855591	626.172424
1583.000977	585.107361
1582.146362	596.707092
1581.291504	608.302734
1580.436523	628.666504
1579.581421	564.240967
1578.726074	602.143372
1577.870605	596.194946
1577.015137	566.872314
1576.159424	590.147095
1575.303467	604.650818
1574.447510	595.785400
1573.591309	592.763000
1572.734985	674.407532
1571.878540	668.453674
1571.021973	618.724121
1570.165161	604.027771
1569.308350	603.923950
1568.451294	632.990234
1567.594116	627.048401
1566.736694	653.184631
1565.879272	612.255371
1565.021606	635.470093
1564.163818	612.044861
1563.305908	611.939636
1562.447876	626.401855
1561.589600	591.338196
1560.731201	629.098938
1559.872681	623.166748
1559.014038	617.236633
1558.155273	585.109497
1557.296265	555.903931
1556.437134	602.368164
1555.577881	634.268982
1554.718506	599.251953
1553.859009	645.684692
1552.999268	651.389526
1552.139404	625.110046
1551.279419	625.002502
1550.419312	581.297607
1549.558960	575.385559
1548.698608	595.624939
1547.838013	604.237366
1546.977173	607.037842
1546.116333	589.509399
1545.255249	606.828857
1544.394165	589.306396
1543.532837	577.594971
1542.671265	612.319397
1541.809692	609.312439
1540.947876	606.306519
1540.085938	588.799133
1539.223877	571.297791
1538.361694	597.294800
1537.499268	573.999939
1536.636841	634.769348
1535.774170	617.272034
1534.911377	602.678223
1534.048340	579.398438
1533.185303	605.367004
1532.322021	625.534668
1531.458618	639.904297
1530.594971	602.159058
1529.731323	578.899292
1528.867432	627.997437
1528.003418	616.315186
1527.139282	569.920898
1526.275024	618.995178
1525.410522	630.456421
1524.545898	624.564697
1523.681152	604.219971
1522.816284	607.006287
1521.951172	609.791565
1521.086060	612.575867
1520.220703	635.582275
1519.355225	621.030090
1518.489502	594.930847
1517.623779	612.153259
1516.757813	557.194336
1515.891724	597.509399
1515.025513	632.038574
1514.159058	582.875610
1513.292480	649.130554
1512.425781	660.556641
1511.558960	599.877991
1510.692017	596.890869
1509.824829	622.735168
1508.957520	613.980042
1508.090088	662.868652
1507.222534	654.109558
1506.354736	645.353455
1505.486938	656.764221
1504.618896	599.049805
1503.750610	659.416870
1502.882324	610.359070
1502.013794	664.946228
1501.145142	641.806885
1500.276367	627.308167
1499.407471	621.445679
1498.538330	664.486755
1497.669067	641.363403
1496.799683	641.252563
1495.930176	615.266052
1495.060547	600.786804
1494.190674	649.542358
1493.320679	652.303650
1492.450562	672.302490
1491.580200	652.078125
1490.709717	666.325867
1489.839233	631.751465
1488.968384	694.806458
1488.097534	711.909912
1487.226440	683.085693
1486.355347	639.923401
1485.483887	702.933228
1484.612427	651.176514
1483.740845	616.646423
1482.869019	639.480713
1481.997070	682.377014
1481.124878	662.192505
1480.252686	659.211792
1479.380249	696.351074
1478.507690	696.230591
1477.635010	690.380798
1476.762207	664.483887
1475.889160	690.141785
1475.015991	687.159180
1474.142700	744.293579
1473.269165	781.372925
1472.395630	792.684326
1471.521851	769.657654
1470.647949	786.688477
1469.773804	803.713379
1468.899658	797.854797
1468.025269	866.337402
1467.150757	903.350464
1466.276001	917.485046
1465.401245	923.041504
1464.526245	968.597107
1463.651123	996.996521
1462.775879	982.542664
1461.900391	1010.929688
1461.024780	1019.320251
1460.149048	1033.417358
1459.273193	1078.906128
1458.397217	1081.572876
1457.520996	1027.173462
1456.644653	1029.848267
1455.768188	1063.896973
1454.891479	1075.119629
1454.014648	1026.461426
1453.137695	1012.029480
1452.260620	1023.255127
1451.383423	1114.271240
1450.505981	1082.735596
1449.628418	974.293030
1448.750732	1065.270142
1447.872803	1022.368042
1446.994873	1067.747925
1446.116699	999.238647
1445.238403	1061.684814
1444.359863	1058.654663
1443.481201	1089.769897
1442.602417	1160.702271
1441.723511	1271.431030
1440.844482	1271.210327
1439.965210	1342.074097
1439.085815	1458.399414
1438.206299	1458.146240
1437.326538	1565.885132
1436.446777	1514.468018
1435.566772	1417.614136
1434.686646	1352.038330
1433.806274	1224.006958
1432.925781	1218.115601
1432.045166	1129.896973
1431.164429	1067.255005
1430.283569	1052.879761
1429.402466	936.361145
1428.521240	933.361511
1427.639893	887.815796
1426.758301	833.777893
1425.876709	853.481445
1424.994873	870.343079
1424.112793	816.336304
1423.230713	878.542603
1422.348389	861.388855
1421.465942	926.398621
1420.583374	872.419495
1419.700562	835.451355
1418.817627	954.231018
1417.934570	982.375671
1417.051392	1030.324341
1416.167969	1035.805420
1415.284546	939.419617
1414.400757	961.888916
1413.516968	862.720886
1412.633057	808.836914
1411.748901	752.143982
1410.864624	774.630127
1409.980103	712.309570
1409.095459	692.402710
1408.210815	714.887390
1407.325806	675.210876
1406.440796	677.918030
1405.555542	717.338379
1404.670166	655.092651
1403.784668	674.740967
1402.899048	632.283081
1402.013184	637.817444
1401.127197	702.605713
1400.241089	662.986328
1399.354736	648.767273
1398.468262	643.013855
1397.581665	617.524170
1396.694946	642.789917
1395.807983	648.315491
1394.920898	673.567017
1394.033691	648.089661
1393.146362	636.707581
1392.258789	636.596680
1391.371094	639.302063
1390.483276	658.901367
1389.595337	653.155945
1388.707153	647.412415
1387.818848	647.299622
1386.930420	672.511475
1386.041748	666.767578
1385.152954	616.019592
1384.264038	669.347534
1383.375000	657.983276
1382.485718	663.491333
1381.596313	680.241150
1380.706787	632.345337
1379.817139	657.524475
1378.927246	646.172058
1378.037231	632.014587
1377.147095	674.031311
1376.256714	710.417358
1375.366333	648.528809
1374.475586	710.169556
1373.584839	648.302551
1372.693970	723.951843
1371.802856	698.575806
1370.911499	709.674072
1370.020142	639.436523
1369.128540	759.899414
1368.236816	801.820313
1367.344971	762.437256
1366.453003	672.621338
1365.560791	739.754272
1364.668457	717.212280
1363.775879	717.087036
1362.883301	716.961853
1361.990479	747.638245
1361.097534	733.509399
1360.204346	747.377136
1359.311035	705.266418
1358.417603	643.583130
1357.524048	688.233887
1356.630249	671.330383
1355.736450	685.196716
1354.842285	668.299622
1353.948120	701.731812
1353.053711	715.585449
1352.159180	715.460388
1351.264526	729.306763
1350.369751	743.148254
1349.474731	717.878662
1348.579590	698.203491
1347.684204	670.158142
1346.788818	720.294067
1345.893188	706.211426
1344.997314	714.460510
1344.101440	708.754883
1343.205322	714.210693
1342.309082	739.190369
1341.412720	733.483276
1340.516113	716.624451
1339.619385	680.255981
1338.722534	744.248230
1337.825439	732.970215
1336.928223	769.066101
1336.030884	718.783813
1335.133423	704.730591
1334.235718	696.252258
1333.337891	671.069702
1332.439941	723.848938
1331.541870	712.588013
1330.643555	740.293884
1329.745117	767.990051
1328.846436	731.688477
1327.947754	734.341980
1327.048828	748.118958
1326.149780	750.768616
1325.250488	714.495361
1324.351074	725.488831
1323.451538	761.490906
1322.551880	769.693604
1321.651978	713.994934
1320.751953	772.201660
1319.851807	783.175293
1318.951416	691.405945
1318.050903	744.033447
1317.150269	746.678833
1316.249512	754.873840
1315.348511	768.615479
1314.447388	860.032654
1313.546021	784.988953
1312.644653	834.771240
1311.743042	773.622437
1310.841309	892.698059
1309.939331	848.191650
1309.037231	878.528198
1308.135010	800.789063
1307.232666	914.235474
1306.330078	864.216492
1305.427368	877.912109
1304.524536	850.068604
1303.621460	966.195190
1302.718262	935.577881
1301.814941	938.181274
1300.911499	940.783691
1300.007813	1026.380981
1299.104004	1103.649902
1298.199951	1106.221802
1297.295898	1233.220947
1296.391602	1484.581665
1295.487061	1863.002686
1294.582520	2127.982666
1293.677734	2058.530762
1292.772827	1837.158081
1291.867676	1521.949463
1290.962402	1157.141235
1290.057007	1085.147217
1289.151489	969.007080
1288.245728	825.305542
1287.339844	800.322998
1286.433838	761.552979
1285.527588	777.971802
1284.621216	739.219177
1283.714722	700.480225
1282.808105	694.842529
1281.901245	708.504578
1280.994263	689.085693
1280.087036	705.499756
1279.179810	658.534424
1278.272217	663.928528
1277.364624	716.145508
1276.456787	636.155945
1275.548828	693.866333
1274.640747	657.955933
1273.732544	682.612488
1272.824097	699.004395
1271.915405	663.112000
1271.006714	696.007629
1270.097778	662.878784
1269.188721	720.513306
1268.279541	651.647400
1267.370117	571.809387
1266.460571	643.172424
1265.550781	684.281006
1264.640991	618.217468
1263.730957	642.833008
1262.820679	626.239929
1261.910400	653.591553
1260.999878	606.799683
1260.089233	606.692871
1259.178345	647.757141
1258.267334	568.059814
1257.356201	581.678711
1256.444824	595.292725
1255.533447	625.358765
1254.621704	581.371582
1253.709961	559.334534
1252.797974	586.649536
1251.885864	581.064514
1250.973633	630.289185
1250.061157	649.357483
1249.148560	567.060486
1248.235840	580.655273
1247.322876	561.383789
1246.409790	583.188721
1245.496582	531.073608
1244.583130	582.983215
1243.669556	539.096069
1242.755859	533.528992
1241.841919	574.468445
1240.927856	560.691772
1240.013672	552.389160
1239.099365	527.684753
1238.184814	582.264404
1237.270142	522.032410
1236.355225	527.405701
1235.440186	524.580505
1234.525024	521.756348
1233.609741	518.933105
1232.694214	483.341888
1231.778564	565.164551
1230.862671	548.686218
1229.946777	540.401550
1229.030640	513.018005
1228.114258	523.840881
1227.197876	504.653442
1226.281128	463.653778
1225.364380	548.105713
1224.447388	553.461792
1223.530273	553.364136
1222.613037	572.344604
1221.695557	490.494537
1220.777954	558.520142
1219.860229	509.389435
1218.942261	550.152405
1218.024170	539.163147
1217.105957	511.842285
1216.187500	492.697296
1215.268921	557.928833
1214.350220	519.734558
1213.431274	514.201477
1212.512207	522.271179
1211.593018	543.936340
1210.673706	524.805847
1209.754150	486.651062
1208.834351	519.183960
1207.914551	527.245544
1206.994507	489.110443
1206.074219	548.793640
1205.153931	475.356018
1204.233398	532.304626
1203.312744	532.210571
1202.391846	559.265320
1201.470825	518.450439
1200.549683	510.217041
1199.628296	504.699951
1198.706787	477.481110
1197.785156	499.096527
1196.863281	515.280273
1195.941284	504.343079
1195.019165	493.409729
1194.096802	509.585815
1193.174438	520.336060
1192.251709	531.082397
1191.328979	539.115845
1190.406006	492.973480
1189.482788	487.469940
1188.559570	527.998962
1187.636108	492.711853
1186.712402	508.865051
1185.788696	497.949982
1184.864746	478.921448
1183.940552	508.594910
1183.016357	522.028931
1182.091919	492.188843
1181.167236	486.694000
1180.242554	540.675354
1179.317505	532.470947
1178.392456	521.567017
1177.467163	510.666870
1176.541748	497.069122
1175.616211	534.794861
1174.690430	518.497070
1173.764526	569.705750
1172.838501	518.313416
1171.912231	542.513245
1170.985840	480.349487
1170.059204	582.792725
1169.132446	606.968201
1168.205566	617.649231
1167.278564	598.663025
1166.351318	620.126526
1165.423828	496.013306
1164.496338	576.782776
1163.568604	528.174683
1162.640747	546.941101
1161.712646	487.580231
1160.784424	500.960449
1159.856079	484.714478
1158.927490	560.015198
1157.998779	522.229248
1157.069946	505.988037
1156.140869	540.880615
1155.211670	492.356201
1154.282349	511.098816
1153.352783	532.524292
1152.423096	494.783234
1151.493164	497.384003
1150.563232	475.791077
1149.632935	529.458801
1148.702637	510.554932
1147.772095	494.344391
1146.841431	539.921631
1145.910522	478.054688
1144.979492	491.395966
1144.048340	488.623962
1143.116943	461.694519
1142.185425	493.818054
1141.253784	555.446655
1140.321899	520.471130
1139.389893	533.790466
1138.457764	517.604370
1137.525391	533.600891
1136.592896	517.420471
1135.660278	576.298645
1134.727417	600.316101
1133.794434	602.888977
1132.861206	723.338257
1131.927856	752.673767
1130.994385	873.053589
1130.060669	1020.166565
1129.126831	1210.061157
1128.192871	1343.678711
1127.258667	1495.981812
1126.324341	1479.661621
1125.389893	1284.107300
1124.455200	1182.238525
1123.520386	968.086548
1122.585327	850.267334
1121.650146	732.489990
1120.714844	705.631287
1119.779297	705.505798
1118.843628	593.160706
1117.907837	617.097961
1116.971802	563.569275
1116.035645	614.207947
1115.099365	563.368774
1114.162842	549.920959
1113.226196	525.801697
1112.289307	531.045227
1111.352417	541.623108
1110.415161	520.185730
1109.477905	498.756012
1108.540405	498.667236
1107.602661	490.579865
1106.664917	546.472656
1105.726807	525.053406
1104.788696	511.636047
1103.850342	503.552032
1102.911865	511.453827
1101.973145	527.342834
1101.034302	559.203369
1100.095337	527.154968
1099.156128	481.808350
1098.216797	473.738190
1097.277344	553.483093
1096.337646	548.063416
1095.397827	542.645752
1094.457764	531.910828
1093.517700	515.861511
1092.577271	542.355652
1091.636841	518.335815
1090.696167	536.847046
1089.755249	550.037231
1088.814209	531.342224
1087.873047	512.653809
1086.931763	560.366150
1085.990234	597.440308
1085.048584	623.881897
1084.106689	583.955505
1083.164673	546.697205
1082.222412	581.093811
1081.280151	599.560608
1080.337524	567.624268
1079.394897	556.915100
1078.452026	609.845825
1077.509033	625.643188
1076.565796	633.483215
1075.622437	577.718384
1074.678955	577.615295
1073.735229	535.125977
1072.791382	545.625122
1071.847290	542.879578
1070.903076	561.316650
1069.958740	524.155029
1069.014160	539.942078
1068.069458	571.601257
1067.124512	624.415833
1066.179565	695.728943
1065.234253	735.277954
1064.288940	922.899902
1063.343384	999.409302
1062.397583	1139.334595
1061.451660	1207.848999
1060.505615	1210.275635
1059.559448	1011.905579
1058.613037	972.101074
1057.666382	913.823059
1056.719727	760.502869
1055.772827	697.003052
1054.825684	599.209900
1053.878418	535.761536
1052.931030	577.885742
1051.983398	559.314514
1051.035645	543.387695
1050.087769	540.653198
1049.139648	514.187866
1048.191406	474.550110
1047.242920	448.106049
1046.294312	492.828522
1045.345581	447.945770
1044.396606	468.941681
1043.447510	424.079254
1042.498291	479.308167
1041.548828	458.157684
1040.599121	450.177856
1039.649414	463.258057
1038.699341	439.490051
1037.749268	473.617065
1036.798950	431.440552
1035.848511	418.212006
1034.897827	402.358398
1033.947021	423.320953
1032.996094	439.018280
1032.044922	412.655853
1031.093506	438.861084
1030.142090	417.762970
1029.190430	454.465729
1028.238525	464.890320
1027.286499	428.042664
1026.334351	401.710419
1025.381958	467.265656
1024.429443	414.689606
1023.476807	367.380646
1022.523926	438.154114
1021.570923	430.205994
1020.617737	487.829102
1019.664368	416.940460
1018.710815	422.109344
1017.757080	419.412354
1016.803223	411.474609
1015.849121	432.363953
1014.894897	450.625854
1013.940491	424.350586
1012.985962	400.703705
1012.031189	405.868866
1011.076294	471.247070
1010.121216	444.986877
1009.165955	426.587341
1008.210510	450.060516
1007.254944	423.818176
1006.299133	413.279388
1005.343201	418.435669
1004.387085	434.049133
1003.430786	426.128387
1002.474365	423.438110
1001.517700	384.161926
1000.560913	438.963409
999.603943	381.411652
998.646790	381.343201
997.689514	412.612396
996.731995	394.261292
995.774353	415.074799
994.816528	441.100922
993.858521	412.316162
992.900330	440.942505
991.942017	446.080658
990.983459	349.497498
990.024780	440.704987
989.065918	414.553284
988.106873	398.838104
987.147705	414.404358
986.188293	396.088989
985.228760	367.358643
984.269043	411.576141
983.309143	411.502167
982.349060	411.428223
981.388794	385.319183
980.428406	359.219543
979.467834	390.385834
978.507019	429.347229
977.546082	390.245483
976.585022	413.585846
975.623718	421.313599
974.662292	421.237823
973.700623	413.362793
972.738831	413.288452
971.776855	379.429321
970.814758	405.344696
969.852417	376.694946
968.889954	366.237457
967.927246	399.932068
966.964417	405.053101
966.001404	410.172272
965.038208	384.142853
964.074890	360.717896
963.111328	409.950867
962.147644	441.006989
961.183777	459.083466
960.219727	409.729553
959.255493	407.063019
958.291077	409.582031
957.326538	430.242889
956.361755	450.896271
955.396851	380.861023
954.431763	427.420074
953.466492	396.263611
952.501038	406.550201
951.535461	429.778198
950.569641	414.169434
949.603699	411.506714
948.637573	406.257324
947.671265	395.835480
946.704773	395.764160
945.738098	372.416779
944.771240	431.822205
943.804260	423.988495
942.837097	436.836212
941.869751	421.251282
940.902222	390.168579
939.934509	410.765686
938.966614	415.857574
937.998535	374.462585
937.030334	374.395050
936.061951	410.469513
935.093323	456.855347
934.124573	430.966553
933.155640	438.629333
932.186584	435.970520
931.217285	420.416412
930.247864	482.231201
929.278198	438.312897
928.308411	417.611053
927.338440	404.648773
926.368286	430.344910
925.397949	407.079193
924.427429	419.885651
923.456787	383.752563
922.485901	422.309113
921.514893	437.680420
920.543701	368.100006
919.572327	406.638458
918.600769	391.125854
917.629028	442.509857
916.657104	429.568604
915.685059	462.924469
914.712769	439.698792
913.740356	424.194153
912.767761	444.680786
911.794983	413.761108
910.822021	441.950623
909.848877	447.008820
908.875549	426.379639
907.902039	423.734497
906.928406	436.496033
905.954590	438.984283
904.980530	469.705292
904.006348	395.199677
903.031982	449.009338
902.057434	384.795563
901.082703	482.189911
900.107849	407.735809
899.132751	371.767303
898.157532	435.786285
897.182068	417.766571
896.206482	415.128510
895.230713	463.732513
894.254761	450.840637
893.278625	448.197968
892.302307	442.995544
891.325806	445.475586
890.349182	440.275482
889.372314	417.162323
888.395325	470.821930
887.418091	406.777924
886.440735	414.377960
885.463196	432.204926
884.485474	450.025421
883.507568	447.387451
882.529480	416.634003
881.551270	467.670044
880.572815	454.809814
879.594238	439.399536
878.615417	418.886475
877.636475	423.918060
876.657349	487.672791
875.677979	464.609253
874.698486	469.629761
873.718811	444.025940
872.739014	456.702545
871.758972	466.823578
870.778748	502.445801
869.798401	459.004333
868.817810	451.272461
867.837097	471.583466
866.856140	430.719757
865.875061	420.448975
864.893799	463.683899
863.912354	483.977844
862.930725	481.343292
861.948914	509.265625
860.966919	425.159668
859.984741	468.354431
859.002441	463.179596
858.019897	442.739746
857.037231	473.187653
856.054321	478.188934
855.071289	465.386688
854.088074	462.759613
853.104614	452.506958
852.121033	470.216827
851.137268	449.801483
850.153320	442.097473
849.169189	408.992950
848.184937	462.255951
847.200439	441.856781
846.215759	413.848145
845.230896	413.773010
844.245911	441.616150
843.260681	466.911591
842.275330	449.067078
841.289795	408.399261
840.304016	481.874329
839.318115	451.358154
838.332031	458.881927
837.345764	433.450592
836.359314	466.318237
835.372681	435.826965
834.385864	458.548523
833.398865	428.069733
832.411743	455.849396
831.424377	458.298584
830.436829	397.457458
829.449158	445.476410
828.461243	442.864777
827.473206	463.025818
826.484924	440.174011
825.496521	465.386719
824.507935	442.542755
823.519104	399.480225
822.530151	424.686554
821.541016	454.938538
820.551697	464.963684
819.562195	457.299561
818.572510	477.424835
817.582642	441.979584
816.592590	459.575134
815.602356	451.917480
814.611938	444.262573
813.621399	504.751984
812.630615	434.007690
811.639648	449.065735
810.648560	451.506378
809.657227	453.946106
808.665771	441.256165
807.674072	431.091797
806.682251	403.287292
805.690186	420.854462
804.697998	456.052612
803.705566	453.450378
802.713013	470.998749
801.720276	377.737671
800.727356	433.060303
799.734253	440.533417
798.740906	463.105011
797.747437	480.635559
796.753784	490.611816
795.759949	437.696930
794.765930	450.192352
793.771729	455.139465
792.777344	460.084747
791.782776	447.432556
790.788025	454.890625
789.793091	447.269440
788.798035	452.212463
787.802734	444.594513
786.807251	452.047577
785.811584	441.921478
784.815796	484.518677
783.819763	446.780273
782.823547	456.736969
781.827148	391.417419
780.830627	439.009949
779.833862	428.897156
778.836975	406.249481
777.839844	391.131836
776.842529	368.499268
775.845093	413.546143
774.847412	420.988312
773.849609	403.373505
772.851563	443.379364
771.853394	455.820953
770.854980	440.713440
769.856445	413.093384
768.857666	455.571350
767.858765	432.964020
766.859680	442.893829
765.860352	437.809418
764.860901	432.726837
763.861206	472.661438
762.861389	427.567963
761.861389	439.989532
760.861145	397.417938
759.860779	459.820984
758.860168	437.249847
757.859436	424.679352
756.858521	409.615814
755.857361	419.529755
754.856079	434.433533
753.854614	409.391235
752.852905	436.770538
751.851074	424.213806
750.848999	444.095612
749.846802	453.992249
748.844421	468.873260
747.841797	448.839111
746.839050	448.757019
745.836121	423.748566
744.832947	431.147583
743.829651	453.494263
742.826111	460.885101
741.822449	455.819153
740.818604	453.245392
739.814514	453.162445
738.810303	468.016205
737.805847	445.529633
736.801270	430.516846
735.796448	427.949982
734.791504	422.896393
733.786316	430.280487
732.781006	469.989136
731.775452	427.636658
730.769775	472.302856
729.763855	432.450775
728.757751	459.705414
727.751526	469.558960
726.745056	474.440918
725.738403	484.288147
724.731628	459.368683
723.724609	484.110718
722.717407	441.825226
721.710083	429.335724
720.702515	454.069580
719.694763	444.063171
718.686829	458.863861
717.678711	456.299866
716.670410	493.407745
715.661987	471.006470
714.653320	480.834229
713.644470	423.750397
712.635437	458.359375
711.626221	440.935181
710.616821	408.657074
709.607178	500.203583
708.597412	460.499023
707.587463	396.055542
706.577332	443.005859
705.567017	435.501251
704.556458	475.005127
703.545776	440.288544
702.534912	435.261597
701.523804	435.181702
700.512573	437.574005
699.501099	504.230042
698.489502	469.539825
697.477661	434.862305
696.465698	417.489990
695.453491	439.642456
694.441101	409.928345
693.428589	446.888000
692.415833	436.931763
691.402893	426.979187
690.389771	421.965485
689.376465	436.691071
688.362976	416.877045
687.349304	431.598114
686.335449	429.053009
685.321411	411.716583
684.307190	416.570770
683.292725	446.067780
682.278137	453.377838
681.263367	465.612305
680.248352	492.620880
679.233215	482.679718
678.217834	470.279999
677.202332	470.193542
676.186584	479.952271
675.170654	440.490570
674.154541	430.568024
673.138306	445.248444
672.121826	472.220886
671.105164	496.724335
670.088318	440.085663
669.071289	444.920959
668.054016	444.839111
667.036621	430.013947
666.019043	474.156677
665.001282	449.506256
663.983276	439.600067
662.965149	446.885406
661.946777	407.523773
660.928223	461.447998
659.909546	427.006226
658.890625	485.814209
657.871521	483.271606
656.852234	443.939362
655.832764	419.335114
654.813110	424.161499
653.793274	463.304962
652.773254	458.317841
651.752991	443.530762
650.732605	455.699036
649.711975	492.358246
648.691223	377.160187
647.670227	401.577118
646.649048	460.259674
645.627747	472.413574
644.606201	462.537354
643.584473	462.452118
642.562561	489.277130
641.540466	479.403198
640.518127	484.205811
639.495667	459.666199
638.473022	459.581451
637.450134	471.717377
636.427063	469.186707
635.403870	442.224670
634.380432	442.143097
633.356812	427.407593
632.333008	456.631287
631.309021	466.312775
630.284851	463.785767
629.260498	449.057068
628.235901	468.494812
627.211182	456.210236
626.186218	468.321930
625.161133	492.622772
624.135803	490.093597
623.110291	516.819214
622.084595	431.415649
621.058716	467.889893
620.032654	470.239990
619.006409	509.129608
617.979919	460.324066
616.953308	467.544434
615.926453	486.935516
614.899414	533.095947
613.872253	508.659668
612.844849	503.699066
611.817261	484.142975
610.789490	508.377838
609.761475	481.532135
608.733337	440.107147
607.705017	457.043396
606.676453	456.958923
605.647705	503.047943
604.618774	488.376587
603.589722	476.139893
602.560425	493.053711
601.530884	485.677399
600.501221	541.430176
599.471375	514.627686
598.441284	507.251434
597.411011	497.451263
596.380615	465.819397
595.349976	470.584625
594.319153	521.427734
593.288147	458.286591
592.256897	465.474854
591.225525	448.421448
590.193970	491.960602
589.162170	489.446564
588.130188	518.426636
587.098022	481.999115
586.065674	474.644928
585.033142	491.505554
584.000427	462.365417
582.967468	457.439209
581.934387	457.354523
580.901062	469.366943
579.867554	517.659424
578.833862	505.470947
577.799988	454.597809
576.765930	485.942749
575.731628	502.772980
574.697205	478.512543
573.662537	432.514526
572.627747	468.671936
571.592712	473.415863
570.557434	497.477539
569.522034	490.141907
568.486450	449.012299
567.450623	489.960236
566.414673	511.587769
565.378479	453.588104
564.342102	446.267242
563.305542	475.126221
562.268799	523.265320
561.231812	494.237366
560.194702	537.534119
559.157349	535.024414
558.119812	530.106018
557.082092	532.416870
556.044189	529.909424
555.006042	517.769958
553.967773	491.188263
552.929260	541.651245
551.890625	491.006012
550.851746	517.385803
549.812683	449.921814
548.773376	490.732727
547.733948	507.477386
546.694275	531.429810
545.654419	557.777466
544.614441	483.157166
543.574158	497.487396
542.533752	480.574890
541.493164	509.314819
540.452332	514.024170
539.411316	530.739502
538.370178	554.651794
537.328735	513.737854
536.287170	508.842010
535.245422	491.949219
534.203430	530.246765
533.161255	510.957336
532.118896	513.260803
531.076355	496.379639
530.033630	513.070068
528.990723	489.003937
527.947571	505.689484
526.904236	546.330627
525.860718	546.229126
524.817017	507.802795
523.773132	510.103241
522.729004	543.530090
521.684692	536.247131
520.640198	536.147400
519.595520	559.978394
518.550659	555.088989
517.505615	574.123169
516.460327	526.181702
515.414856	552.388000
514.369202	525.985901
513.323364	475.689636
512.277283	564.029480
511.231079	578.261597
510.184631	563.819580
509.138000	554.160156
508.091187	494.352570
507.044159	561.117065
505.996948	453.584656
504.949554	601.484497
503.901947	520.234924
502.854126	527.295898
501.806152	517.655701
500.757965	577.185913
499.709564	543.693726
