#Wave		#Intensity
3200.600830	29.468966
3200.007080	12.629557
3199.413086	8.418432
3198.819092	16.834320
3198.224854	21.039719
3197.630615	33.658463
3197.036377	4.206672
3196.442139	0.000000
3195.847656	42.054001
3195.252930	12.614292
3194.658447	12.612386
3194.063721	8.406985
3193.468750	33.622856
3192.873779	16.808887
3192.278809	33.612690
3191.683838	4.200951
3191.088623	8.400631
3190.493164	8.399361
3189.897949	20.995226
3189.302490	4.198410
3188.706787	4.197775
3188.111328	12.591420
3187.515381	25.179029
3186.919678	4.195870
3186.323730	-12.585706
3185.727783	-8.389201
3185.131592	12.581898
3184.535400	0.000000
3183.939209	8.385394
3183.342773	20.960312
3182.746338	8.382856
3182.149902	25.144762
3181.553223	4.190159
3180.956543	20.947626
3180.359619	16.755566
3179.762695	-8.376514
3179.165771	-8.375246
3178.568604	12.560967
3177.971436	0.000000
3177.374268	8.371443
3176.776855	-12.555264
3176.179443	0.000000
3175.581787	33.470566
3174.984131	29.282309
3174.386475	8.365108
3173.788574	25.091520
3173.190674	8.362574
3172.592773	29.264576
3171.994629	8.360041
3171.396484	12.538162
3170.798340	12.536263
3170.199951	25.068727
3169.601563	4.177488
3169.002930	4.176856
3168.404297	-4.176223
3167.805664	12.526770
3167.206787	0.000000
3166.607910	8.348649
3166.008789	0.000000
3165.409912	29.211416
3164.810547	20.862135
3164.211426	8.343590
3163.612061	8.342325
3163.012695	20.852652
3162.413086	8.339796
3161.813477	16.677065
3161.213623	-12.505902
3160.614014	8.336004
3160.013916	25.004221
3159.414063	8.333477
3158.813965	-4.166107
3158.213867	12.496426
3157.613525	8.329687
3157.013184	29.149483
3156.412598	29.145063
3155.812256	20.814745
3155.211426	12.486953
3154.610840	12.485059
3154.010010	29.127386
3153.409180	29.122969
3152.808105	12.479379
3152.207031	41.591618
3151.605957	8.317062
3151.004639	16.631599
3150.403320	16.629078
3149.801758	12.469915
3149.200195	20.780039
3148.598633	-4.155377
3147.996826	12.464240
3147.395020	4.154116
3146.793213	4.153486
3146.191162	24.917131
3145.589111	37.370026
3144.986816	37.364353
3144.384766	8.301929
3143.782227	24.902008
3143.179932	16.598818
3142.577393	20.745373
3141.974609	37.336002
3141.371826	16.591259
3140.769043	8.294370
3140.166260	24.879332
3139.563232	0.000000
3138.960205	-4.145296
3138.356934	4.144667
3137.753662	0.000000
3137.150391	24.860447
3136.546875	8.285557
3135.943359	0.000000
3135.339600	33.132160
3134.735840	33.127129
3134.132080	4.140262
3133.528076	12.418899
3132.924072	12.417012
3132.320068	20.691875
3131.715820	-8.275493
3131.111572	16.548471
3130.507080	16.545956
3129.902588	0.000000
3129.298096	12.405696
3128.693604	-4.134604
3128.088867	24.803850
3127.483887	24.800079
3126.878906	28.929029
3126.273926	-8.264180
3125.668945	8.262924
3125.063721	28.915838
3124.458252	20.651030
3123.853027	20.647890
3123.247559	20.644751
3122.641846	28.898256
3122.036133	20.638474
3121.430420	8.254134
3120.824707	24.758636
3120.218750	8.251624
3119.612549	12.375553
3119.006592	24.747341
3118.400391	24.743578
3117.793945	24.739815
3117.187500	20.613377
3116.581055	24.732288
3115.974609	32.971367
3115.367920	28.845558
3114.760986	16.480667
3114.154297	16.478161
3113.547363	16.475653
3112.940186	8.236573
3112.333008	12.352980
3111.725830	16.468132
3111.118408	20.582033
3110.510986	16.463121
3109.903564	12.345461
3109.295898	12.343582
3108.688232	8.227802
3108.080566	32.906200
3107.472656	4.112648
3106.864746	37.008202
3106.256592	16.445585
3105.648438	0.000000
3105.040039	4.110145
3104.431885	12.328556
3103.823486	24.653358
3103.214844	4.108267
3102.606201	36.968777
3101.997559	8.214032
3101.388672	16.425562
3100.779785	20.528826
3100.170898	28.735979
3099.561768	-4.104515
3098.952637	0.000000
3098.343262	16.413055
3097.733887	8.205277
3097.124512	12.306042
3096.514893	12.304167
3095.905273	32.806110
3095.295410	-4.100139
3094.685791	16.398056
3094.075684	28.692226
3093.465820	8.196529
3092.855713	20.488201
3092.245361	4.097016
3091.635254	20.481956
3091.024658	24.574600
3090.414307	24.570854
3089.803711	28.661627
3089.193115	32.751152
3088.582275	24.559618
3087.971436	12.277937
3087.360596	4.092022
3086.749512	24.548386
3086.138428	-4.090774
3085.527100	4.090150
3084.915771	8.179052
3084.304443	12.266707
3083.692871	24.529675
3083.081299	32.701244
3082.469482	12.261096
3081.857910	16.345634
3081.245850	4.085785
3080.634033	24.510971
3080.021973	20.422693
3079.409668	12.251746
3078.797607	16.333170
3078.185059	20.413345
3077.572754	-4.082047
3076.960205	28.569963
3076.347656	12.242401
3075.734863	32.641422
3075.122070	16.318220
3074.509033	16.315729
3073.895996	32.626480
3073.282959	20.388435
3072.669922	28.539454
3072.056641	20.382212
3071.443115	28.530741
3070.829834	12.225594
3070.216064	28.522030
3069.602539	-4.073954
3068.988770	20.366657
3068.375000	12.218128
3067.760986	32.576698
3067.146973	24.428793
3066.532715	24.425062
3065.918701	28.491554
3065.304199	16.278402
3064.689941	28.482851
3064.075439	4.068357
3063.460693	24.406414
3062.846191	24.402685
3062.231445	4.066493
3061.616455	8.131743
3061.001465	20.326252
3060.386475	24.387775
3059.771240	40.640083
3059.156006	52.824032
3058.540771	28.439363
3057.925293	12.186436
3057.309814	28.430672
3056.694092	4.060904
3056.078369	12.180849
3055.462646	16.238649
3054.846680	16.236166
3054.230713	48.701054
3053.614502	0.000000
3052.998291	36.514622
3052.382080	28.395920
3051.765625	16.223759
3051.149170	20.276598
3050.532715	28.382896
3049.916016	24.324476
3049.299316	8.106918
3048.682373	12.158519
3048.065430	32.417755
3047.448486	12.154799
3046.831299	24.305880
3046.214111	16.201441
3045.596680	32.397926
3044.979248	28.343849
3044.361816	8.097004
3043.744141	36.430943
3043.126465	24.283577
3042.508545	36.419792
3041.890869	36.414219
3041.272705	12.136216
3040.654785	28.313503
3040.036621	20.220837
3039.418213	24.261290
3038.799805	20.214647
3038.181396	32.338482
3037.562988	44.458607
3036.944336	32.328583
3036.325439	36.364090
3035.706543	32.318687
3035.087646	36.352955
3034.468750	24.231592
3033.849609	28.265863
3033.230469	24.224173
3032.611084	32.293949
3031.991699	20.180628
3031.372070	4.035508
3030.752441	24.209337
3030.132813	16.137085
3029.513184	20.168268
3028.893066	20.165178
3028.273193	20.162088
3027.653076	8.063601
3027.032959	28.218277
3026.412598	4.030565
3025.792480	32.239578
3025.171875	20.146648
3024.551270	28.200987
3023.930664	48.337139
3023.310059	12.082433
3022.689209	32.214882
3022.068115	12.078730
3021.447266	8.051252
3020.826172	32.200073
3020.204834	32.195137
3019.583496	36.213978
3018.962158	16.092634
3018.340576	52.293041
3017.718994	44.241173
3017.097412	44.234390
3016.475586	36.186226
3015.853760	28.140526
3015.231689	32.155670
3014.609619	36.169582
3013.987549	36.164036
3013.365234	28.123268
3012.742920	40.169937
3012.120361	32.131020
3011.497803	24.094568
3010.875244	48.181744
3010.252441	20.072647
3009.629639	32.111309
3009.006836	24.079786
3008.383789	24.076092
3007.760498	32.096531
3007.137451	28.080154
3006.514160	20.054176
3005.890625	28.071537
3005.267090	52.124855
3004.643555	32.071911
3004.019775	24.050241
3003.395996	36.069824
3002.772217	40.071430
3002.148193	20.032640
3001.524170	48.070953
3000.899902	48.063576
3000.275635	20.023415
2999.651367	24.024408
2999.026855	36.031082
2998.402344	12.008516
2997.777588	20.011120
2997.152832	32.012875
2996.528076	16.003979
2995.903076	60.005707
2995.278076	35.997894
2994.653076	15.996607
2994.027832	39.985374
2993.402344	31.983385
2992.777100	19.986546
2992.151367	35.970253
2991.525879	23.976484
2990.900146	31.963736
2990.274414	35.953678
2989.648438	23.965435
2989.022461	23.961752
2988.396240	39.930119
2987.770264	59.885971
2987.143799	35.926060
2986.517578	47.894051
2985.891113	39.905575
2985.264404	19.949720
2984.637695	47.871971
2984.010986	31.909740
2983.384033	23.928627
2982.757080	27.912439
2982.130127	23.921268
2981.502930	63.780243
2980.875732	27.899567
2980.248291	47.820473
2979.620850	31.875412
2978.993408	23.902884
2978.365723	23.899206
2977.738037	27.878120
2977.110107	39.819759
2976.482178	59.720451
2975.854248	35.826759
2975.226074	43.781525
2974.597900	39.795265
2973.969482	43.768055
2973.341309	43.761322
2972.712646	31.821518
2972.083984	59.656166
2971.455322	47.717590
2970.826660	11.927562
2970.197754	23.851452
2969.568604	51.670193
2968.939697	55.636261
2968.310547	31.787254
2967.681152	35.755157
2967.051758	39.721836
2966.422363	51.630440
2965.792725	27.796726
2965.163086	67.495941
2964.533203	59.546074
2963.903564	35.722141
2963.273438	51.590706
2962.643311	67.454384
2962.013184	43.640232
2961.383057	31.733461
2960.752686	27.762503
2960.122314	51.550995
2959.491699	55.507904
2958.861084	43.606636
2958.230225	71.345322
2957.599609	43.593201
2956.968506	55.473709
2956.337646	79.235947
2955.706299	102.990860
2955.075195	75.250954
2954.443848	83.159294
2953.812500	47.512276
2953.180908	55.422443
2952.549316	55.413902
2951.917725	51.447838
2951.285889	79.138321
2950.653809	31.650450
2950.021973	59.335445
2949.389893	59.326298
2948.757568	75.135063
2948.125244	79.077347
2947.492920	67.205383
2946.860352	67.195015
2946.227783	55.328541
2945.595215	90.882874
2944.962402	102.721321
2944.329590	94.805061
2943.696533	94.790436
2943.063477	86.877831
2942.430420	138.193420
2941.797119	90.798813
2941.163574	142.097961
2940.530273	130.236374
2939.896729	138.108170
2939.262939	118.360168
2938.629150	138.065567
2937.995361	177.485474
2937.361328	185.345123
2936.727295	173.487808
2936.093262	153.749557
2935.458984	153.725830
2934.824707	177.348587
2934.190186	204.904510
2933.555664	204.872894
2932.921143	196.962753
2932.286377	228.441528
2931.651367	232.344299
2931.016602	224.433578
2930.381592	224.398926
2929.746338	255.854004
2929.111084	232.200851
2928.475830	259.710022
2927.840332	212.457199
2927.204834	259.629822
2926.569336	263.522888
2925.933594	255.617050
2925.297607	263.441498
2924.661865	255.538101
2924.025879	290.875366
2923.389648	231.878326
2922.753418	275.067383
2922.117188	243.593475
2921.480713	263.197449
2920.844238	294.578491
2920.207764	247.407684
2919.571045	321.972961
2918.934082	239.479446
2918.297363	231.591873
2917.660156	266.878204
2917.023193	282.533234
2916.385986	262.872253
2915.748779	239.294464
2915.111328	290.246765
2914.473877	282.358612
2913.836182	235.262466
2913.198486	250.907837
2912.560791	305.746643
2911.922852	274.345612
2911.284912	305.652130
2910.646729	305.604858
2910.008545	285.970581
2909.370361	321.177551
2908.731934	340.708862
2908.093506	301.500275
2907.455078	336.688507
2906.816406	340.550812
2906.177490	360.066986
2905.538574	336.532288
2904.899658	375.605835
2904.260498	355.987946
2903.621338	367.666931
2902.982178	406.717499
2902.342773	332.361908
2901.703369	355.767700
2901.063721	429.982300
2900.424072	383.015869
2899.784424	379.048889
2899.144531	464.946747
2898.504639	398.464111
2897.864502	402.308350
2897.224365	402.246063
2896.583984	417.802612
2895.943848	472.395233
2895.303223	433.287201
2894.662842	472.248962
2894.021973	440.957611
2893.381348	491.611115
2892.740479	526.644653
2892.099609	487.558411
2891.458496	460.183868
2890.817383	499.105194
2890.176025	510.723877
2889.534668	514.542847
2888.893311	533.950378
2888.251709	584.526611
2887.610107	561.058655
2886.968262	510.328461
2886.326416	580.359985
2885.684570	630.897644
2885.042480	595.755493
2884.400391	607.342834
2883.758057	638.389709
2883.115723	688.886963
2882.473389	673.214600
2881.830811	801.507019
2881.188232	840.284851
2880.545410	956.842773
2879.902588	960.583435
2879.259766	1073.198120
2878.616699	995.275818
2877.973633	1022.331909
2877.330322	932.781799
2876.687012	889.891357
2876.043457	777.077148
2875.399902	656.528381
2874.756348	706.920959
2874.112549	629.139771
2873.468750	590.212402
2872.824707	481.414398
2872.180664	477.457977
2871.536621	489.027435
2870.892334	504.473846
2870.248047	446.196106
2869.603760	481.041168
2868.958984	496.481598
2868.314453	484.770081
2867.669678	449.796844
2867.024902	507.881409
2866.379883	472.915405
2865.734863	453.463257
2865.089844	461.143188
2864.444580	515.315308
2863.799316	468.747955
2863.153809	457.055176
2862.508301	480.220703
2861.862549	514.995483
2861.216797	487.814728
2860.571045	507.093719
2859.925049	549.588806
2859.279053	514.675781
2858.632813	541.679871
2857.986572	537.727234
2857.340332	556.983398
2856.693848	587.835632
2856.047363	634.145203
2855.400635	630.180603
2854.753906	606.889526
2854.107178	653.174500
2853.460205	629.887024
2852.813232	691.608948
2852.166016	703.090942
2851.518799	745.469604
2850.871338	787.835144
2850.223877	783.851379
2849.576416	818.476196
2848.928711	887.831482
2848.281006	930.148438
2847.633301	933.862854
2846.985352	887.417664
2846.337158	979.865479
2845.688965	910.284668
2845.040771	967.991272
2844.392578	1079.663086
2843.743896	1025.520508
2843.095459	955.975708
2842.446777	975.097839
2841.798096	894.021851
2841.149170	836.088684
2840.500244	797.435242
2839.851074	774.200806
2839.202148	712.462036
2838.552734	631.489746
2837.903320	612.141846
2837.253906	573.553101
2836.604492	546.522644
2835.954834	542.589478
2835.304932	415.535828
2834.655029	461.634644
2834.005127	346.172119
2833.354980	373.038574
2832.704834	299.922485
2832.054688	276.808472
2831.404297	269.077454
2830.753906	230.601929
2830.103271	222.880508
2829.452637	199.792816
2828.801758	199.761719
2828.150879	188.207703
2827.500000	157.455414
2826.848877	153.591125
2826.197754	142.049667
2825.546387	165.059052
2824.895020	118.977539
2824.243408	122.796402
2823.591797	122.777283
2822.940186	122.758171
2822.288330	118.903458
2821.636475	111.214951
2820.984619	92.025620
2820.332520	69.008469
2819.680176	84.330551
2819.028076	103.480461
2818.375488	72.808243
2817.723145	76.628319
2817.070557	84.278015
2816.417725	91.925331
2815.764893	88.081390
2815.112061	84.238632
2814.458984	68.911781
2813.805908	91.868057
2813.152832	103.335464
2812.499512	84.186142
2811.845947	87.999069
2811.192383	80.334457
2810.538818	103.271057
2809.885010	84.133675
2809.231201	76.473236
2808.577393	68.815186
2807.923340	84.094337
2807.269287	95.546844
2806.614990	72.604286
2805.960693	76.413643
2805.306152	64.941475
2804.651611	76.389816
2803.997070	84.015694
2803.342285	76.365997
2802.687500	38.177044
2802.032471	64.890854
2801.377441	72.513756
2800.722412	72.502449
2800.067139	80.121788
2799.411621	80.109283
2798.756348	83.910919
2798.100586	38.135376
2797.445068	61.007084
2796.789307	49.560524
2796.133301	99.105576
2795.477539	60.978531
2794.821289	72.400703
2794.165283	57.149532
2793.509033	64.759361
2792.852539	72.366814
2792.196045	64.739151
2791.539551	79.959404
2790.882813	57.104946
2790.226074	102.772858
2789.569092	49.475502
2788.912109	60.883419
2788.255127	57.069294
2787.597900	76.080513
2786.940430	49.444611
2786.283203	72.253914
2785.625488	76.044876
2784.968018	49.421448
2784.310303	53.214787
2783.652588	87.410637
2782.994629	75.997375
2782.336426	68.386955
2781.678467	60.778912
2781.020264	94.952209
2780.361816	56.962425
2779.703369	79.734940
2779.044922	45.555702
2778.386230	56.935730
2777.727539	91.082932
2777.068604	68.301521
2776.409668	56.909042
2775.750732	60.693489
2775.091553	64.476753
2774.432373	53.090206
2773.772949	79.622856
2773.113525	60.655552
2772.453857	49.274933
2771.794189	60.636589
2771.134521	71.994690
2770.474609	79.560638
2769.814697	49.244122
2769.154541	68.173508
2768.494385	71.949677
2767.833984	49.221024
2767.173584	79.498451
2766.513184	68.130875
2765.852539	64.335762
2765.191895	60.541832
2764.531006	71.882179
2763.870117	90.784340
2763.209229	75.641777
2762.548096	52.940964
2761.886719	68.056305
2761.225586	64.265343
2760.563965	64.255280
2759.902588	60.466099
2759.240967	41.563938
2758.579102	68.003067
2757.917236	75.547142
2757.255371	56.651489
2756.593262	79.299667
2755.931152	71.736092
2755.269043	83.049835
2754.606689	64.164825
2753.944092	64.154785
2753.281494	52.825077
2752.618896	79.225212
2751.956055	79.212807
2751.293213	98.057640
2750.630371	94.271423
2749.967285	64.094528
2749.303955	94.241898
2748.640625	52.767197
2747.977295	64.064423
2747.313721	79.126007
2746.650146	75.346291
2745.986572	45.200695
2745.322754	75.322685
2744.658691	86.607521
2743.994873	71.534134
2743.330566	60.229832
2742.666504	75.275490
2742.002197	79.026878
2741.337646	79.014496
2740.673096	86.526123
2740.008545	75.228317
2739.343750	86.499001
2738.678955	94.005920
2738.013916	109.029770
2737.348877	75.181160
2736.683594	60.135498
2736.018311	86.431221
2735.353027	75.145805
2734.687500	97.674225
2734.021973	93.902794
2733.356201	90.132545
2732.690430	116.402954
2732.024658	82.595589
2731.358643	97.597664
2730.692383	86.322853
2730.026367	82.556732
2729.359863	105.055725
2728.693604	127.547653
2728.027100	101.271950
2727.360352	127.507637
2726.693604	97.490540
2726.026855	112.471436
2725.359863	138.693008
2724.692871	123.679756
2724.025635	146.144043
2723.358398	131.134323
2722.691162	131.113739
2722.023682	134.838684
2721.355957	131.072586
2720.688477	123.563332
2720.020508	157.237732
2719.352783	149.726715
2718.684814	145.960632
2718.016602	149.679703
2717.348389	160.880417
2716.680176	134.669434
2716.011719	134.648285
2715.343262	138.366776
2714.674561	138.345047
2714.005859	153.277191
2713.337158	130.825836
2712.668213	127.067993
2711.999023	123.311325
2711.329834	112.083595
2710.660645	112.065987
2709.991455	138.193008
2709.321777	171.780518
2708.652344	156.818451
2707.982666	115.728760
2707.312988	134.373566
2706.643066	111.960381
2705.972900	123.137062
2705.302979	130.579391
2704.632813	123.098358
2703.962402	100.701004
2703.291992	115.601501
2702.621582	130.497299
2701.950928	100.653526
2701.280273	96.910378
2700.609375	119.255562
2699.938477	108.058357
2699.267334	108.041367
2698.596191	108.024376
2697.925049	85.661034
2697.253662	93.095177
2696.582031	89.357315
2695.910645	89.343262
2695.239014	93.051254
2694.567139	89.315155
2693.895264	78.138466
2693.223145	93.007347
2692.551270	78.113884
2691.878906	100.416336
2691.206543	85.526382
2690.534180	70.641113
2689.861816	89.216835
2689.189209	81.769234
2688.516357	55.742973
2687.843506	104.037178
2687.170654	59.440456
2686.497559	81.717766
2685.824463	85.418762
2685.151123	63.125668
2684.477783	81.679184
2683.804199	77.954216
2683.130615	96.499550
2682.457031	81.640610
2681.783203	96.469162
2681.109375	74.195366
2680.435303	74.183678
2679.761230	100.132195
2679.086914	96.408409
2678.412598	74.148636
2677.738281	96.378044
2677.063721	92.656593
2676.389160	85.230644
2675.714355	77.807022
2675.039551	81.499275
2674.364502	74.078575
2673.689453	55.550179
2673.014404	74.055237
2672.339111	88.852280
2671.663574	92.539871
2670.988037	74.020233
2670.312500	59.206852
2669.636719	88.796280
2668.960938	77.684502
2668.285156	77.672256
2667.609131	85.056206
2666.932861	85.042793
2666.256592	66.544739
2665.580322	81.319633
2664.903809	70.219521
2664.227295	84.989174
2663.550781	118.227158
2662.874023	114.514503
2662.197021	73.868675
2661.520020	92.321274
2660.843018	99.691254
2660.165771	95.983841
2659.488525	73.822083
2658.811035	59.048347
2658.133545	99.628365
2657.455811	73.787148
2656.778076	84.841835
2656.100342	92.204834
2655.422363	84.815063
2654.744385	121.671974
2654.066162	66.356056
2653.387939	77.403183
2652.709473	81.076248
2652.031006	84.748154
2651.352539	73.682419
2650.673828	92.088486
2649.994873	95.756905
2649.316162	92.059410
2648.636963	92.044876
2647.958008	84.667915
2647.278809	77.293282
2646.599365	62.560875
2645.919922	73.589409
2645.240479	88.293343
2644.560791	55.174625
2643.880859	102.976364
2643.201172	66.188637
2642.520996	80.884445
2641.841064	91.899620
2641.160889	62.481873
2640.480469	69.821648
2639.800049	69.810616
2639.119629	77.146912
2638.438965	80.807808
2637.758301	55.087524
2637.077393	84.454193
2636.396484	84.440849
2635.715332	69.744461
2635.034180	66.063255
2634.353027	91.740021
2633.671631	51.366291
2632.989990	62.363491
2632.308350	69.689354
2631.626709	69.678337
2630.944824	80.667427
2630.262939	76.988548
2629.581055	95.304085
2628.898926	102.618942
2628.216553	54.965740
2627.534180	80.603668
2626.851807	73.264473
2626.169189	69.590240
2625.486572	21.972391
2624.803711	76.891205
2624.120850	73.218132
2623.437988	80.527206
2622.754883	62.215725
2622.071533	65.865051
2621.388184	80.488991
2620.704834	87.792282
2620.021240	87.778389
2619.337646	54.852814
2618.653809	84.094337
2617.969971	109.670906
2617.286133	76.757484
2616.602051	69.436256
2615.917725	91.349030
2615.233398	62.107510
2614.549072	80.361702
2613.864502	62.087845
2613.179932	62.078014
2612.495117	62.068188
2611.810303	69.359344
2611.125488	87.597931
2610.440430	80.285385
2609.755127	83.921432
2609.069824	65.667236
2608.384521	91.190056
2607.698975	69.293465
2607.013428	91.161171
2606.327637	91.146729
2605.641846	80.196411
2604.956055	76.538994
2604.270020	102.035828
2603.583740	72.871185
2602.897461	102.003494
2602.211182	61.920879
2601.524658	80.120209
2600.838135	69.183754
2600.151367	61.891445
2599.464600	80.082115
2598.777832	65.511345
2598.090820	98.251442
2597.403564	80.044044
2596.716309	90.944717
2596.029053	83.655876
2595.341553	69.096077
2594.654053	65.449059
2593.966309	69.074165
2593.278564	69.063210
2592.590820	94.492561
2591.902832	76.308815
2591.214600	72.663536
2590.526367	79.917213
2589.838135	87.168587
2589.149658	72.628967
2588.461182	87.140930
2587.772461	50.824146
2587.083740	65.334961
2586.394775	101.616043
2585.705811	90.714211
2585.016846	83.443832
2584.327637	87.058006
2583.638184	76.163673
2582.948975	97.909180
2582.259277	83.390877
2581.569824	76.127411
2580.879883	94.238029
2580.190186	90.599106
2579.500244	94.208107
2578.810059	79.701897
2578.119873	57.955814
2577.429688	68.811607
2576.739258	57.937412
2576.048584	61.548725
2575.358154	86.878525
2574.667236	76.006638
2573.976563	61.519409
2573.285645	68.746063
2572.594482	101.293900
2571.903320	75.958359
2571.212158	75.946297
2570.520752	57.854649
2569.829102	61.460800
2569.137451	54.221500
2568.445801	93.969002
2567.753906	57.817890
2567.062012	36.130440
2566.370117	57.799519
2565.677979	68.626022
2564.985596	61.392471
2564.293213	61.382713
2563.600830	64.983131
2562.908203	50.534401
2562.215332	79.398575
2561.522705	79.385956
2560.829590	61.333942
2560.136719	90.182632
2559.443604	82.954826
2558.750244	54.092373
2558.056885	46.872601
2557.363525	75.705238
2556.669922	97.319832
2555.976074	46.850243
2555.282227	39.636208
2554.588379	72.054367
2553.894287	36.021454
2553.200195	72.031448
2552.505859	82.822990
2551.811523	36.004265
2551.117188	57.597660
2550.422607	82.783463
2549.727783	97.165123
2549.032959	89.953392
2548.338135	68.353699
2547.643066	68.342819
2546.947998	68.331940
2546.252686	68.321068
2545.557373	79.096008
2544.861816	86.272820
2544.166260	71.882576
2543.470703	53.903347
2542.774902	75.452675
2542.078857	82.625481
2541.382813	57.469444
2540.686768	61.051563
2539.990479	53.860447
2539.294189	64.622246
2538.597656	53.843292
2537.901123	53.834717
2537.204346	57.414555
2536.507568	71.756760
2535.810791	75.332596
2535.113770	46.627033
2534.416504	68.136345
2533.719238	93.224358
2533.021973	82.454559
2532.324463	68.103783
2531.626953	86.012123
2530.929199	68.082085
2530.231445	53.740444
2529.533447	82.388885
2528.835449	68.049538
2528.137451	57.295738
2527.439209	46.545364
2526.740723	68.016998
2526.042236	75.164696
2525.343750	75.152718
2524.645020	93.031380
2523.946289	67.973633
2523.247314	67.962791
2522.548340	103.716141
2521.849121	85.820358
2521.149902	75.080841
2520.450684	85.792992
2519.751221	60.760342
2519.051514	85.765625
2518.351807	64.313957
2517.652100	75.020981
2516.952148	50.006008
2516.252197	74.997047
2515.552002	82.126511
2514.851807	74.973114
2514.151367	74.961151
2513.450928	74.949188
2512.750244	67.800346
2512.049561	57.085918
2511.348877	78.480606
2510.647949	82.034813
2509.946777	82.021721
2509.245605	57.049480
2508.544434	49.910324
2507.843018	64.160172
2507.141602	85.533241
2506.439941	57.013054
2505.738281	85.505928
2505.036377	89.054451
2504.334473	71.232185
2503.632568	71.220810
2502.930420	89.011787
2502.228027	81.877769
2501.525635	49.830681
2500.823242	64.057785
2500.120605	67.605751
2499.417969	64.037315
2498.715088	64.027084
2498.012207	92.468796
2497.309082	74.674400
2496.605957	74.662468
2495.902588	103.088837
2495.199219	67.530167
2494.495605	81.733978
2493.791992	71.061668
2493.088379	95.917915
2492.384521	63.935059
2491.680664	95.887253
2490.976563	95.871925
2490.272461	56.803909
2489.568115	70.993538
2488.863770	63.883965
2488.159180	88.713547
2487.454590	60.315563
2486.749756	63.853325
2486.044922	81.577309
2485.339844	88.656807
2484.634766	85.096924
2483.929688	67.357620
2483.224365	102.792557
2482.519043	99.232109
2481.813477	99.216232
2481.107666	74.400269
2480.402100	70.846062
2479.696045	88.543411
2478.990234	81.446899
2478.284180	38.946632
2477.577881	81.420837
2476.871582	67.249924
2476.165039	95.550385
2475.458496	81.381744
2474.751953	67.217636
2474.045166	70.744080
2473.338379	95.489220
2472.631348	74.257507
2471.924072	81.316628
2471.217041	81.303604
2470.509521	63.618721
2469.802246	67.142342
2469.094482	60.065105
2468.386963	77.718864
2467.679199	84.770638
2466.971191	81.225517
2466.263184	63.557613
2465.554932	88.260323
2464.846680	74.126793
2464.138428	70.585632
2463.429932	77.631760
2462.721436	42.337811
2462.012695	91.717224
2461.303955	88.175507
2460.594971	67.002647
2459.885986	98.724922
2459.176758	84.607796
2458.467529	74.019958
2457.758057	88.104874
2457.048584	73.996231
2456.338867	105.691956
2455.629150	105.675011
2454.919434	70.438713
2454.209473	80.991531
2453.499512	59.853706
2452.789307	84.485802
2452.078857	73.913223
2451.368408	77.420486
2450.657959	102.037903
2449.947266	84.431618
2449.236572	70.348396
2448.525879	66.820259
2447.814697	101.972458
2447.103760	77.346001
2446.392578	87.879089
2445.681152	70.291992
2444.969727	77.308784
2444.258301	87.836792
2443.546631	94.848511
2442.834717	101.857979
2442.122803	66.723831
2441.410889	94.802856
2440.698730	56.170452
2439.986572	91.262337
2439.274170	63.171474
2438.561768	80.706146
2437.849121	94.726791
2437.136475	56.125381
2436.423584	80.667282
2435.710693	84.161041
2434.997803	87.653671
2434.284424	94.650764
2433.571289	91.130547
2432.857910	105.133743
2432.144287	98.109062
2431.430908	98.093307
2430.717041	94.574783
2430.003174	84.052963
2429.289307	87.541107
2428.575195	63.019470
2427.861084	70.010384
2427.146729	80.499008
2426.432373	104.981834
2425.717773	87.470802
2425.003174	80.460205
2424.288330	90.940399
2423.573486	90.925781
2422.858643	76.924835
2422.143555	108.376663
2421.428223	76.900108
2420.712891	62.908154
2419.997559	104.830063
2419.281982	87.344345
2418.566162	94.316727
2417.850586	76.838310
2417.134521	80.318039
2416.418457	94.271233
2415.702393	83.783173
2414.986084	76.788887
2414.269775	76.776543
2413.553223	104.678444
2412.836670	59.308243
2412.120117	83.715813
2411.403076	83.702347
2410.686279	94.149986
2409.969238	90.648369
2409.251953	80.176033
2408.534668	76.677780
2407.817383	94.089409
2407.099854	76.653107
2406.382080	111.477478
2405.664307	104.493317
2404.946533	90.546295
2404.228516	76.603767
2403.510498	93.998581
2402.792236	76.579102
2402.073975	87.007698
2401.355469	80.034195
2400.636963	114.813179
2399.918213	80.008423
2399.199463	104.342010
2398.480469	93.892685
2397.761475	79.969772
2397.042480	69.527733
2396.323242	107.750633
2395.603760	69.505341
2394.884277	86.867676
2394.164795	76.431244
2393.445068	65.998169
2392.725098	97.244781
2392.005127	93.756645
2391.285156	79.853905
2390.564941	59.012939
2389.844727	72.886589
2389.124268	72.874840
2388.403809	58.984413
2387.683105	79.789581
2386.962402	79.776718
2386.241455	79.763855
2385.520508	76.283562
2384.799316	72.804390
2384.078125	79.725288
2383.356689	86.643944
2382.635254	79.699577
2381.913818	79.686729
2381.192139	107.386528
2380.470215	83.124550
2379.748291	103.888931
2379.026367	90.022552
2378.304199	55.389557
2377.581787	69.225777
2376.859375	76.136070
2376.136963	83.044136
2375.414307	69.192276
2374.691650	103.771675
2373.968750	100.296432
2373.245850	82.990547
2372.522705	100.264061
2371.799316	86.420586
2371.076172	89.862907
2370.352783	89.848404
2369.629150	69.102997
2368.905518	89.819397
2368.181641	89.804901
2367.457764	96.697357
2366.733643	82.870064
2366.009521	79.404327
2365.285400	86.295113
2364.561035	93.183670
2363.836426	96.619316
2363.111816	93.153580
2362.387207	93.138535
2361.662354	103.470543
2360.937256	100.005371
2360.212158	75.853889
2359.487061	93.078369
2358.761719	93.063339
2358.036377	113.725700
2357.310791	106.815971
2356.584961	86.127998
2355.859375	82.669518
2355.133301	103.320198
2354.407471	82.642799
2353.681152	89.515228
2352.955078	79.173752
2352.228516	86.044518
2351.502197	75.706932
2350.775635	86.016701
2350.048828	116.963799
2349.322021	85.988892
2348.594971	99.730988
2347.867920	99.714859
2347.140869	61.881973
2346.413330	106.557274
2345.686035	89.356163
2344.958496	85.905495
2344.230713	79.020271
2343.502930	96.183037
2342.775146	85.863815
2342.047119	54.943954
2341.319092	85.836037
2340.590820	58.359066
2339.862305	106.402252
2339.133789	92.657936
2338.405273	85.780502
2337.676514	92.627953
2336.947754	89.182854
2336.218750	92.597969
2335.489746	37.718994
2334.760498	102.853333
2334.031250	78.841461
2333.301758	109.674706
2332.572266	89.096275
2331.842529	99.360527
2331.112793	78.790421
2330.382813	82.202774
2329.652832	92.463150
2328.922607	78.752151
2328.192383	82.162849
2327.462158	119.801414
2326.731689	71.869209
2326.000977	92.388298
2325.270264	68.424690
2324.539307	78.675652
2323.808350	75.242783
2323.077393	78.650162
2322.346191	82.056435
2321.614746	92.298538
2320.883301	82.029846
2320.151855	82.016556
2319.420166	95.670479
2318.688232	92.238724
2317.956299	71.729599
2317.224365	109.284531
2316.492188	92.193878
2315.760010	81.936829
2315.027588	95.577469
2314.295166	92.149048
2313.562500	92.134109
2312.829590	105.766457
2312.096924	81.870430
2311.363770	85.267868
2310.630615	85.254044
2309.897461	88.649826
2309.164063	115.907890
2308.430664	109.072090
2307.697021	119.278244
2306.963379	81.777527
2306.229492	78.357422
2305.495605	91.969872
2304.761719	88.549210
2304.027344	91.940033
2303.293213	102.139015
2302.558838	85.102036
2301.824219	88.491753
2301.089600	88.477394
2300.354736	74.853333
2299.619873	102.056160
2298.885010	88.434319
2298.149658	102.023033
2297.414551	74.804749
2296.679199	105.389572
2295.943604	81.578682
2295.208008	98.558235
2294.472412	84.950203
2293.736572	112.116058
2293.000488	105.304039
2292.264404	88.305176
2291.528320	81.499229
2290.791992	101.857491
2290.055420	108.630341
2289.318848	78.065376
2288.582275	88.233482
2287.845459	84.826103
2287.108398	84.812317
2286.371582	91.582420
2285.634277	98.350319
2284.896973	84.770981
2284.159668	111.879517
2283.422119	125.420280
2282.684570	118.621521
2281.946777	98.270432
2281.208740	74.537865
2280.470703	111.788620
2279.732666	81.287598
2278.994385	77.887955
2278.256104	81.261169
2277.517578	77.862625
2276.779053	108.312996
2276.040283	91.374229
2275.301514	118.428818
2274.562500	108.260162
2273.823486	94.712234
2273.084229	81.168716
2272.344971	91.299950
2271.605469	94.666031
2270.865967	81.129112
2270.126221	94.635231
2269.386475	111.516228
2268.646484	91.225708
2267.906494	84.454506
2267.166260	84.440758
2266.426025	108.066582
2265.685547	114.802063
2264.945068	81.023560
2264.204346	91.136665
2263.463623	107.996246
2262.722656	91.107002
2261.981689	114.708656
2261.240723	101.197044
2260.499268	104.553253
2259.758057	84.303413
2259.016602	104.519211
2258.274902	117.986343
2257.533203	97.744194
2256.791260	138.167557
2256.049316	111.189919
2255.307129	90.958755
2254.564941	107.785408
2253.822754	111.135597
2253.080322	97.648705
2252.337646	90.899498
2251.594971	111.081291
2250.852051	107.697639
2250.109131	114.410095
2249.366211	117.755905
2248.623047	80.733749
2247.879639	104.264099
2247.136230	90.795868
2246.392578	87.418800
2245.648926	100.851410
2244.905273	127.724297
2244.161377	104.179146
2243.417236	114.242371
2242.673096	124.302315
2241.928955	107.487175
2241.184570	104.111221
2240.439941	117.525757
2239.695313	107.434601
2238.950439	100.703514
2238.205566	114.112030
2237.460693	117.449104
2236.715576	110.719666
2235.970215	134.183762
2235.224854	124.099731
2234.479492	110.665489
2233.733887	114.000389
2232.988037	107.276970
2232.242188	113.963188
2231.496338	97.188034
2230.750244	113.925995
2230.003906	97.156311
2229.257568	107.189468
2228.511230	130.615845
2227.764648	100.457321
2227.017822	100.440926
2226.270996	93.729561
2225.523926	110.448944
2224.776855	103.738129
2224.029785	107.067039
2223.282471	103.704254
2222.534912	120.411079
2221.787354	100.326180
2221.039795	123.715416
2220.291992	110.322754
2219.543945	106.962166
2218.795898	143.706924
2218.047852	110.268700
2217.299561	106.909752
2216.551025	113.573059
2215.802490	96.855309
2215.053955	110.196655
2214.305176	103.501152
2213.556152	120.175247
2212.807129	86.779045
2212.058105	106.787529
2211.308838	100.096947
2210.559326	100.080582
2209.809814	110.070648
2209.060303	110.052650
2208.310547	86.693977
2207.560547	103.348991
2206.810547	93.332214
2206.060303	119.978943
2205.310059	119.959320
2204.559814	99.949753
2203.809326	99.933411
2203.058594	103.247635
2202.307861	139.861008
2201.557129	109.872818
2200.806152	103.196976
2200.054932	63.239410
2199.303711	109.818901
2198.552246	103.146332
2197.800781	93.149185
2197.049316	99.786369
2196.297607	106.421379
2195.545654	116.379333
2194.793701	83.114494
2194.041504	99.721062
2193.289307	122.969185
2192.537109	122.949059
2191.784668	116.284119
2191.031982	102.977646
2190.279297	96.318153
2189.526367	122.868561
2188.773438	109.567528
2188.020508	112.869278
2187.267090	109.531654
2186.513916	99.557922
2185.760498	152.630478
2185.006836	149.287964
2184.253174	116.093849
2183.499268	129.340530
2182.745361	119.371696
2181.991211	142.559494
2181.237061	96.129028
2180.482666	139.198532
2179.728271	129.234604
2178.973877	139.152924
2178.218994	122.567017
2177.464355	145.731476
2176.709229	145.707596
2175.954346	139.061722
2175.198975	145.659836
2174.443848	125.776512
2173.688232	122.446526
2172.932861	92.647041
2172.177002	129.022934
2171.421387	125.694046
2170.665283	115.751854
2169.909424	122.346176
2169.153076	122.326111
2168.396729	119.000481
2167.640381	112.370911
2166.883789	128.874908
2166.127197	125.549820
2165.370361	132.136032
2164.613525	99.085762
2163.856445	132.092682
2163.099365	115.562134
2162.342041	99.037003
2161.584473	105.622131
2160.826904	108.904953
2160.069336	85.789818
2159.311523	105.570145
2158.553711	125.343971
2157.795654	112.131462
2157.037354	122.005379
2156.279053	118.688454
2155.520752	95.594444
2154.762207	105.466209
2154.003662	105.448891
2153.244873	105.431580
2152.485840	118.591049
2151.726807	108.690613
2150.967773	141.603897
2150.208252	128.410355
2149.448975	98.760971
2148.689453	108.619225
2147.929688	121.765182
2147.169922	98.712311
2146.410156	118.435310
2145.650146	115.126526
2144.889893	108.530029
2144.129639	134.818192
2143.369141	131.508316
2142.608643	141.348221
2141.847900	111.745338
2141.087158	105.154800
2140.326416	128.136353
2139.565186	105.120232
2138.804199	118.240822
2138.042725	137.924942
2137.281494	95.218239
2136.519775	118.182510
2135.758301	101.751541
2134.996338	147.679565
2134.234619	131.249146
2133.472412	114.824112
2132.710449	111.525078
2131.947998	114.786346
2131.185547	111.488396
2130.423096	127.862709
2129.660400	108.173729
2128.897705	117.988289
2128.134766	104.861221
2127.371826	114.673096
2126.608643	144.136734
2125.845215	104.809471
2125.081787	94.967949
2124.318359	127.694504
2123.554688	111.305092
2122.790771	114.559914
2122.026855	140.721863
2121.262939	117.794266
2120.498779	104.688774
2119.734375	147.194351
2118.969971	111.195198
2118.205322	130.796341
2117.440674	120.966698
2116.676025	111.140282
2115.911133	94.780510
2115.145996	120.906944
2114.380859	137.223114
2113.615479	107.800407
2112.850098	146.976334
2112.084473	124.092911
2111.318848	114.277267
2110.552979	117.522972
2109.787109	127.295578
2109.020996	130.538055
2108.254883	120.727798
2107.488525	137.019791
2106.722168	107.640663
2105.955566	143.497223
2105.188965	117.387474
2104.422119	114.107895
2103.655029	114.089088
2102.887939	120.588585
2102.120850	110.792862
2101.353516	94.484215
2100.585938	107.498795
2099.818359	107.481064
2099.050781	91.181023
2098.282959	110.701553
2097.514893	126.960251
2096.746826	126.939308
2095.978760	110.646790
2095.210449	126.897438
2094.441895	126.876503
2093.673340	117.097450
2092.904541	133.338989
2092.135742	110.555550
2091.366699	139.797180
2090.597656	149.525803
2089.828369	149.501129
2089.059082	126.730034
2088.289551	107.215408
2087.520020	123.439796
2086.750244	116.923660
2085.980469	116.904358
2085.210449	133.119095
2084.440186	123.358307
2083.670166	123.337944
2082.899658	110.336777
2082.129150	113.563225
2081.358643	103.812088
2080.587891	100.551353
2079.816895	139.451431
2079.045898	149.155960
2078.274902	132.921387
2077.503662	129.657990
2076.732178	119.913826
2075.960693	116.653641
2075.188965	132.833588
2074.417236	110.136482
2073.645264	129.550919
2072.873291	116.576561
2072.101074	113.319595
2071.328857	123.012375
2070.556396	119.755409
2069.783936	132.680008
2069.011230	100.302444
2068.238525	93.815811
2067.465576	129.379730
2066.692627	126.124382
2065.919434	122.870110
2065.145996	135.781342
2064.372559	119.597122
2063.599121	145.431915
2062.825439	119.557571
2062.051514	151.845322
2061.277588	135.669113
2060.503662	155.024765
2059.729248	142.082535
2058.955078	100.087044
2058.180664	122.667053
2057.406006	135.556946
2056.631348	119.399452
2055.856445	145.191528
2055.081543	141.941559
2054.306396	145.143478
2053.531250	148.344330
2052.755859	138.646759
2051.980225	135.399994
2051.204590	119.261208
2050.428955	119.241463
2049.653076	128.888351
2048.877197	144.975388
2048.101074	125.624535
2047.324707	109.500694
2046.548340	96.602264
2045.771851	132.001236
2044.995239	115.884323
2044.218506	141.612946
2043.441528	119.063889
2042.664551	106.174522
2041.887329	109.373817
2041.110107	119.004730
2040.332642	147.927322
2039.555176	128.611145
2038.777466	118.945595
2037.999634	125.354309
2037.221802	115.692497
2036.443726	118.886475
2035.665527	128.504623
2034.887207	131.695404
2034.108765	128.462021
2033.330200	134.862762
2032.551514	141.261383
2031.772705	115.558342
2030.993774	118.748604
2030.214600	105.893356
2029.435425	131.542664
2028.656128	141.144318
2027.876587	125.084450
2027.097046	105.823135
2026.317261	115.424278
2025.537476	163.490601
2024.757446	153.847992
2023.977295	128.185394
2023.197021	140.980545
2022.416626	140.957153
2021.636230	131.324646
2020.855591	134.505371
2020.074707	147.290955
2019.293823	140.863632
2018.512817	121.634758
2017.731689	108.813042
2016.950439	159.992615
2016.168945	140.770142
2015.387451	137.547974
2014.605713	115.137337
2013.823975	143.897781
2013.041992	140.676682
2012.260010	124.669998
2011.477783	121.453163
2010.695435	137.411026
2009.912964	134.193130
2009.130371	134.170837
2008.347656	130.954544
2007.564819	118.158867
2006.781860	118.139244
2005.998779	146.851410
2005.215576	127.675667
2004.432129	134.037186
2003.648682	127.633247
2002.864990	137.182953
2002.081299	127.590843
2001.297363	124.380402
2000.513428	159.435547
1999.729248	127.527245
1998.944946	143.444305
1998.160522	149.794708
1997.375977	149.769806
1996.591309	124.256416
1995.806519	127.421288
1995.021606	92.365074
1994.236572	130.563400
1993.451416	149.645355
1992.666016	162.354126
1991.880615	143.229813
1991.094971	136.841278
1990.309326	146.363998
1989.523438	146.339661
1988.737549	152.676849
1987.951416	130.389786
1987.165161	143.086929
1986.378784	162.138214
1985.592285	130.324722
1984.805664	143.015533
1984.018921	136.636536
1983.232056	152.499130
1982.444946	123.884926
1981.657837	142.920349
1980.870605	155.598480
1980.083130	158.747543
1979.295654	146.023422
1978.507935	142.825226
1977.720093	133.281342
1976.932129	145.950500
1976.144165	136.409286
1975.355957	142.730133
1974.567627	155.391373
1973.779053	161.706940
1972.990479	126.807854
1972.201782	145.804749
1971.412964	155.287872
1970.623901	129.913116
1969.834839	133.059555
1969.045532	158.377838
1968.256226	104.511963
1967.466675	142.492569
1966.677002	126.638954
1965.887207	129.783295
1965.097290	142.421341
1964.307251	132.904434
1963.517090	136.046158
1962.726807	132.860138
1961.936401	142.326416
1961.145874	142.302704
1960.355103	120.146690
1959.564331	173.867538
1958.773315	145.392242
1957.982178	142.207825
1957.191040	148.503403
1956.399658	139.001282
1955.608154	154.771057
1954.816528	161.061386
1954.024780	173.664673
1953.232910	138.908569
1952.440918	126.259453
1951.648682	151.486069
1950.856445	138.839066
1950.063965	129.351181
1949.271484	160.873398
1948.478760	160.846558
1947.685913	170.279709
1946.893066	138.723267
1946.099976	157.613770
1945.306763	179.649704
1944.513428	151.258713
1943.719971	154.384171
1942.926270	141.757706
1942.132568	144.883682
1941.338745	160.605103
1940.544678	147.983902
1939.750610	163.699539
1938.956299	135.344315
1938.161865	176.232941
1937.367310	154.178070
1936.572632	135.276520
1935.777832	150.981125
1934.982910	179.260147
1934.187866	147.786301
1933.392700	160.337067
1932.597290	163.453629
1931.801880	169.711945
1931.006226	157.114426
1930.210571	141.379364
1929.414673	175.909363
1928.618652	169.598526
1927.822510	178.990753
1927.026245	150.703857
1926.229858	178.930923
1925.433350	163.207947
1924.636719	138.075943
1923.839844	147.465546
1923.042969	185.085388
1922.245850	156.825790
1921.448730	150.527588
1920.651367	172.450684
1919.853882	188.096558
1919.056274	175.527420
1918.258545	153.560806
1917.460693	137.868271
1916.662720	178.572205
1915.864624	162.880722
1915.066284	131.535492
1914.267944	156.563675
1913.469360	165.929733
1912.670776	197.204224
1911.871948	169.003906
1911.072998	184.621521
1910.273926	140.789459
1909.474731	197.072250
1908.675415	150.125153
1907.875977	178.243774
1907.076294	175.087372
1906.276611	190.688248
1905.476807	137.522598
1904.676758	181.249435
1903.876587	168.721222
1903.076294	159.321136
1902.275879	162.417877
1901.475342	165.513565
1900.674683	171.730591
1899.873901	127.995911
1899.072998	171.673065
1898.271851	174.765121
1897.470703	149.773575
1896.669312	171.586807
1895.867920	174.677292
1895.066284	146.579590
1894.264526	180.855148
1893.462646	190.177841
1892.660645	143.388763
1891.858521	193.230728
1891.056152	171.385620
1890.253784	155.778992
1889.451172	174.443237
1888.648560	208.673874
1887.845703	174.384750
1887.042725	180.582489
1886.239624	174.326279
1885.436401	183.634384
1884.633057	152.484329
1883.829590	158.681564
1883.025879	149.322311
1882.222168	192.842300
1881.418213	130.613190
1880.614258	167.903076
1879.810059	170.983704
1879.005737	183.388123
1878.201294	195.788361
1877.396729	180.219345
1876.592041	198.829361
1875.787231	189.477432
1874.982178	161.494644
1874.177124	183.203552
1873.371826	173.858932
1872.566406	180.037949
1871.760986	189.318481
1870.955322	217.214233
1870.149536	179.947296
1869.343506	161.304977
1868.537476	189.191360
1867.731323	186.058624
1866.924927	164.324188
1866.118530	179.796265
1865.311890	151.871338
1864.505127	198.329239
1863.698242	213.787796
1862.891235	185.871201
1862.084106	201.326645
1861.276855	195.099197
1860.469482	176.488663
1859.661865	185.746323
1858.854126	173.334106
1858.046387	198.062836
1857.238403	198.029541
1856.430298	173.246735
1855.622070	170.124435
1854.813721	188.651764
1854.005249	194.804306
1853.196533	185.496719
1852.387817	200.921005
1851.578857	188.524933
1850.769775	185.403183
1849.960693	166.834808
1849.151367	194.607864
1848.341919	188.398148
1847.532227	179.102539
1846.722534	169.810059
1845.912720	172.868423
1845.102661	182.098602
1844.292603	182.067963
1843.482300	197.464233
1842.671875	194.346146
1841.861328	172.723068
1841.050659	197.364578
1840.239868	215.831177
1839.428833	215.794846
1838.617798	206.511734
1837.806519	200.313492
1836.995117	169.467499
1836.183716	203.326767
1835.372070	212.533112
1834.560303	209.417664
1833.748291	181.670029
1832.936279	172.403534
1832.124146	190.843201
1831.311768	193.888657
1830.499390	184.624771
1829.686768	187.670242
1828.874023	178.410492
1828.061157	190.682541
1827.248169	206.025467
1826.434937	181.394836
1825.621704	169.068405
1824.808228	199.774445
1823.994751	187.449051
1823.181030	165.910538
1822.367188	168.954483
1821.553223	190.425674
1820.739136	205.747910
1819.924927	184.220795
1819.110474	174.980270
1818.296021	220.990448
1817.481323	208.678009
1816.666626	211.711105
1815.851685	196.336609
1815.036621	174.832809
1814.221436	196.270416
1813.406006	217.700775
1812.590576	202.335602
1811.774902	177.780090
1810.959229	211.461334
1810.143311	217.553940
1809.327271	183.817383
1808.511108	214.417435
1807.694824	226.631622
1806.878418	208.220947
1806.061768	211.247375
1805.245117	214.272766
1804.428223	217.297134
1803.611206	177.480377
1802.794067	198.866852
1801.976807	189.656372
1801.159424	195.741272
1800.341919	162.070877
1799.524170	232.364288
1798.706421	207.869797
1797.888428	217.003876
1797.070313	210.855484
1796.252075	223.041321
1795.433716	195.510056
1794.615234	204.640030
1793.796509	192.390213
1792.977783	198.464310
1792.158813	235.064163
1791.339844	222.815399
1790.520630	189.208496
1789.701294	210.535172
1788.881714	179.992416
1788.062134	204.363632
1787.242432	207.378784
1786.422485	228.687958
1785.602417	182.919449
1784.782349	231.658798
1783.962036	204.191010
1783.141479	216.344940
1782.320923	216.308365
1781.500244	210.179642
1780.679321	188.825134
1779.858398	216.198685
1779.037231	210.073044
1778.215942	182.641327
1777.394531	213.045517
1776.572998	216.052475
1775.751221	194.718597
1774.929443	215.979401
1774.107422	218.984329
1773.285278	206.783539
1772.463013	224.991074
1771.640625	227.992920
1770.818115	215.796783
1769.995483	227.915771
1769.172607	233.953934
1768.349731	188.346619
1767.526611	261.210785
1766.703369	227.761536
1765.880005	224.686676
1765.056519	221.612854
1764.232910	191.222549
1763.409058	221.537827
1762.585083	209.363327
1761.761108	242.698990
1760.936890	209.292435
1760.112549	239.584091
1759.288086	212.253754
1758.463379	221.312851
1757.638672	203.088348
1756.813721	212.145920
1755.988647	227.260696
1755.163574	242.370346
1754.338257	215.067245
1753.512695	230.173828
1752.687134	224.078644
1751.861328	224.040680
1751.035522	242.165100
1750.209473	214.885101
1749.383301	236.030945
1748.557007	226.914368
1747.730591	242.000977
1746.903931	199.616959
1746.077271	229.822983
1745.250366	220.713608
1744.423340	202.538422
1743.596313	196.459183
1742.768921	220.601364
1741.941528	214.521103
1741.114014	220.526550
1740.286255	220.489151
1739.458374	220.451752
1738.630493	223.433731
1737.802368	241.509003
1736.973999	214.302887
1736.145630	196.159500
1735.317139	202.160873
1734.488403	208.160202
1733.659546	247.336807
1732.830566	253.326416
1732.001465	211.069519
1731.172241	229.122314
1730.342896	214.012146
1729.513306	226.030792
1728.683594	232.018890
1727.853882	253.068542
1727.023926	228.927917
1726.193726	201.783768
1725.363525	231.861374
1724.533203	222.789978
1723.702637	273.924927
1722.871948	255.820496
1722.041138	204.621628
1721.210205	231.664551
1720.379150	207.560257
1719.547974	228.578247
1718.716553	225.532318
1717.885010	207.454483
1717.053467	234.473923
1716.221558	210.389557
1715.389648	264.444794
1714.557617	249.377136
1713.725342	225.302490
1712.893066	243.285339
1712.060547	252.253021
1711.227905	240.200134
1710.395142	228.151337
1709.562256	258.127380
1708.729126	264.085419
1707.895874	228.035004
1707.062622	230.996170
1706.229126	224.958023
1705.395508	242.913345
1704.561646	254.865707
1703.727783	212.851624
1702.893677	248.784225
1702.059570	239.751236
1701.225220	221.732162
1700.390747	218.698578
1699.556030	230.642807
1698.721313	203.649902
1697.886353	221.581299
1697.051392	221.543594
1696.216187	248.445801
1695.380859	206.504135
1694.545410	251.353546
1693.709717	236.351791
1692.874023	278.189575
1692.038086	251.225220
1691.202026	245.201920
1690.365845	245.160172
1689.529541	254.086166
1688.692993	251.054169
1687.856445	280.893738
1687.019653	250.968674
1686.182739	230.015442
1685.345703	206.082626
1684.508545	238.895676
1683.671143	262.740479
1682.833740	235.829117
1681.996094	256.681641
1681.158325	247.685410
1680.320435	268.528778
1679.482422	220.752716
1678.644287	247.558823
1677.805908	223.659607
1676.967407	241.511200
1676.128784	265.318939
1675.290039	250.370697
1674.451172	265.228485
1673.612183	265.183289
1672.772949	268.117157
1671.933594	250.200012
1671.094116	220.376709
1670.254517	250.114685
1669.414795	247.094986
1668.574829	241.099762
1667.734863	247.010712
1666.894653	270.772797
1666.054321	267.751587
1665.213867	264.731384
1664.373169	261.712219
1663.532471	261.667572
1662.691528	255.676956
1661.850464	240.770935
1661.009277	264.505646
1660.167969	249.603165
1659.326538	210.938095
1658.484863	240.606613
1657.643066	243.535492
1656.801147	231.616165
1655.959106	225.638763
1655.116943	252.316071
1654.274658	225.561737
1653.432129	240.360275
1652.589478	249.219940
1651.746704	231.378998
1650.903809	252.100723
1650.060791	255.023056
1649.217529	240.155106
1648.374146	228.256607
1647.530640	284.531036
1646.687012	266.702301
1645.843262	234.065353
1644.999390	272.535858
1644.155273	269.527466
1643.311035	260.597382
1642.466675	257.592041
1641.622192	219.063828
1640.777588	263.423615
1639.932739	292.971710
1639.087769	242.621948
1638.242798	254.413681
1637.397461	275.074738
1636.552124	227.711105
1635.706665	272.023895
1634.860962	257.196014
1634.015137	260.107788
1633.169189	233.465927
1632.323120	277.747406
1631.476929	262.928619
1630.630493	262.883636
1629.783936	253.978958
1628.937256	242.124557
1628.090454	262.748779
1627.243530	259.752075
1626.396484	230.195404
1625.549194	262.613922
1624.701782	259.618774
1623.854248	256.624634
1623.006592	268.377533
1622.158691	238.844604
1621.310791	274.182037
1620.462646	256.448975
1619.614380	265.246643
1618.765991	256.361176
1617.917358	282.832886
1617.068726	271.001770
1616.219849	241.503693
1615.370850	256.185638
1614.521729	262.030090
1613.672363	238.435974
1612.822998	241.338287
1611.973389	256.010193
1611.123657	244.197754
1610.273804	255.922470
1609.423828	282.348816
1608.573608	267.597321
1607.723389	296.952728
1606.872925	249.867874
1606.022339	279.216248
1605.171509	258.598083
1604.320679	279.120544
1603.469604	267.322266
1602.618408	264.339355
1601.767090	255.484222
1600.915649	255.440430
1600.064087	278.881378
1599.212280	258.287933
1598.360352	258.243652
1597.508301	293.408356
1596.656128	278.690155
1595.803833	263.976959
1594.951294	325.515747
1594.098633	272.682617
1593.245850	263.841156
1592.392944	255.002686
1591.539795	246.167252
1590.686646	266.635437
1589.833252	254.871460
1588.979736	275.331116
1588.126099	260.641113
1587.272217	260.596375
1586.418335	251.768997
1585.564209	266.361023
1584.709961	272.168365
1583.855591	283.825806
1583.000977	280.851532
1582.146362	274.953247
1581.291504	310.000427
1580.436523	295.327057
1579.581421	266.041077
1578.726074	295.225647
1577.870605	295.174927
1577.015137	280.514130
1576.159424	268.779877
1575.303467	280.417755
1574.447510	251.164429
1573.591309	271.561371
1572.734985	256.917175
1571.878540	274.387085
1571.021973	268.502930
1570.165161	256.784760
1569.308350	277.163177
1568.451294	306.285583
1567.594116	300.399933
1566.736694	291.600281
1565.879272	297.381165
1565.021606	288.585052
1564.163818	253.561432
1563.305908	285.571808
1562.447876	270.955231
1561.589600	235.952682
1560.731201	265.037048
1559.872681	299.935425
1559.014038	279.503357
1558.155273	256.167358
1557.296265	264.854767
1556.437134	302.639099
1555.577881	258.944672
1554.718506	285.081024
1553.859009	255.947083
1552.999268	293.706909
1552.139404	316.916260
1551.279419	281.977875
1550.419312	284.835815
1549.558960	302.222717
1548.698608	302.170715
1547.838013	299.213684
1546.977173	287.544250
1546.116333	261.358856
1545.255249	255.506882
1544.394165	284.492767
1543.532837	269.931335
1542.671265	278.590820
1541.809692	261.133911
1540.947876	263.989899
1540.085938	292.949341
1539.223877	287.098877
1538.361694	292.848419
1537.499268	298.595947
1536.636841	321.732422
1535.774170	286.901093
1534.911377	281.056671
1534.048340	301.287170
1533.185303	272.270325
1532.322021	292.495361
1531.458618	295.340454
1530.594971	318.449493
1529.731323	318.394592
1528.867432	272.035767
1528.003418	286.456360
1527.139282	324.015961
1526.275024	326.852600
1525.410522	292.092194
1524.545898	289.150330
1523.681152	277.536438
1522.816284	283.269592
1521.951172	297.670776
1521.086060	283.171875
1520.220703	326.458191
1519.355225	306.182281
1518.489502	277.249329
1517.623779	297.414093
1516.757813	317.571899
1515.891724	300.197968
1515.025513	308.804230
1514.159058	308.750946
1513.292480	282.732422
1512.425781	314.413422
1511.558960	291.286896
1510.692017	285.469543
1509.824829	285.420288
1508.957520	308.431274
1508.090088	256.501343
1507.222534	316.969391
1506.354736	296.747345
1505.486938	305.337738
1504.618896	311.045105
1503.750610	299.473175
1502.882324	308.058594
1502.013794	287.855499
1501.145142	284.927704
1500.276367	333.797028
1499.407471	327.985199
1498.538330	296.286316
1497.669067	339.376160
1496.799683	310.561768
1495.930176	345.009003
1495.060547	319.078156
1494.190674	313.274841
1493.320679	313.220703
1492.450562	272.943329
1491.580200	324.602783
1490.709717	341.779205
1489.839233	333.105316
1488.968384	292.852295
1488.097534	315.766510
1487.226440	350.153198
1486.355347	330.005341
1485.483887	324.210022
1484.612427	301.204987
1483.740845	347.042847
1482.869019	369.923828
1481.997070	338.321381
1481.124878	364.062561
1480.252686	366.865692
1479.380249	375.399139
1478.507690	375.334167
1477.635010	372.404572
1476.762207	375.204254
1475.889160	432.412506
1475.015991	423.748138
1474.142700	443.713470
1473.269165	403.566223
1472.395630	475.038269
1471.521851	492.123108
1470.647949	466.291718
1469.773804	511.973999
1468.899658	517.604736
1468.025269	571.839844
1467.150757	663.219360
1466.276001	614.514893
1465.401245	620.123901
1464.526245	597.158691
1463.651123	708.467468
1462.775879	719.769592
1461.900391	765.336609
1461.024780	813.743042
1460.149048	733.669189
1459.273193	802.044006
1458.397217	790.489990
1457.520996	818.885559
1456.644653	815.890808
1455.768188	767.260803
1454.891479	764.276001
1454.014648	729.928101
1453.137695	766.861755
1452.260620	738.225830
1451.383423	749.497009
1450.505981	718.024658
1449.628418	797.666809
1448.750732	754.803711
1447.872803	743.281494
1446.994873	791.557129
1446.116699	845.509644
1445.238403	805.514160
1444.359863	856.599670
1443.481201	827.997498
1442.602417	964.406982
1441.723511	1069.481079
1440.844482	1097.734253
1439.965210	1168.628052
1439.085815	1265.083252
1438.206299	1190.961548
1437.326538	1304.430664
1436.446777	1221.803467
1435.566772	1090.909424
1434.686646	1096.400879
1433.806274	908.775513
1432.925781	874.544495
1432.045166	775.029846
1431.164429	831.664124
1430.283569	692.460022
1429.402466	700.852112
1428.521240	626.969299
1427.639893	609.841492
1426.758301	612.571533
1425.876709	564.261841
1424.994873	555.658752
1424.112793	535.720703
1423.230713	549.797668
1422.348389	572.370239
1421.465942	611.933044
1420.583374	591.998962
1419.700562	702.345520
1418.817627	744.696655
1417.934570	894.612976
1417.051392	1044.477173
1416.167969	1182.968994
1415.284546	1250.673096
1414.400757	1292.891846
1413.516968	1125.780029
1412.633057	978.522949
1411.748901	740.833557
1410.864624	616.311523
1409.980103	528.578918
1409.095459	438.050690
1408.210815	454.928314
1407.325806	364.444366
1406.440796	381.328888
1405.555542	347.372528
1404.670166	316.251648
1403.784668	333.135681
1402.899048	355.659241
1402.013184	333.019714
1401.127197	301.922943
1400.241089	313.155243
1399.354736	313.100739
1398.468262	329.967621
1397.581665	321.450928
1396.694946	352.406738
1395.807983	352.345367
1394.920898	295.918549
1394.033691	329.680389
1393.146362	287.363586
1392.258789	295.763947
1391.371094	290.079773
1390.483276	306.924164
1389.595337	281.532715
1388.707153	329.335907
1387.818848	332.092834
1386.930420	306.710266
1386.041748	303.843445
1385.152954	320.667725
1384.264038	275.613678
1383.375000	306.496460
1382.485718	269.894775
1381.596313	289.524109
1380.706787	286.663208
1379.817139	258.513885
1378.927246	283.753815
1378.037231	306.175934
1377.147095	269.612518
1376.256714	292.029297
1375.366333	331.283112
1374.475586	311.576355
1373.584839	333.974060
1372.693970	353.557892
1371.802856	347.885132
1370.911499	389.899963
1370.020142	375.809204
1369.128540	353.311157
1368.236816	392.499451
1367.344971	381.218628
1366.453003	381.152069
1365.560791	386.689728
1364.668457	395.027069
1363.775879	313.725586
1362.883301	378.085327
1361.990479	358.418335
1361.097534	310.761597
1360.204346	307.908173
1359.311035	299.458374
1358.417603	307.800629
1357.524048	324.533051
1356.630249	346.854034
1355.736450	338.403290
1354.842285	293.604431
1353.948120	307.531860
1353.053711	296.297089
1352.159180	282.271484
1351.264526	318.547791
1350.369751	310.110748
1349.474731	273.743622
1348.579590	307.209534
1347.684204	295.986511
1346.788818	312.685822
1345.893188	348.918671
1344.997314	279.086151
1344.101440	276.246979
1343.205322	301.307648
1342.309082	306.833740
1341.412720	292.835541
1340.516113	292.784302
1339.619385	331.764191
1338.722534	312.194031
1337.825439	320.500275
1336.928223	300.938904
1336.030884	303.672241
1335.133423	309.190094
1334.235718	295.210938
1333.337891	331.358063
1332.439941	334.084106
1331.541870	325.674988
1330.643555	347.882477
1329.745117	356.169312
1328.846436	350.542786
1327.947754	333.791809
1327.048828	258.643372
1326.149780	308.649323
1325.250488	355.857605
1324.351074	344.676697
1323.451538	358.512146
1322.551880	358.449371
1321.651978	350.052002
1320.751953	330.546753
1319.851807	347.152161
1318.951416	360.975006
1318.050903	380.345459
1317.150269	358.072754
1316.249512	380.212189
1315.348511	388.469910
1314.447388	393.950439
1313.546021	366.143250
1312.644653	382.719055
1311.743042	407.607513
1310.841309	446.349030
1309.939331	407.464630
1309.037231	465.592224
1308.135010	448.885193
1307.232666	448.806488
1306.330078	512.436035
1305.427368	490.190674
1304.524536	512.256348
1303.621460	509.398010
1302.718262	556.364380
1301.814941	572.871765
1300.911499	628.111450
1300.007813	639.067383
1299.104004	685.977905
1298.199951	788.183044
1297.295898	1006.485229
1296.391602	1249.592041
1295.487061	1854.710327
1294.582520	2291.035889
1293.677734	2616.682861
1292.772827	2306.807373
1291.867676	1881.030029
1290.962402	1248.276489
1290.057007	828.356628
1289.151489	668.090393
1288.245728	582.406250
1287.339844	505.031403
1286.433838	469.072479
1285.527588	402.779724
1284.621216	369.609589
1283.714722	391.607056
1282.808105	363.965149
1281.901245	355.630707
1280.994263	344.542847
1280.087036	314.167877
1279.179810	333.400299
1278.272217	327.831909
1277.364624	297.475830
1276.456787	349.748077
1275.548828	324.905640
1274.640747	330.354462
1273.732544	322.038971
1272.824097	321.982361
1271.915405	319.174225
1271.006714	338.375244
1270.097778	308.059875
1269.188721	302.505585
1268.279541	288.704559
1267.370117	310.646454
1266.460571	313.340393
1265.550781	324.277740
1264.640991	315.977814
1263.730957	318.669373
1262.820679	302.133301
1261.910400	288.349213
1260.999878	280.061371
1260.089233	310.209473
1259.178345	268.983887
1258.267334	268.936554
1257.356201	252.426605
1256.444824	268.841888
1255.533447	246.852142
1254.621704	263.262604
1253.709961	246.765228
1252.797974	252.204483
1251.885864	238.455719
1250.973633	235.673340
1250.061157	254.811172
1249.148560	276.681671
1248.235840	238.287781
1247.322876	240.984268
1246.409790	254.631683
1245.496582	265.536804
1244.583130	218.960846
1243.669556	240.814484
1242.755859	240.772049
1241.841919	254.407440
1240.927856	229.746872
1240.013672	218.767975
1239.099365	243.336487
1238.184814	254.228134
1237.270142	265.115936
1236.355225	226.811783
1235.440186	262.290253
1234.525024	243.122055
1233.609741	248.541641
1232.694214	212.998123
1231.778564	232.072403
1230.862671	259.329285
1229.946777	251.095657
1229.030640	251.051361
1228.114258	251.007080
1227.197876	231.867798
1226.281128	234.554276
1225.364380	237.239777
1224.447388	212.660202
1223.530273	242.607925
1222.613037	231.663300
1221.695557	239.797333
1220.777954	239.755005
1219.860229	258.780731
1218.942261	234.223312
1218.024170	234.181961
1217.105957	225.972916
1216.187500	223.210938
1215.268921	236.779541
1214.350220	217.689865
1213.431274	220.372070
1212.512207	250.254929
1211.593018	198.536774
1210.673706	252.885727
1209.754150	269.153381
1208.834351	209.304535
1207.914551	236.445160
1206.994507	222.816986
1206.074219	209.193619
1205.153931	209.156647
1204.233398	247.141434
1203.312744	249.813126
1202.391846	233.479691
1201.470825	225.295212
1200.549683	241.538910
1199.628296	246.923096
1198.706787	203.472061
1197.785156	225.135941
1196.863281	238.656128
1195.941284	195.229584
1195.019165	225.016525
1194.096802	243.950668
1193.174438	219.516769
1192.251709	230.316345
1191.328979	249.239487
1190.406006	213.983002
1189.482788	246.443130
1188.559570	213.907288
1187.636108	203.040604
1186.712402	230.071960
1185.788696	235.443741
1184.864746	219.167450
1183.940552	235.360413
1183.016357	265.071686
1182.091919	219.051086
1181.167236	224.420013
1180.242554	240.600540
1179.317505	208.123169
1178.392456	248.622604
1177.467163	262.088287
1176.541748	251.236023
1175.616211	218.779709
1174.690430	256.548035
1173.764526	259.202637
1172.838501	305.049042
1171.912231	291.499634
1170.985840	307.639557
1170.059204	345.358643
1169.132446	391.157288
1168.205566	339.841949
1167.278564	361.355164
1166.351318	337.025299
1165.423828	318.095490
1164.496338	309.953369
1163.568604	247.918732
1162.640747	261.346252
1161.712646	282.850403
1160.784424	253.173569
1159.856079	236.971527
1158.927490	261.160919
1157.998779	253.038895
1157.069946	239.536896
1156.140869	282.549591
1155.211670	242.142395
1154.282349	260.929382
1153.352783	274.330688
1152.423096	260.836823
1151.493164	282.299042
1150.563232	284.937042
1149.632935	295.636902
1148.702637	252.590332
1147.772095	282.098694
1146.841431	260.559204
1145.910522	287.369965
1144.979492	252.411041
1144.048340	303.376434
1143.116943	244.268616
1142.185425	284.482147
1141.253784	289.798248
1140.321899	295.112488
1139.389893	343.342621
1138.457764	292.325775
1137.525391	364.671967
1136.592896	396.778412
1135.660278	399.388367
1134.727417	474.356934
1133.794434	551.978333
1132.861206	763.523682
1131.927856	897.315735
1130.994385	1199.779175
1130.060669	1536.943848
1129.126831	1970.365112
1128.192871	2216.266846
1127.258667	2194.463379
1126.324341	1741.880127
1125.389893	1383.090576
1124.455200	1128.743530
1123.520386	895.881226
1122.585327	705.882324
1121.650146	614.863892
1120.714844	499.822144
1119.779297	497.060883
1118.843628	446.206482
1117.907837	411.398651
1116.971802	384.615997
1116.035645	376.536163
1115.099365	363.119202
1114.162842	365.724121
1113.226196	312.278168
1112.289307	354.919678
1111.352417	349.520325
1110.415161	336.120026
1109.477905	298.720184
1108.540405	317.333679
1107.602661	298.613831
1106.664917	290.563507
1105.726807	306.503235
1104.788696	261.147552
1103.850342	309.058411
1102.911865	295.684235
1101.973145	290.304901
1101.034302	298.241791
1100.095337	300.851074
1099.156128	274.178253
1098.216797	314.051147
1097.277344	353.909851
1096.337646	274.031708
1095.397827	327.183441
1094.457764	332.444244
1093.517700	287.180664
1092.577271	305.739716
1091.636841	305.685211
1090.696167	337.522644
1089.755249	337.462463
1088.814209	329.432159
1087.873047	324.060974
1086.931763	371.806915
1085.990234	387.672363
1085.048584	353.090607
1084.106689	326.484222
1083.164673	355.618561
1082.222412	363.515320
1081.280151	358.144623
1080.337524	371.342987
1079.394897	355.364868
1078.452026	397.725525
1077.509033	402.956635
1076.565796	363.126373
1075.622437	323.310303
1074.678955	368.295990
1073.735229	354.984558
1072.791382	370.813202
1071.847290	399.877136
1070.903076	389.214874
1069.958740	367.967407
1069.014160	391.722687
1068.069458	452.517670
1067.124512	494.770142
1066.179565	605.786804
1065.234253	769.661438
1064.288940	1039.254028
1063.343384	1266.447266
1062.397583	1435.402954
1061.451660	1461.576538
1060.505615	1350.329468
1059.559448	1096.451294
1058.613037	1003.800049
1057.666382	779.126587
1056.719727	628.471130
1055.772827	541.233459
1054.825684	459.306274
1053.878418	390.604462
1052.931030	361.508423
1051.983398	335.061035
1051.035645	348.190155
1050.087769	311.205231
1049.139648	282.144135
1048.191406	282.093689
1047.242920	282.043213
1046.294312	260.909210
1045.345581	287.212311
1044.396606	245.008865
1043.447510	231.794861
1042.498291	252.821884
1041.548828	271.208282
1040.599121	260.629272
1039.649414	260.582642
1038.699341	215.797516
1037.749268	252.595779
1036.798950	247.289093
1035.848511	234.093521
1034.897827	239.311203
1033.947021	241.897675
1032.996094	260.256348
1032.044922	249.696213
1031.093506	231.256134
1030.142090	207.567764
1029.190430	260.069977
1028.238525	217.999420
1027.286499	225.838455
1026.334351	212.670227
1025.381958	225.757568
1024.429443	251.963303
1023.476807	217.804245
1022.523926	236.130951
1021.570923	243.958267
1020.617737	209.818970
1019.664368	207.159103
1018.710815	225.474564
1017.757080	209.706177
1016.803223	193.943451
1015.849121	227.973724
1014.894897	235.792603
1013.940491	206.936401
1012.985962	196.423386
1012.031189	193.769653
1011.076294	222.533340
1010.121216	217.258286
1009.165955	206.750931
1008.210510	217.180374
1007.254944	217.141403
1006.299133	227.565231
1005.343201	235.370071
1004.387085	203.950790
1003.430786	214.371338
1002.474365	216.946686
1001.517700	235.201187
1000.560913	206.417328
999.603943	206.380280
998.646790	216.790985
997.689514	224.586487
996.731995	232.379181
995.774353	242.779587
994.816528	208.805161
993.858521	182.671707
992.900330	203.511932
991.942017	213.910019
990.983459	213.871597
990.024780	213.833191
989.065918	187.722244
988.106873	229.397079
987.147705	182.442169
986.188293	234.526367
985.228760	203.219666
984.269043	203.183151
983.309143	174.497757
982.349060	210.922058
981.388794	210.884155
980.428406	184.815842
979.467834	197.795486
978.507019	166.534683
977.546082	195.122742
976.585022	208.093506
975.623718	231.462402
974.662292	210.618912
973.700623	205.381516
972.738831	187.149490
971.776855	181.918167
970.814758	184.483810
969.852417	197.440109
968.889954	202.599442
967.927246	189.578186
966.964417	212.912521
966.001404	197.298050
965.038208	173.902512
964.074890	181.656494
963.111328	181.623810
962.147644	194.561905
961.183777	210.089035
960.219727	199.678329
959.255493	212.606171
958.291077	228.121643
957.326538	194.386841
956.361755	176.212341
955.396851	204.680405
954.431763	165.787186
953.466492	214.966522
952.501038	194.211884
951.535461	188.998840
950.569641	204.496155
949.603699	201.871216
948.637573	227.711105
947.671265	196.624161
946.704773	194.002045
945.738098	204.311996
944.771240	219.789734
943.804260	219.750122
942.837097	232.634674
941.869751	191.242920
940.902222	224.799118
939.934509	196.340836
938.966614	232.466965
937.998535	216.930038
937.030334	206.562790
936.061951	214.270248
935.093323	214.231598
934.124573	229.676788
933.155640	227.055191
932.186584	229.593933
931.217285	221.814789
930.247864	208.880890
929.278198	213.999832
928.308411	211.383362
927.338440	213.922607
926.368286	221.614746
925.397949	231.880554
924.427429	206.078842
923.456787	200.890610
922.485901	236.905121
921.514893	218.840210
920.543701	216.226578
919.572327	226.482178
918.600769	200.709320
917.629028	203.245804
916.657104	213.498169
915.685059	198.028793
914.712769	239.134445
913.740356	251.945618
912.767761	218.484772
911.794983	221.015244
910.822021	231.253235
909.848877	226.073425
908.875549	251.718094
907.902039	218.287460
906.928406	184.868896
905.954590	218.208557
904.980530	269.503021
904.006348	197.599838
903.031982	207.827179
902.057434	228.312042
901.082703	218.011398
900.107849	217.971970
899.132751	207.676910
898.157532	228.146942
897.182068	228.105682
896.206482	228.064423
895.230713	207.526703
894.254761	245.913086
893.278625	230.501801
892.302307	245.824112
891.325806	240.659225
890.349182	250.854645
889.372314	232.894302
888.395325	253.322662
887.418091	253.276825
886.440735	225.094193
885.463196	250.627716
884.485474	245.468414
883.507568	258.206482
882.529480	265.827820
881.551270	250.446259
880.572815	209.519119
879.594238	224.809067
878.615417	222.214172
877.636475	232.388809
876.657349	224.686935
875.677979	257.832611
874.698486	237.367218
873.718811	265.394806
872.739014	214.318512
871.758972	260.196747
870.778748	280.553497
869.798401	260.102448
868.817810	224.361450
867.837097	224.320786
866.856140	231.926025
865.875061	234.432159
864.893799	252.223648
863.912354	224.158157
862.930725	252.132202
861.948914	262.271790
860.966919	246.949036
859.984741	257.085876
859.002441	231.589798
858.019897	239.181244
857.037231	254.401978
856.054321	249.268707
855.071289	254.309677
854.088074	218.666641
853.104614	233.880005
852.121033	223.670715
851.137268	243.960129
850.153320	231.211899
849.169189	228.629608
848.184937	266.686127
847.200439	215.849579
846.215759	246.277725
845.230896	246.233017
844.245911	241.112259
843.260681	200.467468
842.275330	225.802094
841.289795	253.664139
840.304016	235.864792
839.318115	238.357666
838.332031	250.990677
837.345764	217.992691
836.359314	212.884415
835.372681	225.515121
834.385864	202.673386
833.398865	250.762741
832.411743	225.392197
831.424377	222.819199
830.436829	222.778702
829.449158	217.675964
828.461243	217.636398
827.473206	247.959183
826.484924	225.146469
825.496521	207.400604
824.507935	204.834076
823.519104	204.796829
822.530151	217.399063
821.541016	247.688751
820.551697	202.158127
819.562195	199.594833
818.572510	219.766983
817.582642	191.945419
816.592590	229.787567
815.602356	237.319794
814.611938	204.461761
813.621399	214.519592
812.630615	219.527145
811.639648	227.055710
810.648560	189.178650
809.657227	219.407288
808.665771	211.802948
807.674072	209.243378
806.682251	211.725830
805.690186	201.606934
804.697998	199.050583
803.705566	221.686859
802.713013	186.384537
801.720276	206.496597
800.727356	208.976776
799.734253	213.973373
798.740906	188.765640
797.747437	228.993912
796.753784	191.212814
795.759949	198.724457
794.765930	198.688248
793.771729	201.166611
792.777344	218.728821
791.782776	233.770950
790.788025	241.267960
789.793091	201.019974
788.798035	193.446442
787.802734	223.553177
786.807251	188.353149
785.811584	203.384308
784.815796	208.368134
783.819763	203.310135
782.823547	193.234863
781.827148	158.072418
780.830627	208.216141
779.833862	183.096451
778.836975	163.001343
777.839844	193.058655
776.842529	210.571014
775.845093	203.013565
774.847412	223.023575
773.849609	202.939453
772.851563	205.407379
771.853394	192.847336
770.854980	190.308075
769.856445	195.280518
768.857666	190.238586
767.858765	190.203842
766.859680	205.182449
765.860352	225.159134
764.860901	197.603577
763.861206	185.063217
762.861389	207.532990
761.861389	212.494949
760.861145	179.962830
759.860779	184.928009
758.860168	197.387070
757.859436	169.871750
756.858521	214.798538
755.857361	217.256470
754.856079	164.785126
753.854614	229.658493
752.852905	182.195709
751.851074	189.648529
750.848999	179.634171
749.846802	209.534882
748.844421	216.978592
747.841797	214.445358
746.839050	177.009720
745.836121	219.352188
744.832947	186.913696
743.829651	209.305038
742.826111	226.705643
741.822449	224.173355
740.818604	209.190186
739.814514	221.601425
738.810303	211.603073
737.805847	184.185425
736.801270	181.663177
735.796448	204.022659
734.791504	201.497696
733.786316	213.896652
732.781006	208.884064
731.775452	206.359558
730.769775	223.722397
729.763855	231.137482
728.757751	211.216003
727.751526	206.208435
726.745056	213.622620
725.738403	208.616425
724.731628	186.230545
723.724609	225.918335
722.717407	233.323425
721.710083	215.908707
720.702515	188.575348
719.694763	203.425583
718.686829	210.829346
717.678711	195.911346
716.670410	228.108109
715.661987	215.671387
714.653320	198.282166
713.644470	203.201950
712.635437	193.254211
711.626221	203.127441
710.616821	200.613480
709.607178	175.814133
708.597412	207.967300
707.587463	185.651031
706.577332	215.315689
705.567017	220.225067
704.556458	200.392792
703.545776	185.514832
702.534912	175.588486
701.523804	215.118225
700.512573	207.662247
699.501099	202.680695
698.489502	185.344666
697.477661	212.489532
696.465698	177.865555
695.453491	219.821228
694.441101	190.147491
693.428589	192.581573
692.415833	175.266418
691.402893	190.042755
690.389771	202.346024
689.376465	175.169876
688.362976	189.938065
687.349304	207.167099
686.335449	197.265747
685.321411	179.971924
684.307190	199.658188
683.292725	221.801651
682.278137	214.368866
681.263367	204.475235
680.248352	216.753189
679.233215	214.250687
678.217834	209.286911
677.202332	221.557159
676.186584	204.287369
675.170654	199.328125
674.154541	189.449921
673.138306	184.495209
672.121826	199.218185
671.105164	189.345413
670.088318	226.189285
669.071289	191.733902
668.054016	218.733047
667.036621	176.920029
666.019043	194.084869
665.001282	162.117004
663.983276	191.557571
662.965149	181.700668
661.946777	184.122192
660.928223	196.360855
659.909546	196.324707
658.890625	188.927750
657.871521	176.627182
656.852234	191.310883
655.832764	205.989182
654.813110	205.951248
653.793274	193.656570
652.773254	193.620911
651.752991	213.188812
650.732605	178.849625
649.711975	200.862564
648.691223	191.029190
647.670227	200.788559
646.649048	193.406998
645.627747	239.878387
644.606201	198.230301
643.584473	181.065903
642.562561	207.942780
641.540466	225.025986
640.518127	215.202576
639.495667	227.388077
638.473022	210.234070
637.450134	188.198120
636.427063	190.607101
635.403870	219.890717
634.380432	200.307922
633.356812	173.405365
632.333008	178.257141
631.309021	207.521393
630.284851	219.688004
629.260498	214.766418
628.235901	229.367249
627.211182	200.049408
626.186218	219.525909
625.161133	214.607941
624.135803	192.623840
623.110291	212.090912
622.084595	229.113388
621.058716	231.508026
620.032654	199.791092
619.006409	224.114471
617.979919	243.557709
616.953308	216.726334
615.926453	187.470169
614.899414	238.554337
613.872253	216.606277
612.844849	231.166245
611.817261	235.989288
610.789490	214.053833
609.761475	248.062012
608.733337	204.248611
607.705017	204.210876
606.676453	201.742508
605.647705	230.867416
604.618774	211.386871
603.589722	233.211365
602.560425	218.595245
601.530884	225.839996
600.501221	220.942368
599.471375	216.046539
598.441284	237.849945
597.411011	252.365509
596.380615	208.648270
595.349976	230.440933
594.319153	225.547821
593.288147	206.107727
592.256897	237.586121
591.225525	201.183670
590.193970	213.263702
589.162170	196.263229
588.130188	249.523102
587.098022	232.522186
586.065674	230.057495
585.033142	188.854340
584.000427	220.289291
582.967468	210.567261
581.934387	200.848816
580.901062	232.264053
579.867554	237.058975
578.833862	222.503952
577.799988	212.790451
576.765930	224.839172
575.731628	219.963181
574.697205	207.838776
573.662537	215.049133
572.627747	231.920135
571.592712	214.969452
570.557434	231.834198
569.522034	197.988358
568.486450	210.021881
567.450623	193.087784
566.414673	222.009796
565.378479	200.254318
564.342102	224.339752
563.305542	219.474548
562.268799	207.377045
561.231812	231.447739
560.194702	224.173416
559.157349	253.052094
558.119812	216.861557
557.082092	236.094345
556.044189	221.598480
555.006042	257.680878
553.967773	231.147415
552.929260	262.399933
551.890625	228.654770
550.851746	252.676788
549.812683	226.163910
548.773376	211.688629
547.733948	266.966766
546.694275	235.656647
545.654419	274.080322
544.614441	249.991776
543.574158	233.122116
542.533752	235.481705
541.493164	221.023407
540.452332	252.208130
539.411316	235.350540
538.370178	244.911194
537.328735	266.471497
536.287170	242.420013
535.245422	237.575485
534.203430	249.527878
533.161255	254.279236
532.118896	230.247849
531.076355	256.582733
530.033630	249.342468
528.990723	256.487366
527.947571	237.266632
526.904236	225.241592
525.860718	241.969910
524.817017	234.739029
523.773132	244.274796
522.729004	260.990204
521.684692	258.547729
520.640198	246.532059
519.595520	260.844635
518.550659	265.581360
517.505615	234.433624
516.460327	275.049500
515.414856	231.955124
514.369202	222.348587
513.323364	231.868820
512.277283	267.675018
511.231079	212.666443
510.184631	253.240982
509.138000	238.862122
508.091187	255.534897
507.044159	250.711868
505.996948	236.341476
504.949554	248.231689
503.901947	260.117462
502.854126	257.683075
501.806152	260.020599
500.757965	267.127380
499.709564	288.539215
