#Wave		#Intensity
3200.600830	-8.419704
3200.007080	25.259113
3199.413086	33.673729
3198.819092	-8.417160
3198.224854	29.455606
3197.630615	33.658463
3197.036377	-8.413343
3196.442139	16.824142
3195.847656	12.616199
3195.252930	8.409529
3194.658447	16.816513
3194.063721	50.441914
3193.468750	8.405714
3192.873779	8.404444
3192.278809	25.209517
3191.683838	4.200951
3191.088623	12.600946
3190.493164	37.797123
3189.897949	4.199045
3189.302490	20.992050
3188.706787	25.186649
3188.111328	12.591420
3187.515381	16.786020
3186.919678	29.371092
3186.323730	50.342823
3185.727783	8.389201
3185.131592	20.969830
3184.535400	29.353319
3183.939209	25.156181
3183.342773	41.920624
3182.746338	25.148569
3182.149902	25.144762
3181.553223	75.422874
3180.956543	8.379050
3180.359619	12.566673
3179.762695	20.941286
3179.165771	25.125738
3178.568604	8.373979
3177.971436	20.931776
3177.374268	33.485771
3176.776855	25.110527
3176.179443	33.475632
3175.581787	-12.551461
3174.984131	-4.183187
3174.386475	16.730215
3173.788574	-12.545760
3173.190674	-8.362574
3172.592773	0.000000
3171.994629	25.080122
3171.396484	-4.179387
3170.798340	4.178754
3170.199951	16.712484
3169.601563	33.419907
3169.002930	8.353711
3168.404297	16.704891
3167.805664	-8.351180
3167.206787	12.524872
3166.607910	4.174325
3166.008789	41.736919
3165.409912	33.384476
3164.810547	16.689709
3164.211426	25.030769
3163.612061	0.000000
3163.012695	-4.170530
3162.413086	25.019390
3161.813477	4.169266
3161.213623	12.505902
3160.614014	-12.504006
3160.013916	12.502110
3159.414063	8.333477
3158.813965	12.498321
3158.213867	24.992851
3157.613525	8.329687
3157.013184	4.164212
3156.412598	29.145063
3155.812256	4.162949
3155.211426	20.811588
3154.610840	41.616863
3154.010010	-4.161055
3153.409180	24.962543
3152.808105	8.319586
3152.207031	24.954971
3151.605957	16.634125
3151.004639	0.000000
3150.403320	24.943615
3149.801758	20.783192
3149.200195	54.028103
3148.598633	29.087641
3147.996826	20.773733
3147.395020	20.770580
3146.793213	37.381371
3146.191162	24.917131
3145.589111	20.761126
3144.986816	29.061163
3144.384766	8.301929
3143.782227	29.052341
3143.179932	29.047932
3142.577393	20.745373
3141.974609	-4.148445
3141.371826	20.739075
3140.769043	-12.441555
3140.166260	41.465553
3139.563232	29.021481
3138.960205	8.290592
3138.356934	62.169998
3137.753662	33.152298
3137.150391	33.147263
3136.546875	20.713892
3135.943359	16.568598
3135.339600	24.849121
3134.735840	20.704454
3134.132080	8.280524
3133.528076	28.977430
3132.924072	16.556017
3132.320068	16.553501
3131.715820	24.826479
3131.111572	24.822706
3130.507080	8.272978
3129.902588	28.951023
3129.298096	12.405696
3128.693604	24.807621
3128.088867	12.401925
3127.483887	37.200119
3126.878906	28.929029
3126.273926	-4.132090
3125.668945	16.525848
3125.063721	41.308342
3124.458252	49.562473
3123.853027	-4.129578
3123.247559	53.676353
3122.641846	37.154903
3122.036133	-16.510778
3121.430420	12.381201
3120.824707	8.252879
3120.218750	16.503248
3119.612549	20.625921
3119.006592	-4.124557
3118.400391	37.115368
3117.793945	12.369907
3117.187500	16.490700
3116.581055	-16.488192
3115.974609	-4.121421
3115.367920	12.362382
3114.760986	41.201672
3114.154297	24.717241
3113.547363	32.951305
3112.940186	32.946293
3112.333008	4.117660
3111.725830	16.468132
3111.118408	12.349220
3110.510986	24.694681
3109.903564	16.460615
3109.295898	32.916218
3108.688232	49.366814
3108.080566	20.566374
3107.472656	41.126488
3106.864746	-4.112022
3106.256592	-20.556982
3105.648438	24.664623
3105.040039	45.211590
3104.431885	12.328556
3103.823486	12.326679
3103.214844	4.108267
3102.606201	24.645849
3101.997559	12.321048
3101.388672	20.531952
3100.779785	32.846123
3100.170898	8.210279
3099.561768	12.313543
3098.952637	0.000000
3098.343262	0.000000
3097.733887	-4.102639
3097.124512	0.000000
3096.514893	-4.101389
3095.905273	16.403055
3095.295410	0.000000
3094.685791	24.597086
3094.075684	8.197779
3093.465820	40.982647
3092.855713	32.781120
3092.245361	49.164188
3091.635254	45.060303
3091.024658	16.383068
3090.414307	16.380569
3089.803711	0.000000
3089.193115	24.563364
3088.582275	-16.373079
3087.971436	28.648520
3087.360596	12.276065
3086.749512	20.456989
3086.138428	65.452385
3085.527100	-8.180300
3084.915771	36.805737
3084.304443	-12.266707
3083.692871	24.529675
3083.081299	40.876553
3082.469482	40.870319
3081.857910	28.604860
3081.245850	40.857853
3080.634033	32.681293
3080.021973	8.169077
3079.409668	49.006985
3078.797607	20.416462
3078.185059	8.165339
3077.572754	36.738415
3076.960205	36.732811
3076.347656	57.131207
3075.734863	12.240533
3075.122070	61.193325
3074.509033	32.631458
3073.895996	24.469858
3073.282959	32.621498
3072.669922	16.308260
3072.056641	16.305769
3071.443115	57.061481
3070.829834	57.052769
3070.216064	24.447454
3069.602539	12.221861
3068.988770	48.879978
3068.375000	28.508966
3067.760986	36.648788
3067.146973	16.285862
3066.532715	20.354219
3065.918701	24.421331
3065.304199	16.278402
3064.689941	16.275915
3064.075439	16.273428
3063.460693	12.203207
3062.846191	24.402685
3062.231445	4.066493
3061.616455	48.790459
3061.001465	52.848255
3060.386475	36.581665
3059.771240	24.384048
3059.156006	24.380323
3058.540771	24.376596
3057.925293	24.372871
3057.309814	24.369146
3056.694092	44.669941
3056.078369	20.301414
3055.462646	28.417637
3054.846680	8.118083
3054.230713	8.116842
3053.614502	48.693607
3052.998291	56.800526
3052.382080	48.678719
3051.765625	40.559399
3051.149170	36.497875
3050.532715	16.218798
3049.916016	12.162238
3049.299316	44.588055
3048.682373	-4.052839
3048.065430	4.052219
3047.448486	16.206400
3046.831299	20.254900
3046.214111	20.251802
3045.596680	40.497406
3044.979248	12.147364
3044.361816	24.291010
3043.744141	8.095764
3043.126465	20.236315
3042.508545	44.513081
3041.890869	-4.046024
3041.272705	24.272432
3040.654785	36.403076
3040.036621	12.132502
3039.418213	28.304838
3038.799805	40.429295
3038.181396	8.084620
3037.562988	32.333534
3036.944336	20.205364
3036.325439	16.161818
3035.706543	52.517864
3035.087646	28.274521
3034.468750	40.385986
3033.849609	44.417786
3033.230469	12.112086
3032.611084	44.404182
3031.991699	40.361256
3031.372070	8.071015
3030.752441	36.314007
3030.132813	20.171358
3029.513184	24.201921
3028.893066	8.066072
3028.273193	48.389015
3027.653076	44.349800
3027.032959	24.187094
3026.412598	16.122259
3025.792480	20.149736
3025.171875	12.087989
3024.551270	40.287125
3023.930664	20.140474
3023.310059	40.274776
3022.689209	4.026860
3022.068115	36.236191
3021.447266	32.205009
3020.826172	36.225082
3020.204834	52.317097
3019.583496	8.047550
3018.962158	56.324219
3018.340576	44.247959
3017.718994	44.241173
3017.097412	44.234390
3016.475586	20.103458
3015.853760	56.281052
3015.231689	20.097294
3014.609619	8.037684
3013.987549	36.164036
3013.365234	24.105658
3012.742920	36.152943
3012.120361	32.131020
3011.497803	44.173374
3010.875244	32.121162
3010.252441	36.130764
3009.629639	24.083481
3009.006836	28.093084
3008.383789	40.126820
3007.760498	48.144794
3007.137451	56.160309
3006.514160	52.140858
3005.890625	16.040878
3005.267090	48.115250
3004.643555	48.107864
3004.019775	36.075363
3003.395996	36.069824
3002.772217	56.100002
3002.148193	52.084862
3001.524170	48.070953
3000.899902	48.063576
3000.275635	28.032782
2999.651367	52.052887
2999.026855	48.041439
2998.402344	44.031223
2997.777588	40.022240
2997.152832	40.016094
2996.528076	40.009949
2995.903076	40.003803
2995.278076	51.996956
2994.653076	43.990669
2994.027832	51.980984
2993.402344	43.977154
2992.777100	43.970398
2992.151367	31.973558
2991.525879	35.964729
2990.900146	55.936535
2990.274414	47.938236
2989.648438	43.936630
2989.022461	79.872505
2988.396240	31.944094
2987.770264	31.939184
2987.143799	27.942492
2986.517578	63.858734
2985.891113	39.905575
2985.264404	59.849163
2984.637695	35.903976
2984.010986	55.842045
2983.384033	27.916731
2982.757080	71.774841
2982.130127	59.803173
2981.502930	35.876385
2980.875732	43.842175
2980.248291	67.745667
2979.620850	75.704102
2978.993408	63.741020
2978.365723	75.680824
2977.738037	11.947765
2977.110107	43.801735
2976.482178	39.813633
2975.854248	59.711266
2975.226074	75.622635
2974.597900	75.611000
2973.969482	67.641541
2973.341309	87.522644
2972.712646	47.732277
2972.083984	71.587402
2971.455322	35.788193
2970.826660	39.758537
2970.197754	67.579117
2969.568604	79.492607
2968.939697	51.662243
2968.310547	51.654289
2967.681152	47.673542
2967.051758	39.721836
2966.422363	23.829433
2965.792725	51.622490
2965.163086	91.318039
2964.533203	47.636860
2963.903564	43.660397
2963.273438	59.527737
2962.643311	91.261810
2962.013184	103.149635
2961.383057	51.566875
2960.752686	79.321434
2960.122314	99.136528
2959.491699	103.086105
2958.861084	75.320549
2958.230225	71.345322
2957.599609	107.001495
2956.968506	99.060196
2956.337646	106.968529
2955.706299	91.107300
2955.075195	67.329803
2954.443848	95.039192
2953.812500	118.780685
2953.180908	102.927399
2952.549316	110.827805
2951.917725	102.895676
2951.285889	114.750565
2950.653809	106.820267
2950.021973	110.759499
2949.389893	126.562767
2948.757568	106.770874
2948.125244	122.569885
2947.492920	138.364014
2946.860352	130.437393
2946.227783	118.561165
2945.595215	130.397171
2944.962402	154.081985
2944.329590	169.859070
2943.696533	126.387253
2943.063477	122.418770
2942.430420	130.296646
2941.797119	165.806519
2941.163574	157.886612
2940.530273	217.060608
2939.896729	209.135239
2939.262939	240.665680
2938.629150	205.125977
2937.995361	224.814941
2937.361328	252.384842
2936.727295	216.859756
2936.093262	279.903046
2935.458984	338.985168
2934.824707	350.756073
2934.190186	311.297241
2933.555664	311.249207
2932.921143	370.289978
2932.286377	326.907715
2931.651367	350.485474
2931.016602	401.617981
2930.381592	350.377289
2929.746338	354.259399
2929.111084	366.011536
2928.475830	436.785004
2927.840332	393.439240
2927.204834	448.451477
2926.569336	452.315399
2925.933594	381.459290
2925.297607	507.223206
2924.661865	432.449097
2924.025879	408.797821
2923.389648	487.337494
2922.753418	444.037323
2922.117188	502.902649
2921.480713	475.326721
2920.844238	377.060455
2920.207764	412.346161
2919.571045	435.841431
2918.934082	522.143738
2918.297363	447.482605
2917.660156	514.132996
2917.023193	459.116516
2916.385986	400.193573
2915.748779	427.591736
2915.111328	443.214661
2914.473877	470.597687
2913.836182	411.709320
2913.198486	446.929596
2912.560791	427.261353
2911.922852	462.468292
2911.284912	431.047852
2910.646729	454.489288
2910.008545	481.840851
2909.370361	473.932739
2908.731934	466.027069
2908.093506	446.377045
2907.455078	477.627869
2906.816406	442.324585
2906.177490	465.738800
2905.538574	442.187775
2904.899658	532.108276
2904.260498	571.145508
2903.621338	469.362030
2902.982178	610.076233
2902.342773	512.228333
2901.703369	555.153992
2901.063721	543.341309
2900.424072	527.623901
2899.784424	539.265442
2899.144531	601.695801
2898.504639	574.257080
2897.864502	527.297363
2897.224365	613.132385
2896.583984	577.895203
2895.943848	527.052490
2895.303223	597.233704
2894.662842	601.044128
2894.021973	581.439697
2893.381348	628.169739
2892.740479	647.577881
2892.099609	569.468262
2891.458496	557.680481
2890.817383	651.176331
2890.176025	647.176819
2889.534668	643.178528
2888.893311	623.591675
2888.251709	576.732971
2887.610107	631.190979
2886.968262	654.467041
2886.326416	599.835144
2885.684570	595.847778
2885.042480	607.436951
2884.400391	657.954712
2883.758057	681.208496
2883.115723	583.802551
2882.473389	622.626221
2881.830811	692.564270
2881.188232	692.456970
2880.545410	750.693726
2879.902588	703.909302
2879.259766	738.795837
2878.616699	789.222656
2877.973633	758.002747
2877.330322	722.905884
2876.687012	703.363892
2876.043457	695.484070
2875.399902	675.952332
2874.756348	625.353149
2874.112549	586.420410
2873.468750	605.744324
2872.824707	617.297485
2872.180664	566.738708
2871.536621	620.987183
2870.892334	543.279541
2870.248047	547.075195
2869.603760	512.076050
2868.958984	550.784241
2868.314453	577.845947
2867.669678	562.246033
2867.024902	511.758362
2866.379883	577.577026
2865.734863	577.487366
2865.089844	569.647461
2864.444580	561.809937
2863.799316	623.705994
2863.153809	573.255615
2862.508301	573.166626
2861.862549	580.821960
2861.216797	603.961060
2860.571045	696.770020
2859.925049	669.569397
2859.279053	715.902405
2858.632813	700.314636
2857.986572	680.863220
2857.340332	765.852173
2856.693848	812.141357
2856.047363	900.950195
2855.400635	811.889099
2854.753906	811.763000
2854.107178	919.855225
2853.460205	900.390625
2852.813232	946.615601
2852.166016	938.742310
2851.518799	1019.709717
2850.871338	1108.375854
2850.223877	1058.006348
2849.576416	1042.398926
2848.928711	1111.719482
2848.281006	1107.687134
2847.633301	1084.361450
2846.985352	1030.176147
2846.337158	1149.605957
2845.688965	1126.284424
2845.040771	960.278198
2844.392578	979.408630
2843.743896	886.728271
2843.095459	878.880920
2842.446777	809.369751
2841.798096	770.708496
2841.149170	720.500366
2840.500244	747.354797
2839.851074	577.761780
2839.202148	581.523071
2838.552734	608.386475
2837.903320	512.043152
2837.253906	477.319366
2836.604492	400.270111
2835.954834	400.207855
2835.304932	377.060272
2834.655029	315.450348
2834.005127	300.015839
2833.354980	265.357330
2832.704834	226.864456
2832.054688	242.207397
2831.404297	199.886108
2830.753906	207.541748
2830.103271	219.037750
2829.452637	207.477158
2828.801758	180.553864
2828.150879	172.843811
2827.500000	180.497665
2826.848877	168.950241
2826.197754	214.994095
2825.546387	134.350388
2824.895020	145.843430
2824.243408	149.658112
2823.591797	149.634811
2822.940186	168.792480
2822.288330	141.917038
2821.636475	130.389938
2820.984619	134.204041
2820.332520	92.011292
2819.680176	160.994690
2819.028076	134.141342
2818.375488	130.288437
2817.723145	130.268143
2817.070557	107.262932
2816.417725	114.906670
2815.764893	122.548019
2815.112061	118.699898
2814.458984	103.367676
2813.805908	126.318581
2813.152832	118.644417
2812.499512	107.146004
2811.845947	118.607445
2811.192383	122.414406
2810.538818	84.146790
2809.885010	130.024765
2809.231201	57.354927
2808.577393	110.868912
2807.923340	76.449394
2807.269287	103.190598
2806.614990	68.783005
2805.960693	99.337738
2805.306152	91.682076
2804.651611	84.028801
2803.997070	99.291275
2803.342285	87.820892
2802.687500	64.900970
2802.032471	57.256634
2801.377441	87.779816
2800.722412	80.134285
2800.067139	83.937111
2799.411621	106.812378
2798.756348	41.955460
2798.100586	76.270752
2797.445068	87.697685
2796.789307	83.871651
2796.133301	91.482071
2795.477539	53.356216
2794.821289	83.832397
2794.165283	80.009346
2793.509033	83.806236
2792.852539	102.837051
2792.196045	83.780075
2791.539551	79.959404
2790.882813	68.525932
2790.226074	79.934441
2789.569092	60.892925
2788.912109	87.519913
2788.255127	57.069294
2787.597900	91.296616
2786.940430	87.478928
2786.283203	72.253914
2785.625488	83.649361
2784.968018	79.834648
2784.310303	57.015842
2783.652588	83.610176
2782.994629	56.998035
2782.336426	64.587685
2781.678467	53.181545
2781.020264	79.759857
2780.361816	75.949898
2779.703369	110.110153
2779.044922	79.722481
2778.386230	94.892883
2777.727539	64.517075
2777.068604	49.328880
2776.409668	56.909042
2775.750732	87.246895
2775.091553	72.062256
2774.432373	83.427467
2773.772949	79.622856
2773.113525	102.356247
2772.453857	45.484554
2771.794189	117.483391
2771.134521	64.416306
2770.474609	60.617630
2769.814697	68.184174
2769.154541	64.386093
2768.494385	117.391571
2767.833984	45.434792
2767.173584	75.712814
2766.513184	79.486015
2765.852539	68.120216
2765.191895	56.757969
2764.531006	64.315636
2763.870117	79.436295
2763.209229	52.949245
2762.548096	83.192940
2761.886719	86.960831
2761.225586	30.242512
2760.563965	34.017502
2759.902588	86.920013
2759.240967	105.799110
2758.579102	68.003067
2757.917236	71.769783
2757.255371	86.865616
2756.593262	98.180542
2755.931152	79.287254
2755.269043	90.599823
2754.606689	67.939232
2753.944092	60.380970
2753.281494	94.330498
2752.618896	94.315727
2751.956055	132.021347
2751.293213	90.514740
2750.630371	79.187996
2749.967285	56.553997
2749.303955	75.393524
2748.640625	67.843544
2747.977295	67.832916
2747.313721	75.358101
2746.650146	109.252129
2745.986572	64.034317
2745.322754	97.919495
2744.658691	105.435242
2743.994873	52.709362
2743.330566	71.522926
2742.666504	97.858139
2742.002197	56.447773
2741.337646	86.539688
2740.673096	97.812141
2740.008545	82.751144
2739.343750	97.781479
2738.678955	112.807098
2738.013916	60.154354
2737.348877	90.217392
2736.683594	90.203247
2736.018311	105.220619
2735.353027	93.932251
2734.687500	112.701027
2734.021973	116.439468
2733.356201	101.399117
2732.690430	78.853615
2732.024658	90.104279
2731.358643	112.612686
2730.692383	67.557014
2730.026367	116.329941
2729.359863	101.303734
2728.693604	123.796249
2728.027100	105.022766
2727.360352	90.005386
2726.693604	149.985443
2726.026855	123.718575
2725.359863	142.441467
2724.692871	89.948914
2724.025635	149.891327
2723.358398	131.134323
2722.691162	153.590393
2722.023682	104.874535
2721.355957	119.837799
2720.688477	119.818985
2720.020508	112.312668
2719.352783	123.524536
2718.684814	138.475464
2718.016602	116.001770
2717.348389	101.017937
2716.680176	149.632706
2716.011719	168.310349
2715.343262	123.408211
2714.674561	123.388832
2714.005859	130.846390
2713.337158	194.369812
2712.668213	142.017166
2711.999023	141.994858
2711.329834	168.125397
2710.660645	130.743652
2709.991455	149.397842
2709.321777	141.905655
2708.652344	112.013176
2707.982666	126.928314
2707.312988	175.432159
2706.643066	111.960381
2705.972900	152.988464
2705.302979	152.964432
2704.632813	115.637848
2703.962402	145.457016
2703.291992	137.975983
2702.621582	85.755371
2701.950928	130.476791
2701.280273	111.819664
2700.609375	130.435760
2699.938477	96.879906
2699.267334	93.139107
2698.596191	96.849442
2697.925049	122.904961
2697.253662	130.333252
2696.582031	104.250198
2695.910645	126.569618
2695.239014	111.661507
2694.567139	111.643944
2693.895264	133.951660
2693.223145	100.447937
2692.551270	126.470100
2691.878906	104.135460
2691.206543	130.148849
2690.534180	92.948830
2689.861816	81.782097
2689.189209	111.503494
2688.516357	107.769753
2687.843506	52.018589
2687.170654	107.735832
2686.497559	107.718872
2685.824463	100.274200
2685.151123	96.545135
2684.477783	85.391869
2683.804199	100.226852
2683.130615	115.057152
2682.457031	100.195290
2681.783203	100.179512
2681.109375	89.034431
2680.435303	103.857147
2679.761230	100.132195
2679.086914	103.824440
2678.412598	96.393227
2677.738281	107.498589
2677.063721	92.656593
2676.389160	96.347679
2675.714355	107.447792
2675.039551	85.203789
2674.364502	88.894295
2673.689453	96.286980
2673.014404	99.974571
2672.339111	122.171883
2671.663574	88.838280
2670.988037	99.927315
2670.312500	92.510704
2669.636719	110.995354
2668.960938	96.180809
2668.285156	59.178860
2667.609131	88.754295
2666.932861	55.462692
2666.256592	88.726318
2665.580322	88.712326
2664.903809	92.394104
2664.227295	84.989174
2663.550781	125.616356
2662.874023	88.656387
2662.197021	88.642403
2661.520020	84.935577
2660.843018	73.845375
2660.165771	99.675529
2659.488525	84.895393
2658.811035	92.263039
2658.133545	70.108849
2657.455811	106.991364
2656.778076	70.086731
2656.100342	92.204834
2655.422363	106.940727
2654.744385	92.175735
2654.066162	92.161186
2653.387939	110.575974
2652.709473	73.705681
2652.031006	114.225777
2651.352539	88.418900
2650.673828	77.354324
2649.994873	106.805779
2649.316162	92.059410
2648.636963	117.817444
2647.958008	95.711555
2647.278809	77.293282
2646.599365	95.681335
2645.919922	77.268875
2645.240479	69.898895
2644.560791	58.852932
2643.880859	62.521366
2643.201172	80.897224
2642.520996	62.501617
2641.841064	62.491745
2641.160889	69.832680
2640.480469	110.244705
2639.800049	66.136375
2639.119629	95.515228
2638.438965	124.884789
2637.758301	99.157547
2637.077393	58.750744
2636.396484	77.098167
2635.715332	58.732174
2635.034180	95.424698
2634.353027	110.088020
2633.671631	99.063560
2632.989990	106.384781
2632.308350	84.360802
2631.626709	95.349304
2630.944824	88.000832
2630.262939	58.657944
2629.581055	65.979752
2628.898926	62.304359
2628.216553	62.294506
2627.534180	91.595078
2626.851807	87.917374
2626.169189	84.240822
2625.486572	102.537827
2624.803711	128.152008
2624.120850	95.183571
2623.437988	102.489174
2622.754883	84.174217
2622.071533	91.479240
2621.388184	91.464767
2620.704834	73.160233
2620.021240	62.176357
2619.337646	62.166519
2618.653809	80.438057
2617.969971	95.048119
2617.286133	98.688194
2616.602051	102.327110
2615.917725	102.310913
2615.233398	91.334572
2614.549072	91.320114
2613.864502	84.001205
2613.179932	91.291199
2612.495117	87.625679
2611.810303	94.912788
2611.125488	91.247841
2610.440430	105.830734
2609.755127	58.380127
2609.069824	94.852676
2608.384521	87.542450
2607.698975	105.763710
2607.013428	91.161171
2606.327637	76.563255
2605.641846	80.196411
2604.956055	80.183708
2604.270020	83.815140
2603.583740	83.801865
2602.897461	69.216660
2602.211182	76.490501
2601.524658	94.687515
2600.838135	109.237511
2600.151367	43.688080
2599.464600	69.161827
2598.777832	72.790390
2598.090820	101.890388
2597.403564	87.320770
2596.716309	120.047028
2596.029053	90.930305
2595.341553	65.459435
2594.654053	98.173592
2593.966309	94.522537
2593.278564	83.602837
2592.590820	90.858238
2591.902832	32.703777
2591.214600	50.864475
2590.526367	83.549812
2589.838135	98.064659
2589.149658	79.891861
2588.461182	72.617447
2587.772461	112.539185
2587.083740	79.853844
2586.394775	97.986900
2585.705811	68.942802
2585.016846	68.931862
2584.327637	94.312843
2583.638184	123.312607
2582.948975	87.030380
2582.259277	101.519333
2581.569824	68.877182
2580.879883	61.617172
2580.190186	79.727211
2579.500244	76.091164
2578.810059	57.965019
2578.119873	101.422676
2577.429688	72.433266
2576.739258	94.148300
2576.048584	68.789757
2575.358154	79.638649
2574.667236	61.529182
2573.976563	90.469719
2573.285645	75.982491
2572.594482	97.676262
2571.903320	94.043686
2571.212158	94.028748
2570.520752	90.397888
2569.829102	86.768188
2569.137451	86.754402
2568.445801	68.669655
2567.753906	54.204273
2567.062012	75.873924
2566.370117	75.861870
2565.677979	75.849815
2564.985596	57.781147
2564.293213	64.993462
2563.600830	64.983131
2562.908203	83.020798
2562.215332	90.225655
2561.522705	68.560600
2560.829590	104.628487
2560.136719	68.538803
2559.443604	75.741364
2558.750244	43.273899
2558.056885	79.322868
2557.363525	86.520271
2556.669922	64.879883
2555.976074	68.473434
2555.282227	57.652668
2554.588379	79.259804
2553.894287	54.032181
2553.200195	82.836166
2552.505859	32.408997
2551.811523	75.608955
2551.117188	89.996346
2550.422607	68.386337
2549.727783	79.171585
2549.032959	68.364578
2548.338135	61.158573
2547.643066	104.312721
2546.947998	75.524780
2546.252686	53.937683
2545.557373	71.905464
2544.861816	35.947010
2544.166260	53.911930
2543.470703	75.464684
2542.774902	71.859688
2542.078857	75.440659
2541.382813	64.653130
2540.686768	71.825371
2539.990479	78.995323
2539.294189	43.081497
2538.597656	104.097031
2537.901123	71.779625
2537.204346	32.295685
2536.507568	86.108109
2535.810791	21.523600
2535.113770	75.320595
2534.416504	100.411461
2533.719238	75.296600
2533.021973	60.944675
2532.324463	75.272606
2531.626953	71.676773
2530.929199	71.665352
2530.231445	64.488533
2529.533447	68.060379
2528.835449	53.723316
2528.137451	42.971802
2527.439209	75.188667
2526.740723	75.176682
2526.042236	82.323242
2525.343750	67.995316
2524.645020	64.406342
2523.946289	89.438988
2523.247314	96.578705
2522.548340	75.104790
2521.849121	71.516968
2521.149902	53.629173
2520.450684	85.792992
2519.751221	50.037930
2519.051514	64.324219
2518.351807	46.448967
2517.652100	71.448555
2516.952148	89.296440
2516.252197	53.569317
2515.552002	60.702206
2514.851807	82.113411
2514.151367	82.100304
2513.450928	60.673153
2512.750244	71.368790
2512.049561	67.789528
2511.348877	67.778709
2510.647949	42.800774
2509.946777	71.323235
2509.245605	71.311852
2508.544434	64.170418
2507.843018	49.902355
2507.141602	74.841583
2506.439941	78.392952
2505.738281	57.003952
2505.036377	96.178810
2504.334473	71.232185
2503.632568	67.659767
2502.930420	117.495567
2502.228027	78.317863
2501.525635	71.186684
2500.823242	60.499020
2500.120605	67.605751
2499.417969	106.728867
2498.715088	78.255333
2498.012207	56.903873
2497.309082	74.674400
2496.605957	74.662468
2495.902588	60.431389
2495.199219	74.638611
2494.495605	60.412071
2493.791992	67.508583
2493.088379	49.735218
2492.384521	88.798691
2491.680664	78.130356
2490.976563	74.567055
2490.272461	85.205864
2489.568115	81.642563
2488.863770	131.317047
2488.159180	67.422295
2487.454590	99.343277
2486.749756	28.379255
2486.044922	95.764671
2485.339844	60.286629
2484.634766	67.368401
2483.929688	95.718727
2483.224365	113.426270
2482.519043	102.776108
2481.813477	60.238426
2481.107666	70.857399
2480.402100	81.472969
2479.696045	70.834724
2478.990234	77.905731
2478.284180	92.055679
2477.577881	67.260689
2476.871582	67.249924
2476.165039	67.239159
2475.458496	45.998379
2474.751953	49.528786
2474.045166	81.355698
2473.338379	88.415947
2472.631348	70.721436
2471.924072	63.639099
2471.217041	53.024090
2470.509521	70.687469
2469.802246	63.608532
2469.094482	67.131592
2468.386963	77.718864
2467.679199	77.706413
2466.971191	63.567795
2466.263184	67.088593
2465.554932	91.790733
2464.846680	52.947708
2464.138428	77.644196
2463.429932	74.103043
2462.721436	52.922264
2462.012695	74.079300
2461.303955	70.540405
2460.594971	59.949738
2459.885986	74.043694
2459.176758	88.133125
2458.467529	74.019958
2457.758057	66.959702
2457.048584	52.854450
2456.338867	81.030502
2455.629150	52.837505
2454.919434	81.004517
2454.209473	59.863308
2453.499512	66.895325
2452.789307	66.884598
2452.078857	80.952576
2451.368408	45.748466
2450.657959	80.926613
2449.947266	45.733795
2449.236572	70.348396
2448.525879	77.370827
2447.814697	105.488747
2447.103760	84.377457
2446.392578	80.848763
2445.681152	73.806587
2444.969727	84.336853
2444.258301	59.729019
2443.546631	66.745247
2442.834717	84.296257
2442.122803	56.188488
2441.410889	73.735558
2440.698730	52.659801
2439.986572	98.282516
2439.274170	87.738159
2438.561768	31.580667
2437.849121	98.235191
2437.136475	63.141056
2436.423584	70.145462
2435.710693	63.120781
2434.997803	70.122940
2434.284424	66.606094
2433.571289	84.120499
2432.857910	101.629280
2432.144287	73.581795
2431.430908	87.583305
2430.717041	63.049854
2430.003174	80.550758
2429.289307	42.019733
2428.575195	84.025963
2427.861084	73.510902
2427.146729	90.998878
2426.432373	41.992733
2425.717773	59.480145
2425.003174	87.456741
2424.288330	83.944984
2423.573486	83.931488
2422.858643	73.428253
2422.143555	69.920425
2421.428223	83.891022
2420.712891	52.423462
2419.997559	69.886711
2419.281982	55.900379
2418.566162	101.303146
2417.850586	66.360359
2417.134521	87.302216
2416.418457	80.305122
2415.702393	76.801239
2414.986084	27.923233
2414.269775	83.756226
2413.553223	59.317783
2412.836670	76.751846
2412.120117	55.810543
2411.403076	73.239555
2410.686279	62.766659
2409.969238	97.621315
2409.251953	90.633781
2408.534668	52.280304
2407.817383	90.604614
2407.099854	69.684639
2406.382080	76.640770
2405.664307	80.111542
2404.946533	52.238247
2404.228516	73.121773
2403.510498	87.035721
2402.792236	69.617371
2402.073975	62.645542
2401.355469	76.554443
2400.636963	80.021309
2399.918213	48.700779
2399.199463	52.171005
2398.480469	27.820055
2397.761475	79.969772
2397.042480	69.527733
2396.323242	45.185749
2395.603760	86.881676
2394.884277	62.544727
2394.164795	55.586357
2393.445068	76.418930
2392.725098	93.771759
2392.005127	79.866776
2391.285156	79.853905
2390.564941	69.426987
2389.844727	55.532639
2389.124268	79.815308
2388.403809	52.045071
2387.683105	48.567570
2386.962402	69.371056
2386.241455	83.231850
2385.520508	72.816132
2384.799316	79.738144
2384.078125	103.989502
2383.356689	69.315155
2382.635254	62.373585
2381.913818	79.686729
2381.192139	62.353470
2380.470215	41.562275
2379.748291	65.796326
2379.026367	76.172928
2378.304199	72.698792
2377.581787	76.148354
2376.859375	62.293148
2376.136963	65.743271
2375.414307	69.192276
2374.691650	76.099228
2373.968750	58.794460
2373.245850	55.327034
2372.522705	51.860722
2371.799316	69.136475
2371.076172	79.494110
2370.352783	76.025574
2369.629150	76.013298
2368.905518	100.183174
2368.181641	82.896828
2367.457764	44.895203
2366.733643	75.964226
2366.009521	58.690155
2365.285400	58.680676
2364.561035	65.573692
2363.836426	55.211037
2363.111816	75.902916
2362.387207	103.487259
2361.662354	72.429382
2360.937256	75.866142
2360.212158	75.853889
2359.487061	103.420410
2358.761719	82.722961
2358.036377	72.370903
2357.310791	72.359207
2356.584961	79.237755
2355.859375	55.113010
2355.133301	99.876190
2354.407471	65.425552
2353.681152	55.086296
2352.955078	103.270111
2352.228516	79.160950
2351.502197	72.265709
2350.775635	55.050686
2350.048828	92.883018
2349.322021	75.670219
2348.594971	103.169983
2347.867920	79.084198
2347.140869	48.130424
2346.413330	99.682617
2345.686035	75.609062
2344.958496	72.160614
2344.230713	51.534962
2343.502930	89.312820
2342.775146	72.125610
2342.047119	58.377953
2341.319092	85.836037
2340.590820	58.359066
2339.862305	78.943604
2339.133789	78.930832
2338.405273	65.193184
2337.676514	102.919945
2336.947754	65.172081
2336.218750	78.879753
2335.489746	96.011986
2334.760498	78.854225
2334.031250	75.413567
2333.301758	78.828697
2332.572266	61.682037
2331.842529	54.819599
2331.112793	75.364746
2330.382813	95.903236
2329.652832	51.368416
2328.922607	68.480133
2328.192383	61.622135
2327.462158	58.189259
2326.731689	71.869209
2326.000977	68.435776
2325.270264	47.897285
2324.539307	78.675652
2323.808350	85.503159
2323.077393	58.132729
2322.346191	64.961349
2321.614746	75.206215
2320.883301	95.701492
2320.151855	71.764488
2319.420166	112.754486
2318.688232	64.908730
2317.956299	92.223770
2317.224365	88.793686
2316.492188	88.779289
2315.760010	81.936829
2315.027588	75.096588
2314.295166	98.974907
2313.562500	71.659866
2312.829590	78.471886
2312.096924	81.870430
2311.363770	78.446442
2310.630615	78.433716
2309.897461	85.240219
2309.164063	85.226395
2308.430664	71.578560
2307.697021	92.014648
2306.963379	74.962738
2306.229492	88.577950
2305.495605	78.344704
2304.761719	68.114777
2304.027344	47.672607
2303.293213	64.688042
2302.558838	64.677544
2301.824219	61.263519
2301.089600	61.253578
2300.354736	85.060608
2299.619873	51.028080
2298.885010	74.829041
2298.149658	71.416122
2297.414551	61.203880
2296.679199	81.591927
2295.943604	78.179573
2295.208008	67.971199
2294.472412	37.378086
2293.736572	81.538948
2293.000488	81.525711
2292.264404	78.116112
2291.528320	64.520226
2290.791992	74.695496
2290.055420	67.893967
2289.318848	71.277084
2288.582275	71.265503
2287.845459	81.433060
2287.108398	91.597305
2286.371582	57.663006
2285.634277	61.045029
2284.896973	50.862591
2284.159668	94.928070
2283.422119	105.081856
2282.684570	101.675591
2281.946777	67.772713
2281.208740	74.537865
2280.470703	77.913284
2279.732666	94.835533
2278.994385	125.298012
2278.256104	77.875290
2277.517578	111.715942
2276.779053	74.465187
2276.040283	60.916153
2275.301514	77.824646
2274.562500	84.578255
2273.823486	91.329659
2273.084229	77.786682
2272.344971	77.774033
2271.605469	77.761383
2270.865967	81.129112
2270.126221	60.836933
2269.386475	91.240555
2268.646484	81.089516
2267.906494	118.236305
2267.166260	111.461807
2266.426025	97.935341
2265.685547	91.166344
2264.945068	47.263744
2264.204346	84.385803
2263.463623	104.621361
2262.722656	80.984001
2261.981689	74.223251
2261.240723	80.957634
2260.499268	91.062508
2259.758057	118.024773
2259.016602	60.688572
2258.274902	84.275955
2257.533203	80.891747
2256.791260	87.618454
2256.049316	80.865395
2255.307129	67.376854
2254.564941	57.260998
2253.822754	101.032364
2253.080322	77.445526
2252.337646	90.899498
2251.594971	97.616890
2250.852051	84.138779
2250.109131	87.490074
2249.366211	94.204727
2248.623047	94.189369
2247.879639	57.177086
2247.136230	63.893387
2246.392578	60.520710
2245.648926	77.319412
2244.905273	73.945641
2244.161377	90.736679
2243.417236	77.281609
2242.673096	77.269005
2241.928955	83.974358
2241.184570	60.451675
2240.439941	73.873337
2239.695313	63.789295
2238.950439	67.135674
2238.205566	67.124725
2237.460693	80.536530
2236.715576	60.392544
2235.970215	63.737289
2235.224854	117.391640
2234.479492	93.897987
2233.733887	80.470863
2232.988037	60.343296
2232.242188	73.740883
2231.496338	70.377541
2230.750244	103.873703
2230.003906	73.704788
2229.257568	80.392097
2228.511230	77.029854
2227.764648	77.017281
2227.017822	90.396835
2226.270996	66.949684
2225.523926	70.285690
2224.776855	60.235043
2224.029785	97.029503
2223.282471	80.287163
2222.534912	93.653061
2221.787354	96.981972
2221.039795	80.247833
2220.291992	86.920959
2219.543945	63.508785
2218.795898	86.892563
2218.047852	116.951653
2217.299561	110.250687
2216.551025	100.211517
2215.802490	100.195145
2215.053955	70.125145
2214.305176	93.484909
2213.556152	113.498840
2212.807129	86.779045
2212.058105	90.101974
2211.308838	70.067863
2210.559326	100.080582
2209.809814	63.374008
2209.060303	76.703362
2208.310547	80.025208
2207.560547	76.678284
2206.810547	99.998802
2206.060303	103.315201
2205.310059	73.308472
2204.559814	73.296486
2203.809326	73.284500
2203.058594	66.611374
2202.307861	66.600479
2201.557129	86.566460
2200.806152	79.894432
2200.054932	69.896194
2199.303711	76.540451
2198.552246	89.837128
2197.800781	103.129456
2197.049316	99.786369
2196.297607	76.490364
2195.545654	109.729088
2194.793701	66.491592
2194.041504	99.721062
2193.289307	93.057762
2192.537109	83.073685
2191.784668	109.639313
2191.031982	69.759048
2190.279297	86.354210
2189.526367	99.623161
2188.773438	119.528214
2188.020508	119.508644
2187.267090	89.616806
2186.513916	82.964935
2185.760498	92.905510
2185.006836	96.207802
2184.253174	79.607208
2183.499268	126.024101
2182.745361	119.371696
2181.991211	132.613495
2181.237061	82.869850
2180.482666	109.370277
2179.728271	106.038651
2178.973877	106.021278
2178.218994	99.378662
2177.464355	112.610687
2176.709229	112.592232
2175.954346	99.329803
2175.198975	112.555328
2174.443848	89.367523
2173.688232	105.899696
2172.932861	112.499985
2172.177002	82.707016
2171.421387	92.616669
2170.665283	82.679893
2169.909424	89.279640
2169.153076	79.346664
2168.396729	79.333656
2167.640381	95.845779
2166.883789	105.743515
2166.127197	122.245880
2165.370361	99.102020
2164.613525	79.268608
2163.856445	69.348656
2163.099365	118.863907
2162.342041	89.133301
2161.584473	92.419365
2160.826904	59.402702
2160.069336	122.085518
2159.311523	98.972008
2158.553711	49.477882
2157.795654	108.833473
2157.037354	92.328400
2156.279053	79.125633
2155.520752	98.890808
2154.762207	82.395477
2154.003662	82.381950
2153.244873	108.726318
2152.485840	85.649094
2151.726807	85.635025
2150.967773	85.620964
2150.208252	52.681171
2149.448975	82.300812
2148.689453	62.538342
2147.929688	105.310432
2147.169922	75.679436
2146.410156	98.696091
2145.650146	72.365242
2144.889893	82.219719
2144.129639	69.053215
2143.369141	78.904991
2142.608643	72.317696
2141.847900	62.445923
2141.087158	82.152184
2140.326416	95.280869
2139.565186	49.275108
2138.804199	82.111679
2138.042725	91.949966
2137.281494	82.084686
2136.519775	62.374104
2135.758301	91.904617
2134.996338	75.480667
2134.234619	72.187027
2133.472412	88.578598
2132.710449	75.443436
2131.947998	65.592194
2131.185547	49.186054
2130.423096	95.077400
2129.660400	52.447868
2128.897705	81.936310
2128.134766	81.922829
2127.371826	98.291222
2126.608643	85.171707
2125.845215	98.258881
2125.081787	85.143684
2124.318359	88.403885
2123.554688	78.568298
2122.790771	91.647926
2122.026855	94.905449
2121.262939	62.169193
2120.498779	75.245056
2119.734375	111.213509
2118.969971	85.031624
2118.205322	111.176895
2117.440674	88.272995
2116.676025	104.602623
2115.911133	94.780510
2115.145996	81.693886
2114.380859	68.611557
2113.615479	84.933655
2112.850098	97.984222
2112.084473	107.764893
2111.318848	75.096489
2110.552979	88.142227
2109.787109	75.071747
2109.020996	81.586281
2108.254883	81.572838
2107.488525	110.920776
2106.722168	104.378822
2105.955566	94.577721
2105.188965	68.476028
2104.422119	101.066994
2103.655029	74.972832
2102.887939	81.478775
2102.120850	94.499794
2101.353516	94.484215
2100.585938	78.180939
2099.818359	71.654045
2099.050781	91.181023
2098.282959	71.630417
2097.514893	87.895554
2096.746826	87.881058
2095.978760	104.138153
2095.210449	78.090729
2094.441895	84.584335
2093.673340	78.064972
2092.904541	81.304260
2092.135742	100.800652
2091.366699	97.532921
2090.597656	110.519073
2089.828369	87.750664
2089.059082	90.985664
2088.289551	113.713318
2087.520020	90.955635
2086.750244	77.949104
2085.980469	87.678268
2085.210449	77.923370
2084.440186	64.925423
2083.670166	77.897644
2082.899658	133.053177
2082.129150	120.052551
2081.358643	90.835579
2080.587891	113.525719
2079.816895	87.562523
2079.045898	71.335457
2078.274902	94.017570
2077.503662	81.036240
2076.732178	100.468338
2075.960693	77.769096
2075.188965	87.475777
2074.417236	93.939941
2073.645264	84.208099
2072.873291	80.955948
2072.101074	84.180275
2071.328857	97.115028
2070.556396	87.389084
2069.783936	90.610733
2069.011230	87.360199
2068.238525	80.875702
2067.465576	93.800301
2066.692627	67.913132
2065.919434	67.901901
2065.145996	100.219566
2064.372559	74.344154
2063.599121	109.881889
2062.825439	119.557571
2062.051514	113.076302
2061.277588	77.525208
2060.503662	67.823341
2059.729248	64.582970
2058.955078	113.001503
2058.180664	90.386246
2057.406006	64.550926
2056.631348	119.399452
2055.856445	90.341393
2055.081543	80.648613
2054.306396	103.213135
2053.531250	112.870689
2052.755859	96.730293
2051.980225	106.385712
2051.204590	96.698273
2050.428955	83.791298
2049.653076	86.999634
2048.877197	115.980316
2048.101074	54.759415
2047.324707	96.618256
2046.548340	96.602264
2045.771851	90.147179
2044.995239	90.132256
2044.218506	93.335800
2043.441528	109.410057
2042.664551	99.739708
2041.887329	77.205048
2041.110107	119.004730
2040.332642	96.474335
2039.555176	83.597237
2038.777466	109.301353
2037.999634	67.498474
2037.221802	61.059929
2036.443726	83.541847
2035.665527	96.378464
2034.887207	86.726242
2034.108765	89.923416
2033.330200	93.119530
2032.551514	89.893608
2031.772705	125.188202
2030.993774	99.492073
2030.214600	80.222237
2029.435425	102.667442
2028.656128	99.442589
2027.876587	105.840691
2027.097046	67.341995
2026.317261	92.980667
2025.537476	99.376640
2024.757446	92.949829
2023.977295	89.729774
2023.197021	121.755920
2022.416626	108.921432
2021.636230	92.888168
2020.855591	89.670242
2020.074707	128.079102
2019.293823	92.841934
2018.512817	80.022865
2017.731689	99.211891
2016.950439	95.995575
2016.168945	108.776924
2015.387451	102.361290
2014.605713	111.939072
2013.823975	115.118217
2013.041992	102.310318
2012.260010	86.309998
2011.477783	111.864754
2010.695435	102.259369
2009.912964	121.412834
2009.130371	111.809036
2008.347656	83.044350
2007.564819	89.417519
2006.781860	89.402672
2005.998779	108.542351
2005.215576	79.797295
2004.432129	134.037186
2003.648682	111.679092
2002.864990	98.899338
2002.081299	105.262444
2001.297363	82.920265
2000.513428	114.793594
1999.729248	127.527245
1998.944946	133.881348
1998.160522	101.987885
1997.375977	108.344116
1996.591309	89.209732
1995.806519	108.308098
1995.021606	111.475090
1994.236572	108.272087
1993.451416	149.645355
1992.666016	82.768768
1991.880615	101.852310
1991.094971	117.747154
1990.309326	98.636612
1989.523438	124.070580
1988.737549	104.965340
1987.951416	133.570023
1987.165161	117.649254
1986.378784	117.629684
1985.592285	108.074158
1984.805664	92.165565
1984.018921	117.570976
1983.232056	114.374352
1982.444946	95.296097
1981.657837	111.160278
1980.870605	123.843689
1980.083130	117.473175
1979.295654	104.755936
1978.507935	139.651321
1977.720093	111.067787
1976.932129	104.703621
1976.144165	136.409286
1975.355957	85.638077
1974.567627	95.137573
1973.779053	123.658249
1972.990479	76.084709
1972.201782	107.768723
1971.412964	129.934753
1970.623901	123.575890
1969.834839	117.219131
1969.045532	101.361816
1968.256226	123.514137
1967.466675	91.828545
1966.677002	136.136871
1965.887207	94.963387
1965.097290	126.596756
1964.307251	139.233215
1963.517090	107.571373
1962.726807	132.860138
1961.936401	129.675186
1961.145874	66.407928
1960.355103	101.176163
1959.564331	120.126656
1958.773315	97.981728
1957.982178	110.606087
1957.191040	126.385872
1956.399658	126.364799
1955.608154	135.819504
1954.816528	116.848457
1954.024780	123.144043
1953.232910	126.280518
1952.440918	119.946480
1951.648682	135.706268
1950.856445	91.507568
1950.063965	94.647209
1949.271484	123.020836
1948.478760	126.154167
1947.685913	113.519798
1946.893066	132.417664
1946.099976	129.243286
1945.306763	97.704231
1944.513428	135.502594
1943.719971	160.685562
1942.926270	129.157028
1942.132568	138.584396
1941.338745	138.561264
1940.544678	141.686722
1939.750610	116.478516
1938.956299	116.459068
1938.161865	100.704536
1937.367310	163.617538
1936.572632	138.422485
1935.777832	106.944969
1934.982910	128.941513
1934.187866	138.353134
1933.392700	132.042297
1932.597290	125.733559
1931.801880	106.855667
1931.006226	131.976120
1930.210571	128.812302
1929.414673	163.344406
1928.618652	113.065689
1927.822510	147.588867
1927.026245	122.446884
1926.229858	131.843842
1925.433350	147.514862
1924.636719	97.280777
1923.839844	119.227470
1923.042969	150.577942
1922.245850	159.962311
1921.448730	134.847626
1920.651367	141.096008
1919.853882	137.937469
1919.056274	109.704643
1918.258545	153.560806
1917.460693	147.268387
1916.662720	159.775131
1915.864624	156.616089
1915.066284	131.535492
1914.267944	156.563675
1913.469360	156.537491
1912.670776	153.381073
1911.871948	143.966293
1911.072998	140.813019
1910.273926	197.105240
1909.474731	150.150284
1908.675415	115.721474
1907.875977	146.972946
1907.076294	128.188980
1906.276611	118.789406
1905.476807	150.024658
1904.676758	118.749626
1903.876587	131.227615
1903.076294	168.692963
1902.275879	156.171036
1901.475342	131.161697
1900.674683	174.852966
1899.873901	149.848877
1899.072998	143.581116
1898.271851	143.557068
1897.470703	162.254715
1896.669312	137.269440
1895.867920	134.127213
1895.066284	168.410599
1894.264526	146.555038
1893.462646	149.648148
1892.660645	171.443085
1891.858521	149.597992
1891.056152	143.340698
1890.253784	149.547836
1889.451172	143.292648
1888.648560	149.497696
1887.845703	152.586655
1887.042725	149.447571
1886.239624	140.083618
1885.436401	149.397461
1884.633057	136.924713
1883.829590	140.013153
1883.025879	155.544067
1882.222168	130.635101
1881.418213	161.711578
1880.614258	139.919235
1879.810059	167.874908
1879.005737	170.955017
1878.201294	164.710831
1877.396729	155.361511
1876.592041	158.442154
1875.787231	158.415558
1874.982178	186.339966
1874.177124	176.993256
1873.371826	186.277420
1872.566406	148.996933
1871.760986	183.111313
1870.955322	161.359146
1870.149536	164.434601
1869.343506	145.794876
1868.537476	142.668900
1867.731323	170.553741
1866.924927	186.027374
1866.118530	154.996780
1865.311890	201.461975
1864.505127	173.538086
1863.698242	176.607315
1862.891235	188.969055
1862.084106	195.131973
1861.276855	151.743820
1860.469482	176.488663
1859.661865	195.033646
1858.854126	170.238861
1858.046387	191.873367
1857.238403	191.841125
1856.430298	182.527802
1855.622070	201.056152
1854.813721	188.651764
1854.005249	200.988571
1853.196533	151.488998
1852.387817	163.827896
1851.578857	169.981491
1850.769775	173.042969
1849.960693	194.640594
1849.151367	182.251816
1848.341919	169.867188
1847.532227	142.046844
1846.722534	166.722595
1845.912720	157.433746
1845.102661	166.666519
1844.292603	151.208984
1843.482300	178.951950
1842.671875	154.242981
1841.861328	188.144760
1841.050659	185.029282
1840.239868	135.665314
1839.428833	157.221970
1838.617798	175.689087
1837.806519	203.395233
1836.995117	200.279770
1836.183716	209.488190
1835.372070	190.971786
1834.560303	197.098969
1833.748291	200.144943
1832.936279	169.324890
1832.124146	138.515228
1831.311768	187.733459
1830.499390	212.318481
1829.686768	163.057739
1828.874023	178.410492
1828.061157	181.455978
1827.248169	184.500412
1826.434937	169.096893
1825.621704	196.734131
1824.808228	172.113373
1823.994751	215.105453
1823.181030	159.765701
1822.367188	156.666885
1821.553223	171.997391
1820.739136	190.393585
1819.924927	196.502182
1819.110474	171.910431
1818.296021	220.990448
1817.481323	208.678009
1816.666626	202.506271
1815.851685	156.455734
1815.036621	196.303513
1814.221436	199.337143
1813.406006	193.171112
1812.590576	193.138535
1811.774902	202.301483
1810.959229	205.332016
1810.143311	186.912537
1809.327271	214.453613
1808.511108	205.228119
1807.694824	196.005737
1806.878418	208.220947
1806.061768	195.939590
1805.245117	195.906540
1804.428223	217.297134
1803.611206	183.600388
1802.794067	198.866852
1801.976807	168.243561
1801.159424	201.858185
1800.341919	207.940002
1799.524170	204.847473
1798.706421	198.699066
1797.888428	171.157990
1797.070313	201.687851
1796.252075	210.819870
1795.433716	186.345520
1794.615234	238.237640
1793.796509	219.874527
1792.977783	228.997284
1792.158813	210.641907
1791.339844	219.763123
1790.520630	161.742752
1789.701294	213.586411
1788.881714	222.702484
1788.062134	198.263229
1787.242432	204.329102
1786.422485	185.999542
1785.602417	198.162735
1784.782349	243.851379
1783.962036	207.238632
1783.141479	191.968048
1782.320923	194.982193
1781.500244	191.903152
1780.679321	204.052979
1779.858398	222.288788
1779.037231	176.583145
1778.215942	216.125580
1777.394531	197.827988
1776.572998	164.321609
1775.751221	219.058426
1774.929443	188.601730
1774.107422	194.652725
1773.285278	200.701675
1772.463013	221.950653
1771.640625	197.593872
1770.818115	209.718002
1769.995483	185.371506
1769.172607	227.877213
1768.349731	191.384460
1767.526611	206.538742
1766.703369	224.724716
1765.880005	224.686676
1765.056519	221.612854
1764.232910	212.469498
1763.409058	218.503067
1762.585083	230.603073
1761.761108	206.294128
1760.936890	175.926971
1760.112549	181.962601
1759.288086	248.640106
1758.463379	221.312851
1757.638672	221.275375
1756.813721	200.023300
1755.988647	224.230560
1755.163574	245.399979
1754.338257	221.125473
1753.512695	233.202423
1752.687134	196.825836
1751.861328	211.930374
1751.035522	208.867401
1750.209473	181.593048
1749.383301	199.718491
1748.557007	232.965424
1747.730591	178.475723
1746.903931	226.837448
1746.077271	217.727036
1745.250366	229.784027
1744.423340	223.699142
1743.596313	247.840805
1742.768921	205.491669
1741.941528	253.799606
1741.114014	217.505630
1740.286255	244.652344
1739.458374	226.491516
1738.630493	214.375610
1737.802368	214.339249
1736.973999	235.431335
1736.145630	214.266525
1735.317139	217.247498
1734.488403	265.479675
1733.659546	208.124878
1732.830566	211.105347
1732.001465	235.191757
1731.172241	226.107544
1730.342896	223.054916
1729.513306	241.099518
1728.683594	256.124756
1727.853882	219.928619
1727.023926	256.037781
1726.193726	225.877350
1725.363525	237.883743
1724.533203	228.811325
1723.702637	198.670822
1722.871948	210.675705
1722.041138	237.722198
1721.210205	237.681824
1720.379150	231.625214
1719.547974	231.585861
1718.716553	219.518127
1717.885010	210.461075
1717.053467	294.595459
1716.221558	279.517578
1715.389648	255.429626
1714.557617	225.340790
1713.725342	264.354919
1712.893066	276.324097
1712.060547	234.234955
1711.227905	276.230164
1710.395142	225.149353
1709.562256	252.124405
1708.729126	213.068924
1707.895874	234.035919
1707.062622	266.995575
1706.229126	248.953537
1705.395508	212.924042
1704.561646	302.840424
1703.727783	251.824448
1702.893677	236.794617
1702.059570	263.726349
1701.225220	233.717682
1700.390747	251.653152
1699.556030	269.582520
1698.721313	263.546936
1697.886353	248.530380
1697.051392	242.500427
1696.216187	329.265533
1695.380859	275.338837
1694.545410	269.307373
1693.709717	266.269745
1692.874023	293.145996
1692.038086	254.215988
1691.202026	293.046204
1690.365845	275.057739
1689.529541	224.193680
1688.692993	295.885284
1687.856445	274.917267
1687.019653	274.870453
1686.182739	250.925934
1685.345703	265.816711
1684.508545	322.509155
1683.671143	259.754791
1682.833740	331.354828
1681.996094	289.513000
1681.158325	295.432007
1680.320435	244.659561
1679.482422	247.601013
1678.644287	271.419922
1677.805908	286.284302
1676.967407	271.327393
1676.128784	301.092285
1675.290039	274.215515
1674.451172	265.228485
1673.612183	283.060791
1672.772949	300.887024
1671.933594	285.942871
1671.094116	297.806366
1670.254517	297.755585
1669.414795	279.842529
1668.574829	279.794800
1667.734863	270.818970
1666.894653	318.381195
1666.054321	303.451782
1665.213867	306.374542
1664.373169	330.114288
1663.532471	270.588074
1662.691528	303.244781
1661.850464	309.138000
1661.009277	303.141296
1660.167969	288.232239
1659.326538	303.037842
1658.484863	314.867920
1657.643066	302.934387
1656.801147	311.790985
1655.959106	314.706696
1655.116943	308.716125
1654.274658	320.535095
1653.432129	350.154480
1652.589478	308.558014
1651.746704	317.404541
1650.903809	335.145660
1650.060791	308.399963
1649.217529	302.417542
1648.374146	326.080872
1647.530640	334.916748
1646.687012	349.676331
1645.843262	340.728027
1644.999390	379.180328
1644.155273	358.382660
1643.311035	355.360077
1642.466675	337.534393
1641.622192	361.159271
1640.777588	369.977020
1639.932739	369.913757
1639.087769	355.056519
1638.242798	375.703918
1637.397461	363.808502
1636.552124	360.789032
1635.706665	390.295166
1634.860962	396.140961
1634.015137	375.382843
1633.169189	363.497589
1632.323120	392.983032
1631.476929	395.870056
1630.630493	428.293579
1629.783936	407.547638
1628.937256	377.950531
1628.090454	377.885864
1627.243530	454.566132
1626.396484	380.707794
1625.549194	416.051270
1624.701782	430.731140
1623.854248	371.663269
1623.006592	433.532928
1622.158691	424.612640
1621.310791	424.539948
1620.462646	403.833466
1619.614380	374.292480
1618.765991	430.215332
1617.917358	400.679901
1617.068726	438.905029
1616.219849	391.707184
1615.370850	479.980011
1614.521729	415.126312
1613.672363	391.505981
1612.822998	473.847137
1611.973389	435.511566
1611.123657	461.916229
1610.273804	435.362366
1609.423828	420.582123
1608.573608	458.738251
1607.723389	429.258392
1606.872925	432.124451
1606.022339	452.624207
1605.171509	452.546661
1604.320679	467.159637
1603.469604	455.329132
1602.618408	458.188202
1601.767090	434.616852
1600.915649	481.519897
1600.064087	455.016998
1599.212280	460.809143
1598.360352	490.076019
1597.508301	475.321564
1596.656128	448.837799
1595.803833	486.890839
1594.951294	489.739899
1594.098633	428.082397
1593.245850	445.598389
1592.392944	457.246216
1591.539795	460.098328
1590.686646	457.089325
1589.833252	498.024689
1588.979736	506.726410
1588.126099	462.711151
1587.272217	453.847595
1586.418335	447.914612
1585.564209	480.035217
1584.709961	450.687408
1583.855591	468.166290
1583.000977	476.862518
1582.146362	485.555756
1581.291504	476.698792
1580.436523	461.996796
1579.581421	429.758636
1578.726074	447.222992
1577.870605	479.293945
1577.015137	511.353882
1576.159424	467.443237
1575.303467	458.599884
1574.447510	476.044220
1573.591309	490.562500
1572.734985	467.122101
1571.878540	437.851746
1571.021973	440.695007
1570.165161	414.357208
1569.308350	452.213593
1568.451294	457.969879
1567.594116	425.809601
1566.736694	437.400421
1565.879272	457.733765
1565.021606	463.485077
1564.163818	527.524353
1563.305908	469.153717
1562.447876	460.332550
1561.589600	457.340393
1560.731201	413.574310
1559.872681	480.479065
1559.014038	477.484924
1558.155273	407.538971
1557.296265	477.320679
1556.437134	459.778625
1555.577881	474.246979
1554.718506	413.076599
1553.859009	474.083801
1552.999268	410.026459
1552.139404	476.828125
1551.279419	453.490173
1550.419312	479.570526
1549.558960	450.428101
1548.698608	424.201172
1547.838013	482.227905
1546.977173	415.341675
1546.116333	400.750244
1545.255249	415.198669
1544.394165	458.671997
1543.532837	432.470612
1542.671265	458.514038
1541.809692	435.223175
1540.947876	438.049194
1540.085938	423.471313
1539.223877	466.898193
1538.361694	452.320313
1537.499268	434.848450
1536.636841	420.281067
1535.774170	417.310669
1534.911377	446.213684
1534.048340	451.930786
1533.185303	402.612518
1532.322021	440.191040
1531.458618	454.592651
1530.594971	454.514282
1529.731323	454.435944
1528.867432	428.311615
1528.003418	480.320740
1527.139282	405.019958
1526.275024	451.230133
1525.410522	401.988281
1524.545898	436.617004
1523.681152	445.214722
1522.816284	430.685394
1521.951172	410.381042
1521.086060	427.647308
1520.220703	502.687836
1519.355225	456.384918
1518.489502	441.866089
1517.623779	447.564880
1516.757813	464.809753
1515.891724	432.977844
1515.025513	412.700989
1514.159058	389.545563
1513.292480	424.098633
1512.425781	473.062378
1511.558960	478.748779
1510.692017	467.132019
1509.824829	418.039795
1508.957520	432.380280
1508.090088	435.187683
1507.222534	498.506409
1506.354736	455.204681
1505.486938	475.289886
1504.618896	469.447693
1503.750610	452.089325
1502.882324	440.494995
1502.013794	431.783264
1501.145142	443.220886
1500.276367	454.654541
1499.407471	457.453064
1498.538330	468.880280
1497.669067	451.542847
1496.799683	448.589233
1495.930176	488.762756
1495.060547	482.929108
1494.190674	474.223389
1493.320679	497.130096
1492.450562	502.790344
1491.580200	450.996765
1490.709717	476.767639
1489.839233	436.482849
1488.968384	508.184875
1488.097534	502.355804
1487.226440	447.736847
1486.355347	496.442810
1485.483887	453.320221
1484.612427	487.665222
1483.740845	507.657715
1482.869019	544.849060
1481.997070	484.545044
1481.124878	501.661011
1480.252686	541.700134
1479.380249	621.844360
1478.507690	552.973267
1477.635010	570.065430
1476.762207	541.325256
1475.889160	552.686157
1475.015991	601.264282
1474.142700	601.160156
1473.269165	592.469604
1472.395630	641.015503
1471.521851	615.153870
1470.647949	609.325989
1469.773804	706.466919
1468.899658	674.887939
1468.025269	683.348633
1467.150757	760.415283
1466.276001	780.291016
1465.401245	760.151855
1464.526245	825.736206
1463.651123	837.020020
1462.775879	879.718384
1461.900391	859.575806
1461.024780	905.110718
1460.149048	907.808594
1459.273193	919.068237
1458.397217	970.276489
1457.520996	998.640930
1456.644653	1052.670288
1455.768188	1006.851501
1454.891479	1092.230225
1454.014648	1026.461426
1453.137695	1074.746826
1452.260620	1097.362793
1451.383423	1100.022217
1450.505981	1105.530029
1449.628418	1130.977661
1448.750732	1150.719604
1447.872803	1147.672241
1446.994873	1150.320435
1446.116699	1155.814575
1445.238403	1172.692017
1444.359863	1183.871948
1443.481201	1183.666504
1442.602417	1152.167603
1441.723511	1271.431030
1440.844482	1316.712280
1439.965210	1319.327148
1439.085815	1370.270020
1438.206299	1364.347290
1437.326538	1378.319946
1436.446777	1352.508057
1435.566772	1349.432251
1434.686646	1312.272583
1433.806274	1255.246216
1432.925781	1192.560669
1432.045166	1161.125244
1431.164429	1092.800903
1430.283569	1007.472595
1429.402466	959.060791
1428.521240	927.687561
1427.639893	853.778137
1426.758301	856.465759
1425.876709	774.087830
1424.994873	776.788269
1424.112793	725.632263
1423.230713	708.502136
1422.348389	680.043823
1421.465942	688.424683
1420.583374	671.309814
1419.700562	719.337769
1418.817627	688.065674
1417.934570	614.338684
1417.051392	619.892944
1416.167969	648.085876
1415.284546	580.063293
1414.400757	560.158813
1413.516968	560.061401
1412.633057	576.932617
1411.748901	523.107666
1410.864624	523.016663
1409.980103	511.619171
1409.095459	562.400574
1408.210815	522.743713
1407.325806	545.253967
1406.440796	522.561829
1405.555542	505.525879
1404.670166	536.498291
1403.784668	556.167236
1402.899048	513.730042
1402.013184	519.284973
1401.127197	502.264343
1400.241089	547.316406
1399.354736	513.372375
1398.468262	521.743652
1397.581665	496.275116
1396.694946	490.550171
1395.807983	538.383728
1394.920898	512.925476
1394.033691	532.560608
1393.146362	526.833252
1392.258789	495.756683
1391.371094	532.282349
1390.483276	478.689056
1389.595337	506.758911
1388.707153	526.374451
1387.818848	526.282715
1386.930420	551.515686
1386.041748	509.219116
1385.152954	503.504608
1384.264038	503.416840
1383.375000	520.200439
1382.485718	539.789551
1381.596313	531.262695
1380.706787	581.757690
1379.817139	519.837708
1378.927246	553.460388
1378.037231	505.611664
1377.147095	522.374268
1376.256714	541.938965
1375.366333	569.919250
1374.475586	536.135925
1373.584839	586.559448
1372.693970	592.069153
1371.802856	561.105042
1370.911499	586.252502
1370.020142	586.150146
1369.128540	569.223511
1368.236816	616.784851
1367.344971	616.677185
1366.453003	577.333313
1365.560791	602.451416
1364.668457	627.560730
1363.775879	627.451172
1362.883301	585.332092
1361.990479	627.232056
1361.097534	638.321167
1360.204346	604.619690
1359.311035	629.702209
1358.417603	593.215759
1357.524048	618.291443
1356.630249	576.225281
1355.736450	576.124573
1354.842285	626.356140
1353.948120	640.225403
1353.053711	553.460632
1352.159180	637.206909
1351.264526	578.415710
1350.369751	656.540771
1349.474731	578.213562
1348.579590	586.490906
1347.684204	608.726990
1346.788818	650.498169
1345.893188	644.801758
1344.997314	619.571228
1344.101440	633.414795
1343.205322	619.354553
1342.309082	622.035645
1341.412720	624.715759
1340.516113	680.374939
1339.619385	630.073120
1338.722534	668.987183
1337.825439	666.083191
1336.928223	663.180176
1336.030884	585.056580
1335.133423	626.736694
1334.235718	657.262085
1333.337891	643.224487
1332.439941	609.703491
1331.541870	662.484192
1330.643555	690.198853
1329.745117	639.991699
1328.846436	653.790100
1327.947754	698.181213
1327.048828	723.088989
1326.149780	764.671753
1325.250488	692.254272
1324.351074	783.861511
1323.451538	755.932617
1322.551880	750.242859
1321.651978	741.776855
1320.751953	783.312500
1319.851807	791.506897
1318.951416	816.358826
1318.050903	818.992065
1317.150269	785.539490
1316.249512	849.233032
1315.348511	799.138123
1314.447388	882.227051
1313.546021	873.750977
1312.644653	942.930969
1311.743042	953.857056
1310.841309	914.876892
1309.939331	961.838257
1309.037231	989.383484
1308.135010	978.126404
1307.232666	939.169128
1306.330078	1058.111206
1305.427368	1030.231323
1304.524536	994.054199
1303.621460	1027.101440
1302.718262	1065.672974
1301.814941	1046.113647
1300.911499	1140.008423
1300.007813	1078.944946
1299.104004	1117.480103
1298.199951	1164.298462
1297.295898	1172.389404
1296.391602	1224.710815
1295.487061	1288.070068
1294.582520	1268.498779
1293.677734	1218.539795
1292.772827	1082.956299
1291.867676	963.993347
1290.962402	905.828979
1290.057007	853.207336
1289.151489	811.646973
1288.245728	781.142029
1287.339844	736.849121
1286.433838	728.441956
1285.527588	786.248108
1284.621216	725.427795
1283.714722	678.417847
1282.808105	681.055969
1281.901245	658.881714
1280.994263	595.370056
1280.087036	609.044739
1279.179810	628.225342
1278.272217	644.644287
1277.364624	603.214905
1276.456787	572.815735
1275.548828	603.002869
1274.640747	583.626221
1273.732544	594.533447
1272.824097	575.165039
1271.915405	583.318420
1271.006714	550.203674
1270.097778	539.104736
1269.188721	561.010376
1268.279541	571.909973
1267.370117	593.802063
1266.460571	505.742401
1265.550781	557.867676
1264.640991	491.826324
1263.730957	521.958435
1262.820679	532.853271
1261.910400	475.089661
1260.999878	507.954468
1260.089233	507.865082
1259.178345	428.178436
1258.267334	496.709320
1257.356201	502.109436
1256.444824	463.615082
1255.533447	479.990265
1254.621704	490.875031
1253.709961	455.144745
1252.797974	466.030029
1251.885864	449.502747
1250.973633	411.058167
1250.061157	419.205475
1249.148560	419.131653
1248.235840	454.664032
1247.322876	446.368591
1246.409790	410.696259
1245.496582	418.836395
1244.583130	437.921692
1243.669556	459.736755
1242.755859	443.239471
1241.841919	429.483521
1240.927856	418.467499
1240.013672	443.005157
1239.099365	407.383545
1238.184814	374.508118
1237.270142	423.638855
1236.355225	442.692871
1235.440186	379.774445
1234.525024	371.512360
1233.609741	390.565430
1232.694214	387.765808
1231.778564	404.079010
1230.862671	395.818390
1229.946777	414.853699
1229.030640	387.492340
1228.114258	379.238953
1227.197876	403.722748
1226.281128	390.014648
1225.364380	403.580322
1224.447388	373.518555
1223.530273	370.726715
1222.613037	343.406769
1221.695557	373.320831
1220.777954	384.152893
1219.860229	340.500977
1218.942261	397.634918
1218.024170	370.334259
1217.105957	392.049408
1216.187500	389.258087
1215.268921	348.365295
1214.350220	356.467163
1213.431274	353.683563
1212.512207	353.621094
1211.593018	391.634186
1210.673706	388.845795
1209.754150	337.121399
1208.834351	361.526031
1207.914551	372.333191
1206.994507	331.508209
1206.074219	350.467224
1205.153931	366.703217
1204.233398	358.490875
1203.312744	323.127838
1202.391846	355.649292
1201.470825	325.728027
1200.549683	393.518463
1199.628296	322.899414
1198.706787	355.397858
1197.785156	322.785248
1196.863281	360.696198
1195.941284	390.459167
1195.019165	336.169250
1194.096802	352.373169
1193.174438	349.600769
1192.251709	333.281311
1191.328979	306.131104
1190.406006	308.785583
1189.482788	316.855469
1188.559570	360.122375
1187.636108	343.815430
1186.712402	319.394012
1185.788696	376.168732
1184.864746	319.280975
1183.940552	362.509125
1183.016357	348.920898
1182.091919	321.815796
1181.167236	356.908936
1180.242554	373.066010
1179.317505	327.050690
1178.392456	367.529083
1177.467163	324.232941
1176.541748	356.593048
1175.616211	343.024994
1174.690430	345.664734
1173.764526	351.003571
1172.838501	356.340485
1171.912231	326.587555
1170.985840	372.405792
1170.059204	383.132263
1169.132446	366.878540
1168.205566	401.876587
1167.278564	331.691681
1166.351318	412.518951
1165.423828	390.880066
1164.496338	388.115509
1163.568604	382.657166
1162.640747	363.729309
1161.712646	369.052429
1160.784424	312.426941
1159.856079	336.607269
1158.927490	333.855194
1157.998779	336.487885
1157.069946	387.565308
1156.140869	328.295715
1155.211670	328.237457
1154.282349	303.969299
1153.352783	317.362946
1152.423096	341.507996
1151.493164	328.004608
1150.563232	314.505951
1149.632935	319.825378
1148.702637	333.204254
1147.772095	338.518433
1146.841431	330.399811
1145.910522	324.969757
1144.979492	381.301788
1144.048340	298.006927
1143.116943	311.375366
1142.185425	330.106628
1141.253784	356.881195
1140.321899	321.940887
1139.389893	324.566071
1138.457764	332.554108
1137.525391	305.680908
1136.592896	353.883453
1135.660278	375.264252
1134.727417	361.797668
1133.794434	361.733398
1132.861206	358.990082
1131.927856	385.711823
1130.994385	401.711761
1130.060669	471.258026
1129.126831	468.497162
1128.192871	527.300171
1127.258667	543.263489
1126.324341	564.572510
1125.389893	591.224365
1124.455200	510.876831
1123.520386	486.717560
1122.585327	478.609619
1121.650146	425.058075
1120.714844	422.309631
1119.779297	403.527924
1118.843628	379.409088
1117.907837	365.984497
1116.971802	360.577515
1116.035645	376.536163
1115.099365	360.449219
1114.162842	376.402191
1113.226196	379.004242
1112.289307	341.576843
1111.352417	346.852234
1110.415161	317.446686
1109.477905	338.727356
1108.540405	370.667084
1107.602661	359.936310
1106.664917	325.217865
1105.726807	367.803894
1104.788696	346.420227
1103.850342	380.994415
1102.911865	351.624512
1101.973145	375.532013
1101.034302	380.790863
1100.095337	394.035034
1099.156128	431.231781
1098.216797	404.540466
1097.277344	423.095215
1096.337646	438.982849
1095.397827	404.324280
1094.457764	452.124207
1093.517700	491.929810
1092.577271	446.645844
1091.636841	462.515015
1090.696167	425.225372
1089.755249	499.550720
1088.814209	470.237854
1087.873047	568.434814
1086.931763	467.414429
1085.990234	528.402771
1085.048584	592.024109
1084.106689	533.523010
1083.164673	546.697205
1082.222412	506.798737
1081.280151	530.584656
1080.337524	567.624268
1079.394897	564.871033
1078.452026	556.815735
1077.509033	535.508179
1076.565796	535.412598
1075.622437	548.567444
1074.678955	551.119202
1073.735229	490.090637
1072.791382	513.841125
1071.847290	556.120483
1070.903076	500.419098
1069.958740	521.507751
1069.014160	500.240448
1068.069458	478.980713
1067.124512	566.207581
1066.179565	513.199280
1065.234253	494.593445
1064.288940	592.348389
1063.343384	531.431946
1062.397583	602.710632
1061.451660	626.389954
1060.505615	589.282715
1059.559448	536.336365
1058.613037	565.297913
1057.666382	517.656982
1056.719727	467.392395
1055.772827	425.066254
1054.825684	422.350586
1053.878418	398.522125
1052.931030	353.592194
1051.983398	387.826569
1051.035645	356.103577
1050.087769	356.039886
1049.139648	337.518219
1048.191406	361.185364
1047.242920	376.936279
1046.294312	321.524475
1045.345581	310.927063
1044.396606	342.485504
1043.447510	313.449890
1042.498291	258.089020
1041.548828	334.402466
1040.599121	308.016418
1039.649414	257.950500
1038.699341	315.801239
1037.749268	299.957489
1036.798950	292.011597
1035.848511	323.522491
1034.897827	315.575195
1033.947021	278.708191
1032.996094	304.946808
1032.044922	304.892212
1031.093506	249.651505
1030.142090	349.449524
1029.190430	286.339691
1028.238525	317.806396
1027.286499	288.863159
1026.334351	283.560303
1025.381958	291.384766
1024.429443	293.957184
1023.476807	275.535492
1022.523926	299.099213
1021.570923	270.190338
1020.617737	249.160034
1019.664368	304.182983
1018.710815	246.448929
1017.757080	309.316620
1016.803223	254.223160
1015.849121	280.381470
1014.894897	290.810883
1013.940491	275.042053
1012.985962	269.754791
1012.031189	253.995361
1011.076294	290.602356
1010.121216	285.315094
1009.165955	272.178436
1008.210510	253.813202
1007.254944	279.929291
1006.299133	227.565231
1005.343201	251.061417
1004.387085	227.483582
1003.430786	266.657043
1002.474365	250.926300
1001.517700	235.201187
1000.560913	263.900635
999.603943	248.178818
998.646790	258.582031
997.689514	250.701202
996.731995	237.601181
995.774353	240.169052
994.816528	261.006470
993.858521	237.473221
992.900330	255.694473
991.942017	237.387955
990.983459	237.345306
990.024780	239.910400
989.065918	221.616547
988.106873	226.790298
987.147705	205.899033
986.188293	244.949768
985.228760	231.878845
984.269043	242.256836
983.309143	255.235519
982.349060	226.545914
981.388794	262.954315
980.428406	236.876648
979.467834	234.231506
978.507019	249.802017
977.546082	231.545654
976.585022	221.099350
975.623718	208.056091
974.662292	231.420776
973.700623	181.983612
972.738831	226.138962
971.776855	239.092438
970.814758	215.664169
969.852417	205.233795
968.889954	241.560867
967.927246	238.920456
966.964417	215.509018
966.001404	194.702026
965.038208	215.431473
964.074890	243.938721
963.111328	236.110947
962.147644	254.227554
961.183777	251.588104
960.219727	228.203796
959.255493	233.348236
958.291077	197.014145
957.326538	222.896912
956.361755	225.448135
955.396851	212.453079
954.431763	209.824402
953.466492	235.686188
952.501038	212.338318
951.535461	207.122025
950.569641	212.261826
949.603699	227.752151
948.637573	238.061615
947.671265	227.670090
946.704773	235.389145
945.738098	240.519180
944.771240	217.203979
943.804260	224.920715
942.837097	227.465012
941.869751	227.424011
940.902222	260.973694
939.934509	217.008286
938.966614	258.296631
937.998535	247.920044
937.030334	258.203491
936.061951	250.412216
935.093323	232.299316
934.124573	232.257431
933.155640	258.017273
932.186584	270.869263
931.217285	232.131760
930.247864	260.456421
929.278198	242.361252
928.308411	257.784607
927.338440	275.779755
926.368286	244.806992
925.397949	252.492157
924.427429	249.870605
923.456787	249.825500
922.485901	265.230743
921.514893	275.481201
920.543701	275.431488
919.572327	265.087097
918.600769	239.307266
917.629028	295.864166
916.657104	254.654449
915.685059	272.611084
914.712769	262.276489
913.740356	318.788330
912.767761	300.737885
911.794983	251.854584
910.822021	241.531158
909.848877	269.746704
908.875549	287.677826
907.902039	303.034363
906.928406	269.600494
905.954590	259.283112
904.980530	264.369629
904.006348	320.778961
903.031982	302.760590
902.057434	261.660980
901.082703	297.521423
900.107849	276.952637
899.132751	287.158203
898.157532	264.035217
897.182068	258.861511
896.206482	294.689972
895.230713	317.695190
894.254761	286.898590
893.278625	286.846680
892.302307	291.916138
891.325806	284.182709
890.349182	319.967651
889.372314	304.554077
888.395325	342.881195
887.418091	330.027374
886.440735	327.409729
885.463196	327.350464
884.485474	337.519073
883.507568	324.675476
882.529480	322.060638
881.551270	332.224609
880.572815	327.054230
879.594238	314.221771
878.615417	316.719055
877.636475	354.967529
876.657349	352.349976
875.677979	359.944550
874.698486	344.565308
873.718811	334.295380
872.739014	336.786224
871.758972	346.929016
870.778748	339.214661
869.798401	334.053162
868.817810	318.695221
867.837097	359.423065
866.856140	305.836517
865.875061	379.678162
864.893799	331.202789
863.912354	343.878998
862.930725	348.910217
861.948914	361.578583
860.966919	330.962616
859.984741	361.447449
859.002441	315.572906
858.019897	351.138428
857.037231	356.162750
856.054321	353.554596
855.071289	343.318054
854.088074	333.085236
853.104614	350.820007
852.121033	325.339203
851.137268	353.233948
850.153320	302.354034
849.169189	335.323425
848.184937	337.802429
847.200439	317.425842
846.215759	322.446106
845.230896	363.003326
844.245911	335.019135
843.260681	345.108551
842.275330	370.416901
841.289795	352.593140
840.304016	314.486389
839.318115	319.500702
838.332031	311.836884
837.345764	311.780243
836.359314	276.242859
835.372681	326.870239
834.385864	352.145020
833.398865	339.416229
832.411743	301.367096
831.424377	308.908417
830.436829	281.004944
829.449158	326.513947
828.461243	316.331970
827.473206	321.334869
826.484924	318.746704
825.496521	303.513092
824.507935	318.630798
823.519104	298.346008
822.530151	313.459106
821.541016	300.764923
820.551697	313.345093
819.562195	318.341125
818.572510	298.074768
817.582642	292.969330
816.592590	292.916016
815.602356	300.436768
814.611938	257.470367
813.621399	267.518555
812.630615	290.179565
811.639648	242.192764
810.648560	300.163452
809.657227	272.367676
808.665771	292.489777
807.674072	307.562561
806.682251	262.136749
805.690186	282.249695
804.697998	257.002014
803.705566	267.031891
802.713013	264.464539
801.720276	251.825119
800.727356	269.403778
799.734253	284.458710
798.740906	279.373138
797.747437	294.420746
796.753784	271.723480
795.759949	289.282440
794.765930	281.684601
793.771729	291.691589
792.777344	294.152557
791.782776	304.153595
790.788025	268.913239
789.793091	238.711212
788.798035	258.766022
787.802734	251.183350
786.807251	261.183044
785.811584	273.690002
784.815796	220.920441
783.819763	238.450150
782.823547	243.425751
781.827148	255.926773
780.830627	238.319687
779.833862	228.243515
778.836975	250.771286
777.839844	220.638474
776.842529	228.118591
775.845093	230.583298
774.847412	235.552979
773.849609	220.477432
772.851563	237.971970
771.853394	262.973633
770.854980	192.812119
769.856445	250.359634
768.857666	262.829620
767.858765	205.219940
766.859680	227.702484
765.860352	262.685638
764.860901	235.123245
763.861206	260.088837
762.861389	225.035767
761.861389	227.494598
760.861145	232.451996
759.860779	222.413422
758.860168	227.369919
757.859436	244.815155
756.858521	222.291504
755.857361	239.731277
754.856079	257.164673
753.854614	234.651077
752.852905	217.137360
751.851074	207.116150
750.848999	254.481750
749.846802	261.918610
748.844421	239.424652
747.841797	214.445358
746.839050	214.406128
745.836121	219.352188
744.832947	261.679169
743.829651	221.763672
742.826111	231.688187
741.822449	216.700912
740.818604	224.132339
739.814514	239.030746
738.810303	214.092529
737.805847	189.163422
736.801270	228.945389
735.796448	213.974991
734.791504	251.250198
733.786316	221.358170
732.781006	233.751205
731.775452	228.735901
730.769775	216.264984
729.763855	223.681427
728.757751	231.095154
727.751526	201.239563
726.745056	243.430420
725.738403	221.034073
724.731628	206.095139
723.724609	218.470474
722.717407	250.698578
721.710083	218.390427
720.702515	223.312912
719.694763	230.714386
718.686829	218.270370
717.678711	238.069489
716.670410	215.710922
715.661987	200.797501
714.653320	250.331223
713.644470	188.333511
712.635437	227.940872
711.626221	215.513260
710.616821	195.660065
709.607178	232.768005
708.597412	232.725311
707.587463	210.404495
706.577332	197.991440
705.567017	178.159607
704.556458	212.762711
703.545776	205.303085
702.534912	187.953873
701.523804	153.302643
700.512573	197.773560
699.501099	180.435257
698.489502	197.700974
697.477661	190.252258
696.465698	190.217331
695.453491	177.832901
694.441101	219.780869
693.428589	217.271515
692.415833	190.077667
691.402893	187.574677
690.389771	170.266785
689.376465	189.972961
688.362976	189.938065
687.349304	214.565918
686.335449	194.799927
685.321411	221.883194
684.307190	177.473938
683.292725	197.157028
682.278137	192.192780
681.263367	199.548126
680.248352	179.806610
679.233215	201.937439
678.217834	192.051514
677.202332	155.090012
676.186584	169.829269
675.170654	167.337189
674.154541	209.133026
673.138306	184.495209
672.121826	167.244904
671.105164	189.345413
670.088318	181.934860
669.071289	191.733902
668.054016	203.987000
667.036621	179.377243
666.019043	171.973923
665.001282	191.592834
663.983276	194.013443
662.965149	159.601929
661.946777	193.942032
660.928223	198.815369
659.909546	201.232819
658.890625	193.834961
657.871521	198.705582
656.852234	188.858185
655.832764	191.275665
654.813110	186.336838
653.793274	178.948471
652.773254	176.464630
651.752991	186.233902
650.732605	191.099594
649.711975	181.266220
648.691223	173.885544
647.670227	173.853516
646.649048	193.406998
645.627747	203.162308
644.606201	212.914017
643.584473	203.087433
642.562561	159.015060
641.540466	193.228836
640.518127	190.747742
639.495667	212.717865
638.473022	220.012405
637.450134	178.421600
636.427063	178.388702
635.403870	195.458420
634.380432	185.651245
633.356812	200.270981
632.333008	197.792160
631.309021	178.224258
630.284851	185.514313
629.260498	192.801666
628.235901	204.966476
627.211182	219.566422
626.186218	180.499084
625.161133	178.027039
624.135803	192.623840
623.110291	204.777420
622.084595	197.427490
621.058716	192.517197
620.032654	172.989838
619.006409	160.777771
617.979919	207.024048
616.953308	202.115570
615.926453	182.600815
614.899414	199.606689
613.872253	175.232040
612.844849	216.566269
611.817261	192.197464
610.789490	199.459244
609.761475	165.374664
608.733337	206.680145
607.705017	182.331131
606.676453	172.574905
605.647705	206.565582
604.618774	211.386871
603.589722	201.630661
602.560425	206.451065
601.530884	174.843872
600.501221	184.523300
599.471375	216.046539
598.441284	213.579544
597.411011	223.246414
596.380615	196.517563
595.349976	201.332596
594.319153	181.893402
593.288147	193.983734
592.256897	193.947861
591.225525	206.031464
590.193970	208.416809
589.162170	193.840225
588.130188	198.649460
587.098022	208.301117
586.065674	198.575943
585.033142	186.433136
584.000427	205.764725
582.967468	191.204742
581.934387	193.589218
580.901062	237.102875
579.867554	234.640015
578.833862	232.178040
577.799988	186.191650
576.765930	205.498169
575.731628	217.546005
574.697205	236.839539
573.662537	219.881699
572.627747	224.672623
571.592712	241.538712
570.557434	188.365280
569.522034	219.718781
568.486450	210.021881
567.450623	224.464539
566.414673	212.357193
565.378479	214.730530
564.342102	192.980423
563.305542	192.944656
562.268799	214.611130
561.231812	241.091400
560.194702	248.278091
559.157349	243.412003
558.119812	253.005157
557.082092	252.958237
556.044189	255.319992
555.006042	231.190308
553.967773	228.739639
552.929260	235.919220
551.890625	235.875443
550.851746	223.799438
549.812683	259.847900
548.773376	206.877518
547.733948	238.105499
546.694275	274.131195
545.654419	295.718231
544.614441	278.836975
543.574158	261.961975
542.533752	259.510437
541.493164	259.462250
540.452332	271.423981
539.411316	268.972046
538.370178	259.317749
537.328735	280.875366
536.287170	235.219421
535.245422	283.170776
534.203430	275.920258
533.161255	285.464417
532.118896	261.427246
531.076355	278.164429
530.033630	285.305328
528.990723	302.031830
527.947571	278.009369
526.904236	263.580566
525.860718	289.884735
524.817017	234.739029
523.773132	251.459351
522.729004	263.384613
521.684692	277.699402
520.640198	277.647766
519.595520	277.596130
518.550659	256.010864
517.505615	255.963257
516.460327	272.657776
515.414856	284.563507
514.369202	267.774658
513.323364	262.944031
512.277283	260.505127
511.231079	265.235687
510.184631	277.131653
509.138000	279.468689
508.091187	272.252136
507.044159	291.303314
505.996948	288.861786
504.949554	279.260651
503.901947	293.527039
502.854126	267.226898
501.806152	269.562622
500.757965	314.828674
499.709564	276.616089
