#Wave		#Intensity
3200.600830	46.308376
3200.007080	21.049261
3199.413086	8.418432
3198.819092	25.251478
3198.224854	25.247662
3197.630615	25.243847
3197.036377	-12.620015
3196.442139	4.206036
3195.847656	16.821600
3195.252930	8.409529
3194.658447	25.224771
3194.063721	21.017464
3193.468750	21.014286
3192.873779	33.617775
3192.278809	0.000000
3191.683838	46.210461
3191.088623	8.400631
3190.493164	0.000000
3189.897949	12.597136
3189.302490	25.190460
3188.706787	41.977749
3188.111328	20.985701
3187.515381	-4.196505
3186.919678	12.587610
3186.323730	-4.195235
3185.727783	75.502815
3185.131592	4.193966
3184.535400	16.773325
3183.939209	20.963484
3183.342773	-12.576187
3182.746338	0.000000
3182.149902	12.572381
3181.553223	46.091755
3180.956543	29.326677
3180.359619	25.133347
3179.762695	37.694313
3179.165771	4.187623
3178.568604	16.747957
3177.971436	33.490841
3177.374268	41.857216
3176.776855	33.480701
3176.179443	25.106726
3175.581787	12.551461
3174.984131	20.915936
3174.386475	0.000000
3173.788574	46.001122
3173.190674	20.906435
3172.592773	20.903269
3171.994629	41.800205
3171.396484	50.152649
3170.798340	33.430035
3170.199951	29.246849
3169.601563	41.774883
3169.002930	4.176856
3168.404297	20.881113
3167.805664	37.580307
3167.206787	4.174957
3166.607910	16.697298
3166.008789	20.868460
3165.409912	20.865297
3164.810547	20.862135
3164.211426	29.202564
3163.612061	37.540462
3163.012695	12.511591
3162.413086	-4.169898
3161.813477	37.523396
3161.213623	29.180439
3160.614014	29.176016
3160.013916	29.171593
3159.414063	0.000000
3158.813965	20.830534
3158.213867	41.654751
3157.613525	4.164844
3157.013184	41.642120
3156.412598	58.290127
3155.812256	37.466541
3155.211426	33.298542
3154.610840	29.131805
3154.010010	37.449497
3153.409180	58.245937
3152.808105	54.077309
3152.207031	45.750782
3151.605957	16.634125
3151.004639	33.263199
3150.403320	29.100885
3149.801758	24.939831
3149.200195	24.936047
3148.598633	24.932262
3147.996826	-8.309493
3147.395020	41.541161
3146.793213	41.534859
3146.191162	8.305711
3145.589111	37.370026
3144.986816	-12.454784
3144.384766	24.905788
3143.782227	24.902008
3143.179932	45.646751
3142.577393	16.596298
3141.974609	20.742224
3141.371826	41.478149
3140.769043	8.294370
3140.166260	8.293111
3139.563232	24.875555
3138.960205	16.581184
3138.356934	29.012667
3137.753662	37.296333
3137.150391	33.147263
3136.546875	57.998898
3135.943359	53.847939
3135.339600	20.707600
3134.735840	33.127129
3134.132080	24.841572
3133.528076	37.256695
3132.924072	24.834024
3132.320068	8.276751
3131.715820	53.790703
3131.111572	0.000000
3130.507080	24.818933
3129.902588	-8.271721
3129.298096	20.676159
3128.693604	16.538414
3128.088867	-4.133975
3127.483887	8.266693
3126.878906	16.530874
3126.273926	61.981354
3125.668945	33.051697
3125.063721	8.261668
3124.458252	20.651030
3123.853027	49.554939
3123.247559	28.902651
3122.641846	37.154903
3122.036133	8.255389
3121.430420	28.889469
3120.824707	0.000000
3120.218750	28.880684
3119.612549	12.375553
3119.006592	12.373671
3118.400391	20.619648
3117.793945	12.369907
3117.187500	-4.122675
3116.581055	24.732288
3115.974609	16.485683
3115.367920	57.691116
3114.760986	32.961334
3114.154297	32.956322
3113.547363	28.832394
3112.940186	37.064579
3112.333008	74.117874
3111.725830	24.702200
3111.118408	41.164066
3110.510986	-12.347341
3109.903564	16.460615
3109.295898	37.030746
3108.688232	0.000000
3108.080566	4.113275
3107.472656	0.000000
3106.864746	37.008202
3106.256592	0.000000
3105.648438	24.664623
3105.040039	32.881157
3104.431885	24.657112
3103.823486	20.544466
3103.214844	36.974407
3102.606201	12.322925
3101.997559	8.214032
3101.388672	24.638344
3100.779785	36.951885
3100.170898	24.630838
3099.561768	24.627087
3098.952637	24.623335
3098.343262	-4.103264
3097.733887	24.615833
3097.124512	32.816109
3096.514893	20.506945
3095.905273	12.302292
3095.295410	16.400557
3094.685791	28.696600
3094.075684	8.197779
3093.465820	12.294794
3092.855713	24.585842
3092.245361	49.164188
3091.635254	0.000000
3091.024658	12.287300
3090.414307	49.141708
3089.803711	32.756145
3089.193115	65.502304
3088.582275	36.839428
3087.971436	4.092646
3087.360596	24.552130
3086.749512	36.822578
3086.138428	16.363096
3085.527100	12.270451
3084.915771	28.626684
3084.304443	16.355610
3083.692871	32.706230
3083.081299	57.227177
3082.469482	28.609224
3081.857910	16.345634
3081.245850	53.115208
3080.634033	12.255486
3080.021973	16.338154
3079.409668	8.167830
3078.797607	24.499754
3078.185059	40.826691
3077.572754	16.328186
3076.960205	12.244270
3076.347656	40.808006
3075.734863	20.400888
3075.122070	12.238665
3074.509033	12.236797
3073.895996	36.704788
3073.282959	12.233062
3072.669922	0.000000
3072.056641	32.611538
3071.443115	24.454920
3070.829834	12.225594
3070.216064	16.298302
3069.602539	12.221861
3068.988770	-8.146663
3068.375000	36.654385
3067.760986	16.288349
3067.146973	28.500259
3066.532715	-16.283375
3065.918701	40.702221
3065.304199	-4.069601
3064.689941	0.000000
3064.075439	16.273428
3063.460693	12.203207
3062.846191	48.805370
3062.231445	20.332464
3061.616455	32.526974
3061.001465	44.717754
3060.386475	8.129258
3059.771240	24.384048
3059.156006	40.633873
3058.540771	24.376596
3057.925293	48.745743
3057.309814	36.553719
3056.694092	32.487228
3056.078369	4.060283
3055.462646	8.119325
3054.846680	36.531376
3054.230713	36.525791
3053.614502	28.404606
3052.998291	16.228722
3052.382080	8.113120
3051.765625	44.615337
3051.149170	32.442558
3050.532715	-8.109399
3049.916016	8.108159
3049.299316	36.481136
3048.682373	0.000000
3048.065430	0.000000
3047.448486	36.464397
3046.831299	12.152940
3046.214111	16.201441
3045.596680	40.497406
3044.979248	36.442089
3044.361816	24.291010
3043.744141	-8.095764
3043.126465	48.567154
3042.508545	60.699654
3041.890869	32.368195
3041.272705	28.317837
3040.654785	20.223930
3040.036621	28.309170
3039.418213	4.043548
3038.799805	12.128788
3038.181396	36.380795
3037.562988	12.125075
3036.944336	28.287510
3036.325439	36.364090
3035.706543	36.358521
3035.087646	16.156870
3034.468750	32.308792
3033.849609	40.379803
3033.230469	32.298897
3032.611084	32.293949
3031.991699	16.144503
3031.372070	8.071015
3030.752441	24.209337
3030.132813	20.171358
3029.513184	40.336536
3028.893066	44.363392
3028.273193	44.356598
3027.653076	20.159000
3027.032959	36.280643
3026.412598	16.122259
3025.792480	16.119789
3025.171875	4.029330
3024.551270	-8.057425
3023.930664	20.140474
3023.310059	32.219822
3022.689209	48.322327
3022.068115	36.236191
3021.447266	56.358768
3020.826172	68.425156
3020.204834	40.243923
3019.583496	40.237751
3018.962158	8.046317
3018.340576	24.135250
3017.718994	32.175400
3017.097412	56.298317
3016.475586	24.124151
3015.853760	32.160603
3015.231689	32.155670
3014.609619	12.056527
3013.987549	40.182259
3013.365234	40.176098
3012.742920	20.084969
3012.120361	32.131020
3011.497803	28.110329
3010.875244	40.151455
3010.252441	12.043589
3009.629639	28.097395
3009.006836	40.132977
3008.383789	48.152184
3007.760498	16.048265
3007.137451	44.125957
3006.514160	16.043341
3005.890625	4.010220
3005.267090	8.019208
3004.643555	32.071911
3004.019775	20.041868
3003.395996	4.007758
3002.772217	32.057144
3002.148193	28.045696
3001.524170	44.065041
3000.899902	64.084770
3000.275635	44.051514
2999.651367	40.040680
2999.026855	16.013813
2998.402344	36.025547
2997.777588	32.017792
2997.152832	36.014484
2996.528076	32.007957
2995.903076	20.001902
2995.278076	-19.998829
2994.653076	31.993214
2994.027832	63.976597
2993.402344	11.993770
2992.777100	19.986546
2992.151367	15.986779
2991.525879	23.976484
2990.900146	23.972801
2990.274414	51.933090
2989.648438	3.994239
2989.022461	31.949003
2988.396240	7.986023
2987.770264	19.961990
2987.143799	27.942492
2986.517578	23.947025
2985.891113	11.971673
2985.264404	35.909496
2984.637695	-3.989331
2984.010986	63.819481
2983.384033	39.881042
2982.757080	35.887421
2982.130127	11.960634
2981.502930	27.903856
2980.875732	31.885218
2980.248291	11.955118
2979.620850	55.781971
2978.993408	15.935255
2978.365723	31.865608
2977.738037	35.843296
2977.110107	3.981976
2976.482178	35.832272
2975.854248	15.923004
2975.226074	31.841110
2974.597900	15.918105
2973.969482	55.704800
2973.341309	39.783020
2972.712646	19.888449
2972.083984	19.885389
2971.455322	27.835260
2970.826660	23.855124
2970.197754	19.876211
2969.568604	31.797043
2968.939697	27.818130
2968.310547	27.813848
2967.681152	43.700748
2967.051758	39.721836
2966.422363	39.715721
2965.792725	35.738647
2965.163086	47.644196
2964.533203	43.667122
2963.903564	55.567780
2963.273438	19.842579
2962.643311	23.807428
2962.013184	51.574818
2961.383057	47.600193
2960.752686	39.660717
2960.122314	35.689148
2959.491699	55.507904
2958.861084	11.892718
2958.230225	43.599918
2957.599609	27.741129
2956.968506	59.436119
2956.337646	39.617973
2955.706299	19.805935
2955.075195	15.842306
2954.443848	11.879899
2953.812500	43.552917
2953.180908	27.711222
2952.549316	39.581360
2951.917725	43.532787
2951.285889	27.698412
2950.653809	19.781530
2950.021973	31.645571
2949.389893	19.775433
2948.757568	55.362675
2948.125244	43.492538
2947.492920	31.626060
2946.860352	59.289722
2946.227783	63.232620
2945.595215	39.514294
2944.962402	47.409840
2944.329590	39.502110
2943.696533	51.344822
2943.063477	35.540932
2942.430420	63.174133
2941.797119	39.477745
2941.163574	55.260315
2940.530273	67.091461
2939.896729	35.513531
2939.262939	43.398731
2938.629150	51.281494
2937.995361	47.329460
2937.361328	59.152699
2936.727295	47.314857
2936.093262	43.365261
2935.458984	82.775444
2934.824707	90.644829
2934.190186	27.583300
2933.555664	35.458771
2932.921143	63.028080
2932.286377	82.711586
2931.651367	78.760780
2931.016602	55.124035
2930.381592	59.052349
2929.746338	78.724312
2929.111084	78.712158
2928.475830	90.505005
2927.840332	55.081493
2927.204834	51.139206
2926.569336	102.262611
2925.933594	74.718834
2925.297607	66.843369
2924.661865	86.489822
2924.025879	106.130203
2923.389648	62.882256
2922.753418	90.379280
2922.117188	86.436394
2921.480713	58.924801
2920.844238	54.987984
2920.207764	74.615021
2919.571045	47.117992
2918.934082	43.184818
2918.297363	82.431007
2917.660156	78.493591
2917.023193	86.329605
2916.385986	62.775463
2915.748779	78.457199
2915.111328	94.134087
2914.473877	62.746357
2913.836182	58.815617
2913.198486	70.567833
2912.560791	90.156067
2911.922852	94.061348
2911.284912	90.128189
2910.646729	113.622322
2910.008545	121.439560
2909.370361	125.337585
2908.731934	93.988647
2908.093506	105.720879
2907.455078	101.789543
2906.816406	121.345688
2906.177490	121.326920
2905.538574	78.263321
2904.899658	89.988899
2904.260498	62.591290
2903.621338	109.517807
2902.982178	70.393410
2902.342773	117.304199
2901.703369	117.286049
2901.063721	152.448273
2900.424072	93.799805
2899.784424	105.508453
2899.144531	125.027702
2898.504639	97.662773
2897.864502	113.271278
2897.224365	144.496170
2896.583984	132.759705
2895.943848	121.026878
2895.303223	105.394188
2894.662842	132.698059
2894.021973	136.579788
2893.381348	117.050270
2892.740479	144.339645
2892.099609	175.521027
2891.458496	128.695496
2890.817383	116.977783
2890.176025	144.250259
2889.534668	136.431808
2888.893311	132.513229
2888.251709	155.873764
2887.610107	163.642105
2886.968262	155.825485
2886.326416	144.116241
2885.684570	159.671631
2885.042480	159.646896
2884.400391	171.301819
2883.758057	167.382660
2883.115723	167.356720
2882.473389	245.159073
2881.830811	252.902695
2881.188232	252.863495
2880.545410	326.726807
2879.902588	377.233185
2879.259766	396.616699
2878.616699	342.126068
2877.973633	322.637054
2877.330322	314.813873
2876.687012	310.879059
2876.043457	283.633179
2875.399902	209.778305
2874.756348	264.124298
2874.112549	260.199768
2873.468750	225.212631
2872.824707	209.648209
2872.180664	194.088608
2871.536621	174.652649
2870.892334	228.953506
2870.248047	197.878265
2869.603760	162.933304
2868.958984	135.756683
2868.314453	159.004593
2867.669678	143.469681
2867.024902	205.478745
2866.379883	151.177872
2865.734863	193.787704
2865.089844	186.007339
2864.444580	216.974884
2863.799316	174.327759
2863.153809	143.313904
2862.508301	154.909912
2861.862549	151.013718
2861.216797	174.219543
2860.571045	150.966827
2859.925049	178.035797
2859.279053	174.138412
2858.632813	205.064514
2857.986572	243.718079
2857.340332	208.868774
2856.693848	216.571030
2856.047363	212.670654
2855.400635	201.039215
2854.753906	231.932297
2854.107178	216.436523
2853.460205	224.131577
2852.813232	189.323120
2852.166016	216.335678
2851.518799	208.576996
2850.871338	254.887833
2850.223877	220.096207
2849.576416	293.416016
2848.928711	270.209595
2848.281006	285.605743
2847.633301	316.432861
2846.985352	304.808685
2846.337158	331.765472
2845.688965	258.428284
2845.040771	312.379669
2844.392578	304.619232
2843.743896	316.137909
2843.095459	289.105560
2842.446777	300.623047
2841.798096	312.136932
2841.149170	246.588364
2840.500244	242.697678
2839.851074	231.104706
2839.202148	227.217636
2838.552734	200.228470
2837.903320	223.297012
2837.253906	173.220734
2836.604492	219.378815
2835.954834	165.470551
2835.304932	173.139923
2834.655029	146.184311
2834.005127	150.007919
2833.354980	138.447311
2832.704834	157.651566
2832.054688	126.870544
2831.404297	123.006836
2830.753906	111.457603
2830.103271	122.968559
2829.452637	115.265083
2828.801758	80.673004
2828.150879	76.819473
2827.500000	57.605637
2826.848877	76.795563
2826.197754	65.266068
2825.546387	80.610237
2824.895020	84.435677
2824.243408	65.235588
2823.591797	69.062225
2822.940186	69.051468
2822.288330	65.205124
2821.636475	61.359970
2820.984619	57.516014
2820.332520	61.340862
2819.680176	53.664894
2819.028076	49.823925
2818.375488	38.320126
2817.723145	34.482742
2817.070557	45.969830
2816.417725	49.792889
2815.764893	38.296257
2815.112061	42.119316
2814.458984	34.455891
2813.805908	65.073212
2813.152832	42.099632
2812.499512	53.573002
2811.845947	80.346977
2811.192383	65.032654
2810.538818	57.372810
2809.885010	49.715351
2809.231201	53.531265
2808.577393	84.107445
2807.923340	64.981987
2807.269287	68.793732
2806.614990	22.927668
2805.960693	45.848186
2805.306152	42.020954
2804.651611	64.931343
2803.997070	19.094477
2803.342285	22.909800
2802.687500	3.817704
2802.032471	49.622417
2801.377441	30.532108
2800.722412	53.422855
2800.067139	76.306458
2799.411621	57.220917
2798.756348	22.884796
2798.100586	45.762451
2797.445068	76.258858
2796.789307	80.059303
2796.133301	49.552788
2795.477539	53.356216
2794.821289	68.590141
2794.165283	30.479750
2793.509033	30.474995
2792.852539	68.558037
2792.196045	53.314594
2791.539551	68.536636
2790.882813	53.297951
2790.226074	22.838413
2789.569092	41.863888
2788.912109	41.857349
2788.255127	38.046196
2787.597900	41.844280
2786.940430	53.248043
2786.283203	68.451080
2785.625488	53.231411
2784.968018	49.421448
2784.310303	30.408449
2783.652588	49.406013
2782.994629	30.398951
2782.336426	56.989132
2781.678467	30.389456
2781.020264	72.163681
2780.361816	30.379961
2779.703369	60.750427
2779.044922	37.963085
2778.386230	45.548584
2777.727539	53.131710
2777.068604	49.328880
2776.409668	45.527233
2775.750732	53.106804
2775.091553	45.513004
2774.432373	53.090206
2773.772949	64.456604
2773.113525	53.073608
2772.453857	56.855690
2771.794189	72.005951
2771.134521	68.205498
2770.474609	49.251823
2769.814697	26.516066
2769.154541	37.874172
2768.494385	15.147300
2767.833984	37.862328
2767.173584	22.713844
2766.513184	52.990681
2765.852539	56.766846
2765.191895	49.190239
2764.531006	41.615997
2763.870117	15.130723
2763.209229	94.552223
2762.548096	64.285454
2761.886719	41.589962
2761.225586	22.681885
2760.563965	56.695839
2759.902588	49.128704
2759.240967	34.006859
2758.579102	64.225121
2757.917236	37.773571
2757.255371	7.553532
2756.593262	45.314095
2755.931152	49.082588
2755.269043	33.974934
2754.606689	83.036835
2753.944092	41.511917
2753.281494	60.371517
2752.618896	52.816807
2751.956055	45.264462
2751.293213	90.514740
2750.630371	67.875427
2749.967285	45.243198
2749.303955	30.157408
2748.640625	37.690857
2747.977295	52.758934
2747.313721	60.286480
2746.650146	56.509720
2745.986572	67.801041
2745.322754	41.427479
2744.658691	64.014252
2743.994873	56.474316
2743.330566	52.701103
2742.666504	26.346422
2742.002197	45.158218
2741.337646	41.388546
2740.673096	63.954090
2740.008545	75.228317
2739.343750	37.608261
2738.678955	52.643314
2738.013916	52.635063
2737.348877	45.108696
2736.683594	71.410904
2736.018311	90.189102
2735.353027	26.301031
2734.687500	30.053608
2734.021973	37.561119
2733.356201	82.621506
2732.690430	56.324009
2732.024658	56.315174
2731.358643	48.798832
2730.692383	52.544346
2730.026367	71.298996
2729.359863	71.287811
2728.693604	86.282234
2728.027100	41.258942
2727.360352	101.256065
2726.693604	71.243088
2726.026855	63.733814
2725.359863	59.975353
2724.692871	52.470200
2724.025635	93.682076
2723.358398	52.453732
2722.691162	67.429924
2722.023682	74.910378
2721.355957	89.878349
2720.688477	59.909492
2720.020508	104.825157
2719.352783	67.377022
2718.684814	63.623863
2718.016602	67.355865
2717.348389	52.379669
2716.680176	74.816353
2716.011719	71.064369
2715.343262	93.491066
2714.674561	67.302994
2714.005859	37.384682
2713.337158	56.068214
2712.668213	93.432350
2711.999023	89.680962
2711.329834	70.986275
2710.660645	78.446190
2709.991455	89.638702
2709.321777	78.421547
2708.652344	52.272816
2707.982666	78.396904
2707.312988	74.651985
2706.643066	41.052139
2705.972900	63.434242
2705.302979	70.885956
2704.632813	63.414307
2703.962402	52.215336
2703.291992	55.936211
2702.621582	26.099461
2701.950928	55.918625
2701.280273	33.545898
2700.609375	70.807991
2699.938477	33.535351
2699.267334	33.530079
2698.596191	37.249786
2697.925049	81.936638
2697.253662	52.133297
2696.582031	55.848320
2695.910645	81.897987
2695.239014	33.498451
2694.567139	70.707832
2693.895264	66.975830
2693.223145	40.923233
2692.551270	33.477379
2691.878906	44.629482
2691.206543	59.496613
2690.534180	59.487251
2689.861816	55.760521
2689.189209	74.335663
2688.516357	70.607765
2687.843506	59.449814
2687.170654	70.585541
2686.497559	59.431103
2685.824463	33.424732
2685.151123	48.272568
2684.477783	66.828423
2683.804199	44.545265
2683.130615	37.115211
2682.457031	51.953114
2681.783203	40.813877
2681.109375	3.709768
2680.435303	40.801022
2679.761230	81.589195
2679.086914	59.328251
2678.412598	44.489182
2677.738281	77.843803
2677.063721	63.006485
2676.389160	55.585201
2675.714355	48.166252
2675.039551	44.454151
2674.364502	37.039288
2673.689453	51.846836
2673.014404	59.244190
2672.339111	51.830498
2671.663574	66.628708
2670.988037	44.412140
2670.312500	25.902998
2669.636719	62.897366
2668.960938	25.894833
2668.285156	33.288109
2667.609131	55.471436
2666.932861	14.790051
2666.256592	48.060089
2665.580322	36.963470
2664.903809	18.478821
2664.227295	84.989174
2663.550781	36.945988
2662.874023	22.164097
2662.197021	48.014637
2661.520020	44.314213
2660.843018	62.768566
2660.165771	73.833725
2659.488525	18.455521
2658.811035	66.429390
2658.133545	70.108849
2657.455811	62.719074
2656.778076	73.775505
2656.100342	77.452057
2655.422363	44.251335
2654.744385	55.305443
2654.066162	51.610268
2653.387939	66.345581
2652.709473	81.076248
2652.031006	99.486969
2651.352539	55.261814
2650.673828	40.518932
2649.994873	36.829578
2649.316162	77.329903
2648.636963	73.635902
2647.958008	22.087282
2647.278809	55.209488
2646.599365	51.520721
2645.919922	58.871525
2645.240479	62.541119
2644.560791	80.922783
2643.880859	33.099545
2643.201172	33.094318
2642.520996	77.207878
2641.841064	51.463787
2641.160889	51.455658
2640.480469	55.122353
2639.800049	44.090916
2639.119629	51.431274
2638.438965	73.461639
2637.758301	44.070019
2637.077393	51.406898
2636.396484	58.741459
2635.715332	55.061413
2635.034180	47.712349
2634.353027	47.704807
2633.671631	66.042374
2632.989990	66.031937
2632.308350	69.689354
2631.626709	36.672810
2630.944824	62.333920
2630.262939	58.657944
2629.581055	36.655418
2628.898926	40.314583
2628.216553	21.986296
2627.534180	47.629440
2626.851807	47.621910
2626.169189	62.264954
2625.486572	40.282715
2624.803711	47.599316
2624.120850	76.879044
2623.437988	51.244587
2622.754883	40.257233
2622.071533	58.546711
2621.388184	73.171814
2620.704834	73.160233
2620.021240	65.833794
2619.337646	47.539104
2618.653809	36.562756
2617.969971	25.589878
2617.286133	80.412598
2616.602051	54.818096
2615.917725	51.155457
2615.233398	69.414276
2614.549072	73.056091
2613.864502	76.696754
2613.179932	58.426369
2612.495117	76.672470
2611.810303	73.009834
2611.125488	32.849224
2610.440430	40.142693
2609.755127	62.028885
2609.069824	72.963600
2608.384521	47.418827
2607.698975	47.411316
2607.013428	65.636040
2606.327637	54.688038
2605.641846	76.551125
2604.956055	61.960140
2604.270020	76.526871
2603.583740	40.079151
2602.897461	87.431564
2602.211182	58.278477
2601.524658	36.418274
2600.838135	54.618755
2600.151367	40.047405
2599.464600	65.521736
2598.777832	40.034714
2598.090820	36.389423
2597.403564	47.298752
2596.716309	76.393562
2596.029053	47.283756
2595.341553	54.549530
2594.654053	76.357239
2593.966309	47.261269
2593.278564	72.698120
2592.590820	50.880611
2591.902832	65.407555
2591.214600	43.598122
2590.526367	43.591206
2589.838135	39.952267
2589.149658	47.208828
2588.461182	50.832211
2587.772461	61.715034
2587.083740	39.926922
2586.394775	72.582886
2585.705811	50.799961
2585.016846	72.559853
2584.327637	61.666092
2583.638184	79.790512
2582.948975	47.141457
2582.259277	54.385353
2581.569824	43.501377
2580.879883	57.992630
2580.190186	57.983425
2579.500244	54.350834
2578.810059	72.456276
2578.119873	57.955814
2577.429688	50.703289
2576.739258	68.800674
2576.048584	50.687187
2575.358154	47.059200
2574.667236	50.671089
2573.976563	36.187889
2573.285645	61.509640
2572.594482	94.058624
2571.903320	54.255970
2571.212158	47.014374
2570.520752	83.166061
2569.829102	54.230118
2569.137451	46.991970
2568.445801	46.984501
2567.753906	54.204273
2567.062012	61.421749
2566.370117	65.024460
2565.677979	61.402229
2564.985596	61.392471
2564.293213	43.328972
2563.600830	54.152607
2562.908203	28.876801
2562.215332	72.180527
2561.522705	43.301430
2560.829590	64.941818
2560.136719	43.287663
2559.443604	90.168289
2558.750244	36.061581
2558.056885	79.322868
2557.363525	36.050114
2556.669922	68.484322
2555.976074	50.454109
2555.282227	64.859253
2554.588379	82.862526
2553.894287	32.419308
2553.200195	25.211006
2552.505859	43.211994
2551.811523	39.604694
2551.117188	53.997807
2550.422607	50.389935
2549.727783	82.770287
2549.032959	35.981358
2548.338135	75.548820
2547.643066	61.148838
2546.947998	46.753433
2546.252686	64.725220
2545.557373	64.714920
2544.861816	68.299316
2544.166260	57.506058
2543.470703	46.716236
2542.774902	64.673721
2542.078857	79.033073
2541.382813	61.061287
2540.686768	39.503952
2539.990479	61.041840
2539.294189	64.622246
2538.597656	53.843292
2537.901123	75.368607
2537.204346	57.414555
2536.507568	86.108109
2535.810791	71.745331
2535.113770	71.733902
2534.416504	46.619606
2533.719238	78.882149
2533.021973	71.699615
2532.324463	68.103783
2531.626953	46.589901
2530.929199	46.582478
2530.231445	57.323143
2529.533447	46.567631
2528.835449	50.141762
2528.137451	53.714752
2527.439209	64.447433
2526.740723	39.378262
2526.042236	53.689072
2525.343750	75.152718
2524.645020	32.203171
2523.946289	53.663395
2523.247314	42.923870
2522.548340	60.799118
2521.849121	32.182636
2521.149902	42.903336
2520.450684	60.770035
2519.751221	75.056892
2519.051514	78.618484
2518.351807	50.021965
2517.652100	53.586414
2516.952148	107.155731
2516.252197	53.569317
2515.552002	64.272926
2514.851807	64.262672
2514.151367	49.974098
2513.450928	49.966125
2512.750244	78.505669
2512.049561	64.221657
2511.348877	57.076805
2510.647949	42.800774
2509.946777	46.360104
2509.245605	92.705406
2508.544434	64.170418
2507.843018	64.160172
2507.141602	71.277702
2506.439941	53.449738
2505.738281	74.817688
2505.036377	39.183960
2504.334473	85.478622
2503.632568	49.854565
2502.930420	64.088486
2502.228027	74.757965
2501.525635	60.508682
2500.823242	60.499020
2500.120605	46.256565
2499.417969	53.364433
2498.715088	53.355907
2498.012207	71.129845
2497.309082	53.338856
2496.605957	46.219624
2495.902588	56.876598
2495.199219	60.421730
2494.495605	81.733978
2493.791992	74.614754
2493.088379	74.602821
2492.384521	67.487007
2491.680664	46.167938
2490.976563	74.567055
2490.272461	85.205864
2489.568115	67.443855
2488.863770	56.785748
2488.159180	63.873753
2487.454590	67.411514
2486.749756	74.495544
2486.044922	67.389954
2485.339844	78.017990
2484.634766	46.094166
2483.929688	60.267345
2483.224365	56.713135
2482.519043	77.968086
2481.813477	77.955612
2481.107666	67.314529
2480.402100	95.642181
2479.696045	70.834724
2478.990234	60.199883
2478.284180	74.352661
2477.577881	70.800728
2476.871582	60.170986
2476.165039	67.239159
2475.458496	77.843407
2474.751953	88.444260
2474.045166	91.967308
2473.338379	63.659481
2472.631348	99.010002
2471.924072	81.316628
2471.217041	60.093971
2470.509521	28.274986
2469.802246	38.871880
2469.094482	56.531864
2468.386963	70.653511
2467.679199	49.449539
2466.971191	42.378529
2466.263184	38.840763
2465.554932	67.077843
2464.846680	84.716331
2464.138428	74.114914
2463.429932	63.516895
2462.721436	45.865963
2462.012695	77.606888
2461.303955	56.432327
2460.594971	49.370373
2459.885986	77.569580
2459.176758	35.253250
2458.467529	77.544716
2457.758057	77.532288
2457.048584	88.090752
2456.338867	45.799847
2455.629150	81.017509
2454.919434	28.175486
2454.209473	59.863308
2453.499512	59.853706
2452.789307	49.283386
2452.078857	49.275482
2451.368408	84.458710
2450.657959	63.333874
2449.947266	70.359680
2449.236572	59.796139
2448.525879	66.820259
2447.814697	42.195499
2447.103760	73.830276
2446.392578	77.333595
2445.681152	84.350388
2444.969727	70.280708
2444.258301	63.242489
2443.546631	70.258156
2442.834717	77.271568
2442.122803	73.747391
2441.410889	59.690685
2440.698730	101.808945
2439.986572	98.282516
2439.274170	56.152420
2438.561768	52.634445
2437.849121	52.625996
2437.136475	35.078365
2436.423584	70.145462
2435.710693	70.134201
2434.997803	52.592205
2434.284424	59.594925
2433.571289	87.625526
2432.857910	49.062412
2432.144287	56.062321
2431.430908	91.086639
2430.717041	87.569237
2430.003174	94.559586
2429.289307	84.039467
2428.575195	70.021637
2427.861084	42.006229
2427.146729	59.499264
2426.432373	66.488495
2425.717773	66.477806
2425.003174	94.453285
2424.288330	87.442688
2423.573486	76.937202
2422.858643	52.448750
2422.143555	55.936340
2421.428223	80.395561
2420.712891	73.392845
2419.997559	55.909367
2419.281982	80.356796
2418.566162	76.850662
2417.850586	69.853004
2417.134521	59.365509
2416.418457	73.322067
2415.702393	62.837379
2414.986084	48.865658
2414.269775	73.286697
2413.553223	55.828503
2412.836670	66.285683
2412.120117	55.810543
2411.403076	27.900782
2410.686279	52.305550
2409.969238	80.188942
2409.251953	108.063354
2408.534668	101.075256
2407.817383	76.665443
2407.099854	55.747711
2406.382080	76.640770
2405.664307	66.179100
2404.946533	87.063751
2404.228516	76.603767
2403.510498	62.665718
2402.792236	80.059975
2402.073975	66.125854
2401.355469	80.034195
2400.636963	66.104561
2399.918213	93.922928
2399.199463	76.517471
2398.480469	52.162601
2397.761475	52.154202
2397.042480	48.669415
2396.323242	69.516533
2395.603760	69.505341
2394.884277	62.544727
2394.164795	55.586357
2393.445068	38.209465
2392.725098	59.041477
2392.005127	76.394302
2391.285156	65.966270
2390.564941	79.841034
2389.844727	114.536072
2389.124268	41.642769
2388.403809	52.045071
2387.683105	65.913132
2386.962402	24.279871
2386.241455	86.699844
2385.520508	76.283562
2384.799316	76.271263
2384.078125	55.461067
2383.356689	48.520611
2382.635254	69.303978
2381.913818	100.474571
2381.192139	69.281631
2380.470215	62.343414
2379.748291	79.648178
2379.026367	51.936085
2378.304199	83.084335
2377.581787	58.841911
2376.859375	76.136070
2376.136963	79.583961
2375.414307	62.273052
2374.691650	96.853561
2373.968750	100.296432
2373.245850	58.784973
2372.522705	69.147629
2371.799316	69.136475
2371.076172	65.669044
2370.352783	58.747032
2369.629150	55.282402
2368.905518	24.182146
2368.181641	89.804901
2367.457764	89.790405
2366.733643	82.870064
2366.009521	58.690155
2365.285400	58.680676
2364.561035	75.927437
2363.836426	86.267242
2363.111816	96.603714
2362.387207	103.487259
2361.662354	62.082329
2360.937256	68.969223
2360.212158	48.270657
2359.487061	93.078369
2358.761719	93.063339
2358.036377	58.585968
2357.310791	65.467857
2356.584961	89.573112
2355.859375	89.558640
2355.133301	99.876190
2354.407471	82.642799
2353.681152	72.300758
2352.955078	55.077393
2352.228516	86.044518
2351.502197	75.706932
2350.775635	61.932022
2350.048828	58.481899
2349.322021	85.988892
2348.594971	41.267994
2347.867920	30.945992
2347.140869	58.444088
2346.413330	82.495956
2345.686035	79.045837
2344.958496	61.851955
2344.230713	68.713280
2343.502930	51.526627
2342.775146	51.518291
2342.047119	103.019913
2341.319092	65.235390
2340.590820	41.194633
2339.862305	78.943604
2339.133789	58.340183
2338.405273	72.055618
2337.676514	65.182632
2336.947754	72.032303
2336.218750	58.302425
2335.489746	61.721992
2334.760498	85.711113
2334.031250	95.980904
2333.301758	58.264690
2332.572266	68.535599
2331.842529	54.819599
2331.112793	68.513405
2330.382813	89.053009
2329.652832	85.614029
2328.922607	58.208111
2328.192383	47.928329
2327.462158	95.841133
2326.731689	61.602177
2326.000977	88.966515
2325.270264	92.373337
2324.539307	106.041092
2323.808350	68.402527
2323.077393	47.874012
2322.346191	75.218399
2321.614746	75.206215
2320.883301	58.104477
2320.151855	85.433914
2319.420166	68.336052
2318.688232	92.238724
2317.956299	68.313904
2317.224365	143.435944
2316.492188	99.023056
2315.760010	68.280693
2315.027588	88.750511
2314.295166	58.019772
2313.562500	78.484612
2312.829590	68.236420
2312.096924	71.636627
2311.363770	68.214294
2310.630615	47.742264
2309.897461	71.601784
2309.164063	78.408279
2308.430664	105.663582
2307.697021	68.158997
2306.963379	81.777527
2306.229492	112.425858
2305.495605	85.157288
2304.761719	78.331993
2304.027344	102.155594
2303.293213	61.283409
2302.558838	78.293869
2301.824219	64.667053
2301.089600	88.477394
2300.354736	95.267883
2299.619873	85.046799
2298.885010	54.421120
2298.149658	81.618423
2297.414551	74.804749
2296.679199	81.591927
2295.943604	81.578682
2295.208008	78.166878
2294.472412	81.552193
2293.736572	88.333862
2293.000488	67.938087
2292.264404	78.116112
2291.528320	61.124420
2290.791992	67.904991
2290.055420	95.051552
2289.318848	64.488785
2288.582275	71.265503
2287.845459	74.646973
2287.108398	94.989799
2286.371582	50.879124
2285.634277	94.958931
2284.896973	61.035107
2284.159668	84.757210
2283.422119	88.133171
2282.684570	105.064781
2281.946777	91.493156
2281.208740	88.090202
2280.470703	88.075882
2279.732666	81.287598
2278.994385	74.501518
2278.256104	81.261169
2277.517578	118.486603
2276.779053	77.849968
2276.040283	91.374229
2275.301514	64.289925
2274.562500	94.727646
2273.823486	77.799339
2273.084229	94.696831
2272.344971	64.248116
2271.605469	91.285095
2270.865967	114.932907
2270.126221	77.736084
2269.386475	70.964874
2268.646484	91.225708
2267.906494	74.319962
2267.166260	54.042088
2266.426025	60.787453
2265.685547	87.789810
2264.945068	104.655434
2264.204346	84.385803
2263.463623	91.121834
2262.722656	70.861000
2261.981689	77.597031
2261.240723	107.943512
2260.499268	74.199081
2259.758057	67.442726
2259.016602	111.262383
2258.274902	67.420769
2257.533203	97.744194
2256.791260	77.508629
2256.049316	114.559311
2255.307129	70.745697
2254.564941	117.890289
2253.822754	74.090401
2253.080322	107.750298
2252.337646	97.632797
2251.594971	100.982986
2250.852051	67.311028
2250.109131	121.140099
2249.366211	87.475815
2248.623047	84.097656
2247.879639	84.083946
2247.136230	60.530575
2246.392578	90.781067
2245.648926	87.404556
2244.905273	94.112640
2244.161377	63.851734
2243.417236	84.001747
2242.673096	97.426140
2241.928955	73.897430
2241.184570	127.620209
2240.439941	90.662727
2239.695313	87.290611
2238.950439	93.989944
2238.205566	117.468269
2237.460693	107.382042
2236.715576	114.074806
2235.970215	83.864853
2235.224854	107.329498
2234.479492	77.130493
2233.733887	130.765152
2232.988037	100.572166
2232.242188	63.685310
2231.496338	73.728851
2230.750244	100.522934
2230.003906	80.405228
2229.257568	83.741768
2228.511230	107.171974
2227.764648	80.365860
2227.017822	66.960617
2226.270996	93.729561
2225.523926	113.795883
2224.776855	93.698952
2224.029785	113.758728
2223.282471	97.013657
2222.534912	100.342567
2221.787354	93.637772
2221.039795	83.591499
2220.291992	96.950294
2219.543945	103.619598
2218.795898	86.892563
2218.047852	93.561317
2217.299561	93.546036
2216.551025	83.509598
2215.802490	116.894341
2215.053955	56.767971
2214.305176	66.774940
2213.556152	96.807838
2212.807129	83.441391
2212.058105	116.798859
2211.308838	90.087250
2210.559326	90.072525
2209.809814	93.393272
2209.060303	130.062225
2208.310547	100.031509
2207.560547	106.682831
2206.810547	109.998680
2206.060303	89.984207
2205.310059	83.305084
2204.559814	96.618095
2203.809326	79.946724
2203.058594	86.594788
2202.307861	89.910652
2201.557129	103.213860
2200.806152	89.881233
2200.054932	83.209755
2199.303711	83.196136
2198.552246	89.837128
2197.800781	76.515404
2197.049316	106.438797
2196.297607	86.467369
2195.545654	86.453217
2194.793701	79.789909
2194.041504	96.397026
2193.289307	106.351723
2192.537109	116.303162
2191.784668	109.639313
2191.031982	102.977646
2190.279297	119.567368
2189.526367	89.660843
2188.773438	66.404564
2188.020508	89.631485
2187.267090	99.574226
2186.513916	86.283531
2185.760498	86.269402
2185.006836	122.747887
2184.253174	109.459915
2183.499268	92.859863
2182.745361	96.160530
2181.991211	96.144775
2181.237061	132.591766
2180.482666	79.542023
2179.728271	102.724945
2178.973877	82.829124
2178.218994	119.254395
2177.464355	125.859009
2176.709229	96.034554
2175.954346	102.640800
2175.198975	112.555328
2174.443848	135.706238
2173.688232	86.043503
2172.932861	105.882339
2172.177002	89.323578
2171.421387	105.847618
2170.665283	102.523071
2169.909424	128.959488
2169.153076	89.264999
2168.396729	102.472641
2167.640381	112.370911
2166.883789	79.307632
2166.127197	75.990685
2165.370361	105.708824
2164.613525	102.388626
2163.856445	85.860237
2163.099365	102.355026
2162.342041	118.844406
2161.584473	122.125595
2160.826904	102.304649
2160.069336	89.089432
2159.311523	105.570145
2158.553711	112.149864
2157.795654	95.641541
2157.037354	92.328400
2156.279053	115.391548
2155.520752	102.187164
2154.762207	128.536942
2154.003662	131.811111
2153.244873	118.610527
2152.485840	102.120071
2151.726807	115.277924
2150.967773	95.500305
2150.208252	118.532631
2149.448975	102.053001
2148.689453	98.744751
2147.929688	115.183281
2147.169922	92.131493
2146.410156	65.797394
2145.650146	108.547867
2144.889893	111.818817
2144.129639	78.917961
2143.369141	121.645203
2142.608643	111.763702
2141.847900	115.031967
2141.087158	105.154800
2140.326416	144.564087
2139.565186	111.690247
2138.804199	95.249550
2138.042725	91.949966
2137.281494	85.368073
2136.519775	101.768272
2135.758301	114.880775
2134.996338	91.889511
2134.234619	124.686684
2133.472412	104.982040
2132.710449	137.766266
2131.947998	81.990242
2131.185547	101.651184
2130.423096	95.077400
2129.660400	124.563683
2128.897705	108.155930
2128.134766	108.138138
2127.371826	121.225838
2126.608643	88.447548
2125.845215	121.185951
2125.081787	134.265030
2124.318359	98.226540
2123.554688	85.115662
2122.790771	101.467354
2122.026855	130.904068
2121.262939	147.242828
2120.498779	143.947067
2119.734375	88.316612
2118.969971	127.547440
2118.205322	71.937988
2117.440674	114.427956
2116.676025	117.677948
2115.911133	156.878098
2115.145996	101.300415
2114.380859	150.291992
2113.615479	104.533730
2112.850098	111.048790
2112.084473	97.968086
2111.318848	114.277267
2110.552979	97.935806
2109.787109	166.463440
2109.020996	124.011147
2108.254883	104.413231
2107.488525	146.806915
2106.722168	136.997208
2105.955566	123.929428
2105.188965	123.908997
2104.422119	123.888573
2103.655029	117.348778
2102.887939	143.402634
2102.120850	136.861771
2101.353516	120.548828
2100.585938	146.589264
2099.818359	97.710060
2099.050781	140.028000
2098.282959	136.748978
2097.514893	156.258774
2096.746826	117.174744
2095.978760	130.172684
2095.210449	81.344513
2094.441895	130.129745
2093.673340	117.097450
2092.904541	130.086823
2092.135742	162.581696
2091.366699	130.043900
2090.597656	130.022430
2089.828369	130.000977
2089.059082	113.732086
2088.289551	126.709122
2087.520020	107.197716
2086.750244	149.402451
2085.980469	129.893738
2085.210449	103.897835
2084.440186	120.112038
2083.670166	116.846474
2082.899658	116.827179
2082.129150	133.031204
2081.358643	126.520981
2080.587891	87.576988
2079.816895	107.020859
2079.045898	90.790581
2078.274902	106.985512
2077.503662	113.450737
2076.732178	142.600220
2075.960693	103.692123
2075.188965	129.593735
2074.417236	93.939941
2073.645264	106.879509
2072.873291	123.053040
2072.101074	126.270409
2071.328857	119.775208
2070.556396	165.068268
2069.783936	119.735619
2069.011230	129.422516
2068.238525	100.285866
2067.465576	122.910744
2066.692627	129.358337
2065.919434	129.336960
2065.145996	135.781342
2064.372559	122.829475
2063.599121	113.113708
2062.825439	151.870438
2062.051514	129.230057
2061.277588	184.122375
2060.503662	161.484131
2059.729248	132.395096
2058.955078	151.744873
2058.180664	125.895134
2057.406006	132.329391
2056.631348	135.534515
2055.856445	135.512085
2055.081543	122.585884
2054.306396	125.791016
2053.531250	103.196060
2052.755859	116.076355
2051.980225	157.966660
2051.204590	164.387070
2050.428955	138.577911
2049.653076	109.555099
2048.877197	177.192139
2048.101074	112.739967
2047.324707	186.795303
2046.548340	132.023087
2045.771851	115.903519
2044.995239	138.417389
2044.218506	122.302086
2043.441528	109.410057
2042.664551	131.913803
2041.887329	125.458199
2041.110107	135.086456
2040.332642	128.632446
2039.555176	160.763916
2038.777466	141.448807
2037.999634	128.568527
2037.221802	128.547226
2036.443726	144.591660
2035.665527	138.142471
2034.887207	134.907486
2034.108765	122.038925
2033.330200	141.284805
2032.551514	131.629929
2031.772705	170.127548
2030.993774	138.005127
2030.214600	163.653366
2029.435425	118.709229
2028.656128	144.352142
2027.876587	157.157394
2027.097046	157.131332
2026.317261	173.136414
2025.537476	153.873505
2024.757446	141.027328
2023.977295	121.776123
2023.197021	144.184647
2022.416626	160.178589
2021.636230	134.527679
2020.855591	134.505371
2020.074707	166.502823
2019.293823	140.863632
2018.512817	182.452148
2017.731689	160.019180
2016.950439	179.191727
2016.168945	115.175568
2015.387451	153.541931
2014.605713	156.714706
2013.823975	153.490967
2013.041992	188.634644
2012.260010	115.080002
2011.477783	182.179749
2010.695435	140.606628
2009.912964	156.558655
2009.130371	188.478088
2008.347656	143.730606
2007.564819	172.448074
2006.781860	172.419434
2005.998779	185.160477
2005.215576	121.291885
2004.432129	156.376709
2003.648682	146.778244
2002.864990	169.085953
2002.081299	159.488556
2001.297363	169.029770
2000.513428	149.869415
1999.729248	124.339058
1998.944946	143.444305
1998.160522	172.104553
1997.375977	156.142990
1996.591309	133.814606
1995.806519	184.760864
1995.021606	168.805145
1994.236572	168.777069
1993.451416	127.357742
1992.666016	152.803879
1991.880615	190.973083
1991.094971	143.205994
1990.309326	149.545837
1989.523438	190.877823
1988.737549	162.219162
1987.951416	181.273605
1987.165161	168.524612
1986.378784	162.138214
1985.592285	225.684280
1984.805664	174.796753
1984.018921	158.879700
1983.232056	187.446854
1982.444946	174.709503
1981.657837	177.856445
1980.870605	181.002319
1980.083130	177.797241
1979.295654	215.860718
1978.507935	193.607529
1977.720093	190.401932
1976.932129	171.333206
1976.144165	196.683151
1975.355957	199.822174
1974.567627	196.617645
1973.779053	171.219116
1972.990479	180.701187
1972.201782	155.313751
1971.412964	167.964432
1970.623901	231.308716
1969.834839	221.765930
1969.045532	199.556076
1968.256226	212.190948
1967.466675	174.157578
1966.677002	208.954269
1965.887207	199.423111
1965.097290	205.719727
1964.307251	221.507401
1963.517090	202.487289
1962.726807	161.330170
1961.936401	189.768570
1961.145874	151.789551
1960.355103	199.190567
1959.564331	183.351212
1958.773315	173.838547
1957.982178	183.290085
1957.191040	208.536697
1956.399658	173.751602
1955.608154	186.356995
1954.816528	192.642044
1954.024780	189.452377
1953.232910	239.932983
1952.440918	189.389175
1951.648682	220.917191
1950.856445	186.170563
1950.063965	230.308197
1949.271484	223.961014
1948.478760	195.538956
1947.685913	211.272964
1946.893066	245.918518
1946.099976	192.288803
1945.306763	185.953217
1944.513428	207.980728
1943.719971	204.795319
1942.926270	201.610962
1942.132568	204.726944
1941.338745	217.289246
1940.544678	239.293121
1939.750610	182.587952
1938.956299	220.327957
1938.161865	232.879242
1937.367310	229.693848
1936.572632	220.217590
1935.777832	210.744492
1934.982910	242.158432
1934.187866	229.540436
1933.392700	216.926620
1932.597290	264.040466
1931.801880	226.282593
1931.006226	241.956223
1930.210571	254.482849
1929.414673	207.321747
1928.618652	229.272095
1927.822510	241.794525
1927.026245	238.614441
1926.229858	244.852844
1925.433350	247.950531
1924.636719	251.047165
1923.839844	216.491974
1923.042969	191.359467
1922.245850	225.829132
1921.448730	216.383408
1920.651367	232.024551
1919.853882	222.580917
1919.056274	247.619049
1918.258545	219.372589
1917.460693	219.335892
1916.662720	225.564896
1915.864624	247.453415
1915.066284	259.939209
1914.267944	225.451706
1913.469360	256.721466
1912.670776	256.678528
1911.871948	250.376160
1911.072998	247.205078
1910.273926	250.292374
1909.474731	256.506744
1908.675415	209.549698
1907.875977	231.404205
1907.076294	250.124832
1906.276611	240.704849
1905.476807	250.041092
1904.676758	256.249207
1903.876587	240.583954
1903.076294	293.650726
1902.275879	234.256546
1901.475342	246.708908
1900.674683	218.566208
1899.873901	237.260712
1899.072998	255.948944
1898.271851	227.818817
1897.470703	283.945740
1896.669312	271.419128
1895.867920	286.969849
1895.066284	255.734604
1894.264526	271.282715
1893.462646	265.001923
1892.660645	283.660400
1891.858521	283.612854
1891.056152	261.752594
1890.253784	267.939880
1889.451172	236.744385
1888.648560	295.880859
1887.845703	261.577118
1887.042725	289.554688
1886.239624	264.602386
1885.436401	273.895355
1884.633057	286.297119
1883.829590	326.697357
1883.025879	248.870514
1882.222168	267.490936
1881.418213	214.578827
1880.614258	236.308044
1879.810059	276.682739
1879.005737	248.661850
1878.201294	248.620132
1877.396729	276.543488
1876.592041	248.536697
1875.787231	273.344482
1874.982178	279.509949
1874.177124	276.357910
1873.371826	276.311523
1872.566406	239.015900
1871.760986	238.975784
1870.955322	279.275452
1870.149536	294.741272
1869.343506	263.671600
1868.537476	288.439301
1867.731323	272.885986
1866.924927	257.337860
1866.118530	210.795624
1865.311890	263.450287
1864.505127	288.197174
1863.698242	303.640656
1862.891235	223.045441
1862.084106	284.954651
1861.276855	312.778076
1860.469482	272.473724
1859.661865	340.534943
1858.854126	312.620453
1858.046387	256.862732
1857.238403	253.725357
1856.430298	309.369171
1855.622070	315.503510
1854.813721	287.616608
1854.005249	312.305328
1853.196533	299.886383
1852.387817	259.651764
1851.578857	296.694977
1850.769775	302.825195
1849.960693	268.789398
1849.151367	308.901398
1848.341919	305.760925
1847.532227	333.501282
1846.722534	299.483185
1845.912720	277.824249
1845.102661	296.296021
1844.292603	308.589783
1843.482300	286.940216
1842.671875	311.570801
1841.861328	323.855743
1841.050659	286.795380
1840.239868	342.246582
1839.428833	286.698883
1838.617798	329.802338
1837.806519	360.564270
1836.995117	301.960266
1836.183716	280.344482
1835.372070	301.858612
1834.560303	286.409454
1833.748291	286.361237
1832.936279	341.728424
1832.124146	304.733490
1831.311768	261.595795
1830.499390	270.782990
1829.686768	267.660828
1828.874023	292.224091
1828.061157	304.476959
1827.248169	292.125641
1826.434937	285.927460
1825.621704	353.506653
1824.808228	279.684235
1823.994751	316.512329
1823.181030	313.386566
1822.367188	365.556061
1821.553223	310.209564
1820.739136	304.015564
1819.924927	285.542236
1819.110474	340.751038
1818.296021	334.554962
1817.481323	294.604248
1816.666626	325.237366
1815.851685	285.301636
1815.036621	306.724243
1814.221436	322.006134
1813.406006	297.422180
1812.590576	282.043579
1811.774902	321.843262
1810.959229	303.401031
1810.143311	300.285706
1809.327271	312.489563
1808.511108	315.499939
1807.694824	333.822266
1806.878418	327.641785
1806.061768	269.416931
1805.245117	339.775391
1804.428223	327.475952
1803.611206	315.180664
1802.794067	284.532593
1801.976807	333.428131
1801.159424	311.962646
1800.341919	308.852051
1799.524170	373.005829
1798.706421	360.715240
1797.888428	323.977631
1797.070313	293.364136
1796.252075	299.425323
1795.433716	351.307129
1794.615234	354.302124
1793.796509	317.596527
1792.977783	348.075867
1792.158813	329.700378
1791.339844	271.651642
1790.520630	344.847748
1789.701294	332.584564
1788.881714	341.680511
1788.062134	329.421967
1787.242432	338.515381
1786.422485	338.458160
1785.602417	307.914398
1784.782349	317.006775
1783.962036	335.238983
1783.141479	310.805420
1782.320923	332.079041
1781.500244	304.608185
1780.679321	261.918732
1779.858398	322.775482
1779.037231	295.320099
1778.215942	325.710358
1777.394531	322.611786
1776.572998	322.557220
1775.751221	346.842499
1774.929443	352.867767
1774.107422	340.642273
1773.285278	313.216248
1772.463013	346.607880
1771.640625	358.708862
1770.818115	313.057312
1769.995483	294.771057
1769.172607	328.143188
1768.349731	331.125488
1767.526611	321.957458
1766.703369	352.271179
1765.880005	352.211548
1765.056519	318.758209
1764.232910	318.704254
1763.409058	348.997955
1762.585083	324.664856
1761.761108	330.677368
1760.936890	376.119720
1760.112549	330.565399
1759.288086	375.992371
1758.463379	342.580170
1757.638672	363.740326
1756.813721	357.617401
1755.988647	384.828125
1755.163574	351.437012
1754.338257	342.290131
1753.512695	351.317932
1752.687134	348.230316
1751.861328	345.143738
1751.035522	357.193512
1750.209473	342.000244
1749.383301	329.838135
1748.557007	326.756683
1747.730591	329.726318
1746.903931	347.817413
1746.077271	371.950348
1745.250366	362.816895
1744.423340	371.824249
1743.596313	377.806122
1742.768921	353.566559
1741.941528	380.699432
1741.114014	323.237549
1740.286255	389.631500
1739.458374	404.664856
1738.630493	383.460602
1737.802368	359.244659
1736.973999	353.147003
1736.145630	365.158447
1735.317139	322.853912
1734.488403	374.084991
1733.659546	410.217163
1732.830566	367.926483
1732.001465	361.833466
1731.172241	352.727753
1730.342896	418.981506
1729.513306	397.814209
1728.683594	373.640808
1727.853882	400.691864
1727.023926	328.330811
1726.193726	385.497345
1725.363525	367.364777
1724.533203	388.377106
1723.702637	379.280670
1722.871948	358.148682
1722.041138	379.151855
1721.210205	379.087463
1720.379150	345.933746
1719.547974	403.019562
1718.716553	360.851715
1717.885010	360.790405
1717.053467	384.777710
1716.221558	384.712341
1715.389648	354.596436
1714.557617	375.567993
1713.725342	372.500122
1712.893066	354.415680
1712.060547	348.349426
1711.227905	357.297699
1710.395142	399.264862
1709.562256	348.171783
1708.729126	363.117462
1707.895874	351.053894
1707.062622	386.993591
1706.229126	377.929474
1705.395508	389.860931
1704.561646	356.811981
1703.727783	368.742950
1702.893677	371.677643
1702.059570	368.617523
1701.225220	407.507751
1700.390747	374.483856
1699.556030	338.475800
1698.721313	389.330688
1697.886353	380.281433
1697.051392	368.241394
1696.216187	401.105286
1695.380859	463.886108
1694.545410	383.014923
1693.709717	403.892303
1692.874023	421.771271
1692.038086	397.773254
1691.202026	370.793152
1690.365845	406.607117
1689.529541	367.677643
1688.692993	388.536224
1687.856445	397.434753
1687.019653	403.342499
1686.182739	415.222656
1685.345703	436.058868
1684.508545	424.039825
1683.671143	349.325409
1682.833740	397.028748
1681.996094	429.792480
1681.158325	378.988525
1680.320435	372.956635
1679.482422	399.741394
1678.644287	402.655914
1677.805908	399.605164
1676.967407	426.371643
1676.128784	396.487854
1675.290039	366.614227
1674.451172	357.611450
1673.612183	432.040161
1672.772949	381.322174
1671.933594	417.000000
1671.094116	425.863098
1670.254517	461.521149
1669.414795	413.809692
1668.574829	437.551422
1667.734863	401.764404
1666.894653	413.597992
1666.054321	383.777252
1665.213867	434.278473
1664.373169	416.360382
1663.532471	383.580872
1662.691528	425.137268
1661.850464	383.450012
1661.009277	407.160370
1660.167969	407.090881
1659.326538	347.602203
1658.484863	427.745087
1657.643066	430.642029
1656.801147	430.568512
1655.959106	406.743561
1655.116943	397.768860
1654.274658	421.444275
1653.432129	409.502686
1652.589478	400.532043
1651.746704	364.866882
1650.903809	412.258820
1650.060791	427.015350
1649.217529	409.153137
1648.374146	447.620087
1647.530640	447.543640
1646.687012	435.613739
1645.843262	423.687897
1644.999390	497.674164
1644.155273	447.237854
1643.311035	402.741425
1642.466675	417.476746
1641.622192	438.127655
1640.777588	494.289276
1639.932739	420.222046
1639.087769	449.738251
1638.242798	402.328613
1637.397461	440.711121
1636.552124	405.148346
1635.706665	413.949402
1634.860962	422.747467
1634.015137	446.321320
1633.169189	398.960785
1632.323120	422.530609
1631.476929	407.687073
1630.630493	446.016083
1629.783936	431.173584
1628.937256	481.296356
1628.090454	416.264893
1627.243530	439.807495
1626.396484	478.098145
1625.549194	433.755585
1624.701782	421.880493
1623.854248	448.355682
1623.006592	463.024963
1622.158691	430.510040
1621.310791	445.177307
1620.462646	433.310333
1619.614380	486.285492
1618.765991	456.735443
1617.917358	412.464600
1617.068726	447.742035
1616.219849	412.323364
1615.370850	418.142090
1614.521729	444.567902
1613.672363	397.393311
1612.822998	459.131378
1611.973389	432.568909
1611.123657	485.453369
1610.273804	497.136749
1609.423828	485.287048
1608.573608	461.678864
1607.723389	432.198517
1606.872925	446.822540
1606.022339	464.380707
1605.171509	473.116943
1604.320679	381.954437
1603.469604	440.641113
1602.618408	466.999512
1601.767090	414.060638
1600.915649	452.158905
1600.064087	413.918671
1599.212280	496.030243
1598.360352	443.122620
1597.508301	437.178467
1596.656128	422.435577
1595.803833	478.091614
1594.951294	431.088409
1594.098633	466.199341
1593.245850	451.461517
1592.392944	471.901520
1591.539795	451.306641
1590.686646	468.809570
1589.833252	448.222229
1588.979736	448.145325
1588.126099	421.711456
1587.272217	439.207367
1586.418335	459.624817
1585.564209	421.494354
1584.709961	479.952820
1583.855591	471.092316
1583.000977	453.458221
1582.146362	476.780640
1581.291504	409.434540
1580.436523	488.313049
1579.581421	496.999786
1578.726074	435.530884
1577.870605	476.371429
1577.015137	455.835449
1576.159424	449.914124
1575.303467	406.021576
1574.447510	473.123688
1573.591309	478.882446
1572.734985	472.961151
1571.878540	464.122833
1571.021973	490.309692
1570.165161	417.275208
1569.308350	463.883606
1568.451294	452.135864
1567.594116	472.473694
1566.736694	440.316437
1565.879272	457.733765
1565.021606	460.570068
1564.163818	451.747375
1563.305908	463.325714
1562.447876	457.419037
1561.589600	486.470337
1560.731201	448.524261
1559.872681	448.447113
1559.014038	477.484924
1558.155273	454.114868
1557.296265	523.888550
1556.437134	503.428497
1555.577881	500.432373
1554.718506	468.347412
1553.859009	546.796021
1552.999268	453.646301
1552.139404	491.365570
1551.279419	488.374023
1550.419312	494.102966
1549.558960	456.240082
1548.698608	485.216400
1547.838013	447.368042
1546.977173	461.813477
1546.116333	470.445923
1545.255249	461.654480
1544.394165	455.769012
1543.532837	510.837769
1542.671265	502.043854
1541.809692	510.661865
1540.947876	449.653137
1540.085938	519.187439
1539.223877	463.998199
1538.361694	495.812653
1537.499268	440.646423
1536.636841	507.235779
1535.774170	483.964478
1534.911377	486.778564
1534.048340	451.930786
1533.185303	498.196777
1532.322021	472.046967
1531.458618	480.652100
1530.594971	480.569244
1529.731323	529.692871
1528.867432	500.661560
1528.003418	480.320740
1527.139282	468.665924
1526.275024	459.907623
1525.410522	503.208344
1524.545898	459.749023
1523.681152	436.541687
1522.816284	540.524597
1521.951172	525.981323
1521.086060	523.001099
1520.220703	496.909790
1519.355225	491.047058
1518.489502	505.402405
1517.623779	522.640259
1516.757813	467.696777
1515.891724	467.616058
1515.025513	525.255798
1514.159058	559.791382
1513.292480	481.799133
1512.425781	516.330261
1511.558960	470.096680
1510.692017	467.132019
1509.824829	510.296844
1508.957520	510.208740
1508.090088	492.828430
1507.222534	489.861786
1506.354736	484.015106
1505.486938	506.975861
1504.618896	463.687592
1503.750610	509.680298
1502.882324	454.890259
1502.013794	495.111450
1501.145142	469.123413
1500.276367	483.430145
1499.407471	471.838379
1498.538330	514.905334
1497.669067	546.453125
1496.799683	488.847229
1495.930176	485.887665
1495.060547	477.179962
1494.190674	491.467896
1493.320679	508.624420
1492.450562	548.759705
1491.580200	517.066345
1490.709717	494.000214
1489.839233	482.428406
1488.968384	516.798157
1488.097534	488.002777
1487.226440	530.969971
1486.355347	525.138916
1485.483887	539.393677
1484.612427	542.169006
1483.740845	533.470825
1482.869019	553.451904
1481.997070	513.216370
1481.124878	490.194458
1480.252686	495.841919
1479.380249	472.830994
1478.507690	501.400604
1477.635010	558.606873
1476.762207	529.868591
1475.889160	504.003967
1475.015991	572.632629
1474.142700	523.868164
1473.269165	543.812683
1472.395630	575.196960
1471.521851	526.457275
1470.647949	609.325989
1469.773804	583.478760
1468.899658	603.395569
1468.025269	588.995056
1467.150757	643.208435
1466.276001	634.522339
1465.401245	602.977600
1464.526245	665.731934
1463.651123	662.759888
1462.775879	668.357483
1461.900391	665.385925
1461.024780	716.664917
1460.149048	645.172119
1459.273193	667.894287
1458.397217	699.169861
1457.520996	713.314941
1456.644653	641.872131
1455.768188	673.135864
1454.891479	655.908508
1454.014648	681.456299
1453.137695	661.382629
1452.260620	615.663269
1451.383423	649.754089
1450.505981	643.942749
1449.628418	683.714417
1448.750732	629.477844
1447.872803	714.803284
1446.994873	677.664001
1446.116699	623.456604
1445.238403	700.199585
1444.359863	700.078125
1443.481201	674.348450
1442.602417	748.197754
1441.723511	793.577759
1440.844482	813.347107
1439.965210	801.832397
1439.085815	844.336487
1438.206299	832.820374
1437.326538	807.098694
1436.446777	818.324158
1435.566772	826.704834
1434.686646	764.072083
1433.806274	678.741699
1432.925781	721.215271
1432.045166	678.505981
1431.164429	621.619263
1430.283569	655.566650
1429.402466	663.965149
1428.521240	669.523743
1427.639893	635.369751
1426.758301	643.767273
1425.876709	609.629578
1424.994873	606.688660
1424.112793	640.597229
1423.230713	592.307739
1422.348389	609.205933
1421.465942	546.773499
1420.583374	614.659180
1419.700562	608.888245
1418.817627	600.287781
1417.934570	651.142395
1417.051392	662.351379
1416.167969	764.118713
1415.284546	738.519653
1414.400757	687.467651
1413.516968	724.119812
1412.633057	591.073120
1411.748901	630.556824
1410.864624	593.694580
1409.980103	570.978333
1409.095459	585.009644
1408.210815	522.743713
1407.325806	567.855164
1406.440796	536.685120
1405.555542	576.130066
1404.670166	607.090210
1403.784668	556.167236
1402.899048	544.779663
1402.013184	612.417603
1401.127197	513.551147
1400.241089	561.422485
1399.354736	569.786926
1398.468262	555.586487
1397.581665	558.309509
1396.694946	527.200500
1395.807983	580.665161
1394.920898	572.109192
1394.033691	605.822937
1393.146362	524.015991
1392.258789	557.726257
1391.371094	568.894348
1390.483276	594.137573
1389.595337	594.034058
1388.707153	562.967346
1387.818848	551.611816
1386.930420	616.234375
1386.041748	590.806702
1385.152954	638.522583
1384.264038	621.536987
1383.375000	568.002625
1382.485718	562.280823
1381.596313	632.455627
1380.706787	545.222168
1379.817139	547.937073
1378.927246	606.839844
1378.037231	539.319092
1377.147095	586.968933
1376.256714	606.522339
1375.366333	612.031494
1374.475586	589.468811
1373.584839	594.978943
1372.693970	606.099243
1371.802856	583.549255
1370.911499	605.887756
1370.020142	560.909241
1369.128540	588.851929
1368.236816	585.945618
1367.344971	512.963318
1366.453003	633.385071
1365.560791	566.024109
1364.668457	619.155884
1363.775879	602.241089
1362.883301	574.129578
1361.990479	534.827332
1361.097534	571.129456
1360.204346	551.435547
1359.311035	545.741882
1358.417603	559.637512
1357.524048	590.314453
1356.630249	556.644775
1355.736450	539.767212
1354.842285	520.099304
1353.948120	545.170105
1353.053711	539.484375
1352.159180	595.285400
1351.264526	530.912964
1350.369751	578.314636
1349.474731	561.453735
1348.579590	536.220276
1347.684204	541.711182
1346.788818	533.240967
1345.893188	588.974731
1344.997314	552.590576
1344.101440	535.751709
1343.205322	569.136658
1342.309082	541.143127
1341.412720	521.526123
1340.516113	563.261230
1339.619385	515.767822
1338.722534	568.639099
1337.825439	504.439575
1336.928223	532.216003
1336.030884	518.192993
1335.133423	518.102356
1334.235718	509.656647
1333.337891	520.705566
1332.439941	501.126160
1331.541870	526.090393
1330.643555	534.347473
1329.745117	506.428223
1328.846436	528.596252
1327.947754	534.066895
1327.048828	528.411194
1326.149780	519.976807
1325.250488	497.644623
1324.351074	489.218536
1323.451538	525.261963
1322.551880	502.940582
1321.651978	505.630676
1320.751953	497.208984
1319.851807	513.785217
1318.951416	497.034790
1318.050903	496.947723
1317.150269	469.103058
1316.249512	507.874664
1315.348511	516.110046
1314.447388	460.533600
1313.546021	429.940948
1312.644653	490.878784
1311.743042	482.474213
1310.841309	485.161987
1309.939331	482.305054
1309.037231	473.906372
1308.135010	476.594177
1307.232666	487.592255
1306.330078	459.807495
1305.427368	487.421234
1304.524536	487.335754
1303.621460	481.713348
1302.718262	501.004730
1301.814941	595.011719
1300.911499	572.771240
1300.007813	517.340271
1299.104004	481.290955
1298.199951	608.421997
1297.295898	566.839233
1296.391602	677.323120
1295.487061	743.542603
1294.582520	865.011108
1293.677734	922.884949
1292.772827	837.080994
1291.867676	776.166565
1290.962402	596.521545
1290.057007	505.297546
1289.151489	507.969543
1288.245728	452.675964
1287.339844	449.836731
1286.433838	452.516968
1285.527588	419.332306
1284.621216	369.609589
1283.714722	430.216187
1282.808105	397.052887
1281.901245	410.767242
1280.994263	380.375305
1280.087036	394.087769
1279.179810	380.241638
1278.272217	385.684601
1277.364624	344.300751
1276.456787	355.255920
1275.548828	418.522522
1274.640747	390.919434
1273.732544	407.365540
1272.824097	388.029999
1271.915405	396.216278
1271.006714	341.126251
1270.097778	368.571625
1269.188721	299.755524
1268.279541	379.440277
1267.370117	387.620789
1266.460571	324.334808
1265.550781	360.003265
1264.640991	359.939941
1263.730957	392.842407
1262.820679	401.013275
1261.910400	343.272888
1260.999878	340.466766
1260.089233	321.190338
1259.178345	343.091705
1258.267334	367.729553
1257.356201	331.995850
1256.444824	348.397125
1255.533447	323.650574
1254.621704	337.305206
1253.709961	312.569275
1252.797974	337.186432
1251.885864	348.090546
1250.973633	315.144592
1250.061157	367.147278
1249.148560	325.991272
1248.235840	331.411743
1247.322876	364.214844
1246.409790	369.626648
1245.496582	317.549164
1244.583130	347.600342
1243.669556	320.173798
1242.755859	311.909241
1241.841919	339.209930
1240.927856	369.236053
1240.013672	306.275177
1239.099365	336.296478
1238.184814	297.966309
1237.270142	347.110535
1236.355225	338.851349
1235.440186	333.327209
1234.525024	303.219635
1233.609741	319.553528
1232.694214	344.073883
1231.778564	322.171112
1230.862671	283.897339
1229.946777	357.538391
1229.030640	352.017670
1228.114258	316.487183
1227.197876	379.172058
1226.281128	319.102905
1225.364380	308.139008
1224.447388	348.980835
1223.530273	376.178589
1222.613037	354.308594
1221.695557	313.371490
1220.777954	367.805969
1219.860229	305.088867
1218.942261	305.035004
1218.024170	334.934662
1217.105957	321.262695
1216.187500	337.538483
1215.268921	326.592468
1214.350220	337.419281
1213.431274	329.197784
1212.512207	320.979156
1211.593018	326.361816
1210.673706	304.550568
1209.754150	312.652924
1208.834351	326.188904
1207.914551	312.542450
1206.994507	369.550110
1206.074219	290.697601
1205.153931	306.944153
1204.233398	317.753296
1203.312744	301.404968
1202.391846	331.215363
1201.470825	298.584015
1200.549683	333.812195
1199.628296	339.180084
1198.706787	287.573853
1197.785156	344.485107
1196.863281	328.152191
1195.941284	317.248077
1195.019165	300.925720
1194.096802	295.451355
1193.174438	284.558777
1192.251709	314.314087
1191.328979	335.931488
1190.406006	308.785583
1189.482788	327.688110
1188.559570	254.522583
1187.636108	332.986572
1186.712402	322.100739
1185.788696	335.574982
1184.864746	324.692505
1183.940552	319.224457
1183.016357	294.824646
1182.091919	278.546448
1181.167236	346.093506
1180.242554	318.998474
1179.317505	321.644897
1178.392456	310.778259
1177.467163	348.550385
1176.541748	334.981354
1175.616211	299.809235
1174.690430	324.060699
1173.764526	334.803406
1172.838501	302.349487
1171.912231	345.481049
1170.985840	342.721252
1170.059204	353.453003
1169.132446	361.483276
1168.205566	345.236267
1167.278564	339.781708
1166.351318	339.721497
1165.423828	312.704041
1164.496338	323.429596
1163.568604	309.898407
1162.640747	328.703522
1161.712646	301.707092
1160.784424	320.506958
1159.856079	304.292969
1158.927490	290.777100
1157.998779	304.185059
1157.069946	317.588226
1156.140869	296.004333
1155.211670	312.094635
1154.282349	298.589294
1153.352783	274.330688
1152.423096	282.349121
1151.493164	268.856232
1150.563232	290.313202
1149.632935	274.136017
1148.702637	287.523041
1147.772095	311.651886
1146.841431	292.793335
1145.910522	287.369965
1144.979492	300.745056
1144.048340	289.952698
1143.116943	300.638275
1142.185425	303.268707
1141.253784	289.798248
1140.321899	260.235565
1139.389893	295.060059
1138.457764	303.053314
1137.525391	294.955261
1136.592896	337.797821
1135.660278	321.655060
1134.727417	326.957886
1133.794434	329.579315
1132.861206	380.422333
1131.927856	377.676178
1130.994385	417.780243
1130.060669	530.165283
1129.126831	527.393921
1128.192871	583.509827
1127.258667	521.854126
1126.324341	495.004333
1125.389893	481.540222
1124.455200	473.430359
1123.520386	358.352478
1122.585327	344.919769
1121.650146	400.998169
1120.714844	331.432861
1119.779297	288.615997
1118.843628	336.658783
1117.907837	283.170502
1116.971802	309.829559
1116.035645	291.081146
1115.099365	285.689392
1114.162842	269.621429
1113.226196	288.256744
1112.289307	288.205475
1111.352417	269.477509
1110.415161	269.429535
1109.477905	301.387329
1108.540405	314.667023
1107.602661	279.950470
1106.664917	293.229218
1105.726807	314.498993
1104.788696	293.124817
1103.850342	263.765350
1102.911865	271.709839
1101.973145	300.958282
1101.034302	314.219055
1100.095337	292.863892
1099.156128	268.854401
1098.216797	295.420990
1097.277344	242.148834
1096.337646	268.710724
1095.397827	273.982880
1094.457764	292.550934
1093.517700	305.794220
1092.577271	297.763885
1091.636841	281.762024
1090.696167	289.684784
1089.755249	316.204987
1088.814209	340.059021
1087.873047	345.310852
1086.931763	438.201019
1085.990234	435.467590
1085.048584	483.176636
1084.106689	432.657959
1083.164673	371.541779
1082.222412	352.901733
1081.280151	321.003693
1080.337524	291.769501
1079.394897	286.413483
1078.452026	310.225922
1077.509033	294.264374
1076.565796	294.211884
1075.622437	296.809448
1074.678955	304.705322
1073.735229	270.212128
1072.791382	283.407227
1071.847290	278.060242
1070.903076	254.181137
1069.958740	256.783020
1069.014160	296.438782
1068.069458	264.630219
1067.124512	293.687103
1066.179565	335.960358
1065.234253	362.349213
1064.288940	394.017456
1063.343384	520.856201
1062.397583	531.337036
1061.451660	504.812134
1060.505615	531.147156
1059.559448	488.779480
1058.613037	441.143707
1057.666382	375.037201
1056.719727	367.048279
1055.772827	285.137604
1054.825684	300.924805
1053.878418	332.541656
1052.931030	311.372223
1051.983398	303.401733
1051.035645	303.347473
1050.087769	271.645264
1049.139648	300.602142
1048.191406	226.729492
1047.242920	258.319977
1046.294312	221.377518
1045.345581	276.672394
1044.396606	279.257416
1043.447510	258.135193
1042.498291	242.287643
1041.548828	308.071564
1040.599121	302.751190
1039.649414	281.639832
1038.699341	263.167694
1037.749268	284.170258
1036.798950	255.181305
1035.848511	281.438263
1034.897827	239.311203
1033.947021	257.673615
1032.996094	252.369781
1032.044922	283.865173
1031.093506	254.907333
1030.142090	278.508636
1029.190430	246.935135
1028.238525	262.649902
1027.286499	220.586411
1026.334351	249.428040
1025.381958	238.883011
1024.429443	228.341736
1023.476807	267.663055
1022.523926	249.249344
1021.570923	280.683167
1020.617737	246.537292
1019.664368	249.115372
1018.710815	246.448929
1017.757080	241.162109
1016.803223	256.844025
1015.849121	246.316437
1014.894897	238.412521
1013.940491	246.228119
1012.985962	217.375214
1012.031189	240.902817
1011.076294	256.567841
1010.121216	248.669128
1009.165955	259.092926
1008.210510	235.496780
1007.254944	256.383820
1006.299133	248.490768
1005.343201	211.833069
1004.387085	243.172104
1003.430786	274.499878
1002.474365	214.332870
1001.517700	256.107971
1000.560913	219.481705
999.603943	237.729172
998.646790	266.417847
997.689514	240.255310
996.731995	258.489197
995.774353	242.779587
994.816528	255.786331
993.858521	263.569183
992.900330	240.039719
991.942017	268.691864
990.983459	229.520737
990.024780	216.440918
989.065918	250.296326
988.106873	247.644577
987.147705	244.993774
986.188293	237.132217
985.228760	252.721893
984.269043	263.096130
983.309143	244.817749
982.349060	247.377731
981.388794	288.989410
980.428406	244.685776
979.467834	239.436646
978.507019	268.016754
977.546082	278.375122
976.585022	283.527405
975.623718	260.070129
974.662292	280.825226
973.700623	236.578705
972.738831	231.337555
971.776855	249.487762
970.814758	249.442886
969.852417	257.191711
968.889954	254.548019
967.927246	257.099182
966.964417	257.052917
966.001404	262.198730
965.038208	280.320465
964.074890	254.319092
963.111328	282.814209
962.147644	269.792511
961.183777	306.055634
960.219727	210.051224
959.255493	267.054077
958.291077	282.559753
957.326538	233.264221
956.361755	287.640717
955.396851	259.089142
954.431763	259.042480
953.466492	258.995819
952.501038	227.875275
951.535461	222.656174
950.569641	235.558853
949.603699	269.161621
948.637573	284.638885
947.671265	256.128845
946.704773	253.496002
945.738098	297.416199
944.771240	258.576172
943.804260	292.138397
942.837097	253.313309
941.869751	268.773834
940.902222	253.221985
939.934509	255.759766
938.966614	273.794434
937.998535	276.327545
937.030334	245.293304
936.061951	240.085938
935.093323	268.434784
934.124573	239.999344
933.155640	288.979340
932.186584	247.651886
931.217285	237.290237
930.247864	275.929077
929.278198	265.566040
928.308411	260.362427
927.338440	291.244019
926.368286	267.999237
925.397949	278.256653
924.427429	257.598541
923.456787	262.703094
922.485901	275.530945
921.514893	267.757446
920.543701	254.838470
919.572327	283.102722
918.600769	285.624817
917.629028	228.973129
916.657104	270.088043
915.685059	262.323853
914.712769	282.847198
913.740356	277.654358
912.767761	275.033783
911.794983	259.564423
910.822021	262.087006
909.848877	238.918503
908.875549	272.266510
907.902039	249.104507
906.928406	267.032867
905.954590	274.686066
904.980530	243.836075
904.006348	279.719238
903.031982	264.274078
902.057434	266.791595
901.082703	233.400436
900.107849	292.338898
899.132751	266.646912
898.157532	235.837296
897.182068	271.676422
896.206482	289.564941
895.230713	289.512573
894.254761	302.268158
893.278625	281.724426
892.302307	276.552124
891.325806	330.266388
890.349182	261.093597
889.372314	278.961304
888.395325	268.675568
887.418091	248.160110
886.440735	266.020416
885.463196	291.546509
884.485474	265.924103
883.507568	263.319458
882.529480	263.271790
881.551270	265.779694
880.572815	245.290680
879.594238	265.683441
878.615417	286.068817
877.636475	324.322845
876.657349	262.985840
875.677979	275.702209
874.698486	342.012970
873.718811	283.257935
872.739014	316.374939
871.758972	306.113831
870.778748	323.911743
869.798401	249.902359
868.817810	290.650055
867.837097	300.793762
866.856140	282.898773
865.875061	254.817566
864.893799	254.771362
863.912354	272.555939
862.930725	267.412933
861.948914	259.725464
860.966919	269.861816
859.984741	290.176117
859.002441	313.027985
858.019897	300.248779
857.037231	267.122070
856.054321	289.965637
855.071289	284.826843
854.088074	300.030975
853.104614	264.386078
852.121033	279.588379
851.137268	302.408905
850.153320	284.568481
849.169189	261.653870
848.184937	345.422028
847.200439	286.952972
846.215759	304.673492
845.230896	297.002716
844.245911	291.872742
843.260681	324.808044
842.275330	309.526459
841.289795	312.006897
840.304016	271.371338
839.318115	271.322021
838.332031	291.554810
837.345764	309.245453
836.359314	314.257935
835.372681	319.268585
834.385864	291.342987
833.398865	278.625275
832.411743	276.042114
831.424377	298.780273
830.436829	278.473358
829.449158	268.298279
828.461243	270.780182
827.473206	290.972504
826.484924	323.806183
825.496521	278.220337
824.507935	336.332489
823.519104	321.101196
822.530151	331.154388
821.541016	318.456970
820.551697	280.494385
819.562195	290.549438
818.572510	282.918427
817.582642	305.597321
816.592590	310.591980
815.602356	323.158875
814.611938	325.624268
813.621399	325.565033
812.630615	307.842651
811.639648	269.944000
810.648560	277.462036
809.657227	284.977295
808.665771	327.790283
807.674072	289.915527
806.682251	267.177826
805.690186	289.809967
804.697998	282.198303
803.705566	287.185242
802.713013	297.207764
801.720276	287.080627
800.727356	289.546143
799.734253	274.389374
798.740906	259.238129
797.747437	312.035645
796.753784	276.755371
795.759949	344.623444
794.765930	324.440308
793.771729	344.497833
792.777344	354.491547
791.782776	339.344910
790.788025	258.860413
789.793091	291.478973
788.798035	324.085602
787.802734	339.097504
786.807251	313.921936
785.811584	326.419250
784.815796	338.912018
783.819763	328.810211
782.823547	306.164337
781.827148	301.090302
780.830627	293.509491
779.833862	263.357910
778.836975	300.925537
777.839844	305.885132
776.842529	298.308929
775.845093	330.836914
774.847412	310.729462
773.849609	293.134766
772.851563	285.566376
771.853394	295.532288
770.854980	295.478333
769.856445	280.402802
768.857666	287.861023
767.858765	317.840637
766.859680	312.778137
765.860352	335.236908
764.860901	337.677002
763.861206	322.610199
762.861389	345.054840
761.861389	314.992523
760.861145	294.939087
759.860779	259.898834
758.860168	327.312744
757.859436	304.769897
756.858521	309.709503
755.857361	307.155701
754.856079	342.053986
753.854614	307.043427
752.852905	277.037323
751.851074	319.408051
750.848999	336.814087
749.846802	311.807861
748.844421	423.981140
747.841797	411.435852
746.839050	296.678253
745.836121	319.057739
744.832947	304.046265
743.829651	338.874847
742.826111	328.847748
741.822449	306.370239
740.818604	308.804565
739.814514	313.727844
738.810303	321.138794
737.805847	303.657074
736.801270	340.929535
735.796448	318.474396
734.791504	328.366608
733.786316	328.306488
732.781006	323.272949
731.775452	328.186279
730.769775	308.239746
729.763855	335.522156
728.757751	330.490906
727.751526	350.305908
726.745056	362.661652
725.738403	330.309357
724.731628	337.698059
723.724609	342.601410
722.717407	322.681335
721.710083	344.957581
720.702515	310.156830
719.694763	329.946381
718.686829	352.209015
717.678711	334.785217
716.670410	312.408936
715.661987	361.931305
714.653320	351.950836
713.644470	376.667023
712.635437	344.388916
711.626221	354.234436
710.616821	366.553009
709.607178	378.867065
708.597412	346.612152
707.587463	306.943024
706.577332	351.434814
705.567017	331.574829
704.556458	326.566010
703.545776	358.662018
702.534912	296.769257
701.523804	343.694641
700.512573	304.076843
699.501099	343.568512
698.489502	328.677856
697.477661	370.621277
696.465698	350.790405
695.453491	338.376495
694.441101	318.558777
693.428589	338.252258
692.415833	338.190125
691.402893	313.447144
690.389771	328.195374
689.376465	330.602295
688.362976	291.073914
687.349304	298.419281
686.335449	320.556854
685.321411	322.963318
684.307190	340.158386
683.292725	337.631409
682.278137	362.209473
681.263367	371.997131
680.248352	369.465637
679.233215	369.397736
678.217834	408.725006
677.202332	369.261932
676.186584	344.581116
675.170654	334.674377
674.154541	334.612854
673.138306	364.070557
672.121826	341.868256
671.105164	356.559570
670.088318	341.742493
669.071289	331.847137
668.054016	353.905151
667.036621	329.267822
666.019043	358.688477
665.001282	336.515625
663.983276	400.306213
662.965149	333.936371
661.946777	385.429108
660.928223	397.630737
659.909546	375.471008
658.890625	399.937958
657.871521	397.411163
656.852234	382.621765
655.832764	358.028809
654.813110	360.414673
653.793274	384.861786
652.773254	416.652588
651.752991	382.269592
650.732605	406.699127
649.711975	384.578308
648.691223	364.914734
647.670227	406.474396
646.649048	423.536835
645.627747	450.383911
644.606201	499.246674
643.584473	447.771088
642.562561	499.062653
641.540466	462.281647
640.518127	508.660645
639.495667	562.357605
638.473022	530.474365
637.450134	562.150269
636.427063	518.060364
635.403870	493.532501
634.380432	483.670380
633.356812	522.658447
632.333008	476.166321
631.309021	454.105652
630.284851	463.785767
629.260498	449.057068
628.235901	434.333740
627.211182	439.132843
626.186218	475.639465
625.161133	429.215881
624.135803	407.192169
623.110291	392.490051
622.084595	402.167114
621.058716	394.782104
620.032654	353.289124
619.006409	355.659912
617.979919	392.127899
616.953308	406.666260
615.926453	367.636322
614.899414	362.699951
613.872253	365.066742
612.844849	413.665894
611.817261	386.827820
610.789490	403.783356
609.761475	423.164612
608.733337	355.003540
607.705017	403.559570
606.676453	391.331848
605.647705	362.097321
604.618774	383.898010
603.589722	340.099915
602.560425	395.900269
601.530884	378.828369
600.501221	403.037720
599.471375	361.695892
598.441284	388.326447
597.411011	376.121674
596.380615	359.069122
595.349976	359.002716
594.319153	337.109100
593.288147	354.020325
592.256897	361.227875
591.225525	346.617645
590.193970	351.400421
589.162170	409.487457
588.130188	375.495941
587.098022	377.848541
586.065674	375.356964
585.033142	358.339020
584.000427	380.059540
582.967468	379.989197
581.934387	343.620850
580.901062	394.364990
579.867554	408.805786
578.833862	401.474518
577.799988	394.145966
576.765930	381.984833
575.731628	377.079742
574.697205	401.177185
573.662537	415.600555
572.627747	417.939392
571.592712	405.785034
570.557434	400.879974
569.522034	395.976715
568.486450	369.348816
567.450623	400.657135
566.414673	378.864532
565.378479	313.651337
564.342102	395.609894
563.305542	400.360168
562.268799	373.760956
561.231812	429.142670
560.194702	433.884033
559.157349	424.163513
558.119812	462.638000
557.082092	436.051819
556.044189	421.518860
555.006042	428.665375
553.967773	426.178040
552.929260	430.913666
551.890625	433.240601
550.851746	423.534424
549.812683	421.049835
548.773376	411.349487
547.733948	440.134430
546.694275	471.313293
545.654419	454.396332
544.614441	420.659241
543.574158	439.807709
542.533752	468.560516
541.493164	454.058960
540.452332	405.934998
539.411316	461.094940
538.370178	458.608215
537.328735	417.712097
536.287170	427.235291
535.245422	410.357666
534.203430	446.271027
533.161255	467.777832
532.118896	422.121033
531.076355	460.410126
530.033630	426.759216
528.990723	484.209778
527.947571	486.516418
526.904236	467.256470
525.860718	495.918518
524.817017	455.106293
523.773132	486.154724
522.729004	555.502136
521.684692	600.884033
520.640198	543.327942
519.595520	524.082336
518.550659	502.451233
517.505615	476.043793
516.460327	471.171783
515.414856	487.823151
514.369202	523.595093
513.323364	485.251251
512.277283	506.670532
511.231079	511.355286
510.184631	525.594482
509.138000	463.392517
508.091187	463.306274
507.044159	444.118164
505.996948	460.746490
504.949554	489.302856
503.901947	439.097351
502.854126	455.717285
501.806152	477.102020
500.757965	453.162506
499.709564	503.155151
