3200.53	101.035
3199.94	109.454
3199.34	143.111
3198.75	138.881
3198.15	109.405
3197.56	84.1446
3196.96	92.5451
3196.37	130.385
3195.78	84.1064
3195.18	92.5031
3194.59	109.305
3193.99	96.6785
3193.4	121.881
3192.8	113.458
3192.21	79.8287
3191.61	96.6201
3191.02	117.607
3190.42	104.99
3189.83	88.1783
3189.23	113.355
3188.63	100.745
3188.04	121.715
3187.44	83.9286
3186.85	88.1116
3186.25	109.074
3185.66	125.836
3185.06	121.623
3184.46	79.6718
3183.87	113.201
3183.27	134.144
3182.67	92.2097
3182.08	134.103
3181.48	117.322
3180.88	92.1679
3180.29	92.1539
3179.69	134.022
3179.09	104.689
3178.5	142.355
3177.9	133.961
3177.3	83.7129
3176.7	125.55
3176.11	96.2407
3175.51	125.512
3174.91	104.578
3174.31	83.6495
3173.72	104.546
3173.12	125.436
3172.52	104.514
3171.92	96.1387
3171.32	112.841
3170.73	112.824
3170.13	150.41
3169.53	150.387
3168.93	116.95
3168.33	100.227
3167.73	87.6858
3167.13	121.072
3166.54	108.53
3165.94	95.9931
3165.34	125.189
3164.74	141.86
3164.14	104.293
3163.54	125.133
3162.94	125.114
3162.34	100.076
3161.74	120.906
3161.14	104.214
3160.54	145.877
3159.94	116.684
3159.34	120.833
3158.74	120.815
3158.14	145.789
3157.54	74.9658
3156.94	133.252
3156.34	129.069
3155.74	112.398
3155.14	99.8938
3154.54	141.495
3153.94	112.346
3153.34	133.131
3152.74	128.951
3152.13	108.136
3151.53	103.961
3150.93	133.05
3150.33	112.244
3149.73	103.914
3149.13	108.054
3148.53	108.038
3147.92	124.64
3147.32	145.391
3146.72	137.062
3146.12	128.736
3145.52	124.564
3144.91	153.606
3144.31	116.225
3143.71	136.959
3143.11	145.237
3142.5	141.066
3141.9	165.935
3141.3	120.284
3140.7	157.59
3140.09	149.273
3139.49	157.542
3138.89	128.502
3138.28	116.049
3137.68	120.175
3137.08	87.01
3136.47	120.138
3135.87	120.12
3135.27	136.668
3134.66	144.928
3134.06	140.766
3133.45	124.187
3132.85	132.446
3132.25	140.702
3131.64	190.333
3131.04	103.426
3130.43	128.229
3129.83	144.752
3129.22	132.325
3128.62	119.901
3128.02	140.553
3127.41	165.331
3126.81	123.979
3126.2	128.092
3125.6	99.1533
3124.99	140.446
3124.38	115.644
3123.78	152.792
3123.17	165.155
3122.57	156.873
3121.96	140.339
3121.36	107.302
3120.75	136.17
3120.15	90.7662
3119.54	119.628
3118.93	185.602
3118.33	156.706
3117.72	144.313
3117.11	144.291
3116.51	123.659
3115.9	131.883
3115.29	140.104
3114.69	152.443
3114.08	131.823
3113.47	156.516
3112.87	119.428
3112.26	152.351
3111.65	127.626
3111.04	123.49
3110.44	127.587
3109.83	139.913
3109.22	156.349
3108.61	135.756
3108.01	156.302
3107.4	160.39
3106.79	152.142
3106.18	164.453
3105.57	160.317
3104.97	147.962
3104.36	143.83
3103.75	172.57
3103.14	139.678
3102.53	127.335
3101.92	172.491
3101.31	131.402
3100.71	135.488
3100.1	160.097
3099.49	164.178
3098.88	143.633
3098.27	151.818
3097.66	102.564
3097.05	143.568
3096.44	147.647
3095.83	155.826
3095.22	151.702
3094.61	151.679
3094	168.051
3093.39	106.553
3092.78	159.805
3092.17	159.781
3091.56	184.334
3090.95	176.115
3090.34	159.708
3089.73	184.25
3089.12	171.94
3088.51	151.448
3087.9	171.888
3087.29	151.402
3086.68	188.201
3086.06	163.628
3085.45	200.414
3084.84	139.041
3084.23	192.175
3083.62	183.969
3083.01	196.204
3082.4	155.304
3081.78	196.144
3081.17	159.343
3080.56	155.233
3079.95	196.054
3079.34	183.773
3078.72	183.745
3078.11	163.304
3077.5	175.525
3076.89	155.091
3076.27	187.713
3075.66	171.364
3075.05	220.292
3074.43	154.997
3073.82	163.129
3073.21	195.725
3072.6	154.926
3071.98	199.742
3071.37	138.575
3070.76	195.606
3070.14	179.278
3069.53	187.398
3068.91	171.077
3068.3	154.76
3067.69	183.241
3067.07	207.641
3066.46	203.538
3065.84	207.577
3065.23	187.198
3064.62	203.445
3064	142.39
3063.39	154.571
3062.77	215.553
3062.16	174.856
3061.54	178.895
3060.93	227.65
3060.31	203.228
3059.7	162.557
3059.08	162.532
3058.47	150.32
3057.85	186.855
3057.24	166.519
3056.62	178.676
3056	194.89
3055.39	190.801
3054.77	190.771
3054.16	162.334
3053.54	178.54
3052.92	174.455
3052.31	219.05
3051.69	198.737
3051.07	206.817
3050.46	170.294
3049.84	218.916
3049.22	174.295
3048.61	194.533
3047.99	198.555
3047.37	230.937
3046.76	190.393
3046.14	238.967
3045.52	194.384
3044.9	210.55
3044.29	202.421
3043.67	194.295
3043.05	206.407
3042.43	157.816
3041.82	157.792
3041.2	230.584
3040.58	190.101
3039.96	206.249
3039.34	234.521
3038.72	165.757
3038.11	198.07
3037.49	230.372
3036.87	238.419
3036.25	173.736
3035.63	214.107
3035.01	185.801
3034.39	222.119
3033.77	201.895
3033.16	205.902
3032.54	181.65
3031.92	185.658
3031.3	185.63
3030.68	209.81
3030.06	221.881
3029.44	213.78
3028.82	241.978
3028.2	241.941
3027.58	173.364
3026.96	201.555
3026.34	237.799
3025.72	209.553
3025.1	237.726
3024.48	245.747
3023.86	197.373
3023.23	189.288
3022.61	201.339
3021.99	245.596
3021.37	217.38
3020.75	225.396
3020.13	225.362
3019.51	237.398
3018.89	237.362
3018.27	265.483
3017.64	269.464
3017.02	213.125
3016.4	229.175
3015.78	233.16
3015.16	225.085
3014.53	241.126
3013.91	225.016
3013.29	220.964
3012.67	224.947
3012.04	249.011
3011.42	261.02
3010.8	220.829
3010.18	276.997
3009.55	272.941
3008.93	236.78
3008.31	236.744
3007.69	248.743
3007.06	228.648
3006.44	256.689
3005.82	252.639
3005.19	280.667
3004.57	236.526
3003.94	252.523
3003.32	236.453
3002.7	304.537
3002.07	244.394
3001.45	240.35
3000.82	304.397
3000.2	276.318
2999.58	296.295
2998.95	280.236
2998.33	264.182
2997.7	256.138
2997.08	296.114
2996.45	312.072
2995.83	304.023
2995.2	287.978
2994.58	275.936
2993.95	255.902
2993.33	263.858
2992.7	327.773
2992.08	307.74
2991.45	247.752
2990.82	299.654
2990.2	311.593
2989.57	279.591
2988.95	295.523
2988.32	287.491
2987.69	327.37
2987.07	307.362
2986.44	299.332
2985.82	219.477
2985.19	287.271
2984.56	251.323
2983.94	299.148
2983.31	267.198
2982.68	275.132
2982.05	275.089
2981.43	314.909
2980.8	298.918
2980.17	302.857
2979.54	274.92
2978.92	342.602
2978.29	334.583
2977.66	306.654
2977.03	290.679
2976.41	230.915
2975.78	362.242
2975.15	318.405
2974.52	298.459
2973.89	310.349
2973.27	389.866
2972.64	330.142
2972.01	314.183
2971.38	341.97
2970.75	337.941
2970.12	314.038
2969.49	353.735
2968.86	321.889
2968.23	349.653
2967.6	309.872
2966.98	385.295
2966.35	297.862
2965.72	357.38
2965.09	337.473
2964.46	325.512
2963.83	333.4
2963.2	388.907
2962.57	380.912
2961.94	396.722
2961.31	341.128
2960.68	428.328
2960.05	368.781
2959.42	396.478
2958.78	348.847
2958.15	368.611
2957.52	404.22
2956.89	443.781
2956.26	443.713
2955.63	423.839
2955	459.418
2954.37	360.35
2953.74	411.765
2953.1	407.743
2952.47	419.555
2951.84	463.022
2951.21	391.727
2950.58	454.967
2949.95	439.074
2949.31	490.422
2948.68	482.437
2948.05	521.901
2947.42	506.007
2946.78	588.933
2946.15	541.419
2945.52	580.849
2944.89	545.203
2944.25	639.922
2943.62	679.319
2942.99	631.827
2942.35	683.057
2941.72	726.377
2941.09	809.154
2940.45	789.296
2939.82	864.146
2939.19	962.645
2938.55	930.939
2937.92	954.459
2937.28	997.69
2936.65	993.593
2936.02	1198.44
2935.38	1166.72
2934.75	1182.3
2934.11	1201.82
2933.48	1201.64
2932.84	1311.75
2932.21	1283.97
2931.57	1295.59
2930.94	1354.45
2930.3	1405.42
2929.67	1393.39
2929.03	1538.79
2928.4	1467.73
2927.76	1581.6
2927.13	1518.41
2926.49	1518.18
2925.86	1553.34
2925.22	1490.19
2924.58	1584.31
2923.95	1615.51
2923.31	1528.8
2922.68	1560
2922.04	1606.9
2921.4	1708.79
2920.77	1594.62
2920.13	1676.84
2919.49	1574.5
2918.86	1703.81
2918.22	1660.36
2917.58	1671.88
2916.95	1589.22
2916.31	1612.51
2915.67	1741.72
2915.03	1627.7
2914.4	1631.37
2913.76	1733.07
2913.12	1732.8
2912.48	1665.9
2911.85	1842
2911.21	1771.18
2910.57	1837.51
2909.93	1895.99
2909.29	1911.36
2908.65	1907.15
2908.02	1996.91
2907.38	1930.05
2906.74	2000.21
2906.1	2070.35
2905.46	2120.9
2904.82	2187.08
2904.18	2261.07
2903.54	2268.54
2902.9	2276.01
2902.27	2353.86
2901.63	2298.76
2900.99	2411.76
2900.35	2477.83
2899.71	2633.75
2899.07	2582.55
2898.43	2617.31
2897.79	2527.07
2897.15	2788.33
2896.51	2655.14
2895.87	2767.95
2895.23	2833.88
2894.59	2891.98
2893.94	2848.61
2893.3	2891.09
2892.66	2929.65
2892.02	2948.7
2891.38	3006.74
2890.74	3056.96
2890.1	3044.79
2889.46	3032.63
2888.82	3086.72
2888.17	2992.72
2887.53	3163.69
2886.89	3350.18
2886.25	3275.66
2885.61	3567.23
2884.96	3582.25
2884.32	3908.72
2883.68	4079.39
2883.04	4187.73
2882.4	4883.63
2881.75	5236.93
2881.11	5796.3
2880.47	6359.38
2879.82	6758.96
2879.18	7080.64
2878.54	7079.54
2877.9	6507.04
2877.25	6024.1
2876.61	5630.69
2875.97	5008.17
2875.32	4696.61
2874.68	4241.45
2874.03	4069.91
2873.39	3882.9
2872.75	3657.13
2872.1	3466.36
2871.46	3551.2
2870.81	3410.95
2870.17	3270.75
2869.53	3215.93
2868.88	3230.95
2868.24	3156.76
2867.59	3144.64
2866.95	2973.57
2866.3	3151.42
2865.66	2961.02
2865.01	3057.44
2864.37	3161.57
2863.72	3180.45
2863.08	3253.55
2862.43	3322.75
2861.78	3237.05
2861.14	3414.64
2860.49	3406.37
2859.85	3309.08
2859.2	3529.14
2858.55	3605.97
2857.91	3640.23
2857.26	3805.98
2856.62	3851.8
2855.97	4013.6
2855.32	4051.64
2854.68	4236.55
2854.03	4417.54
2853.38	4509.6
2852.73	4628.67
2852.09	4658.85
2851.44	4963.27
2850.79	5020.42
2850.15	5255.18
2849.5	5416.51
2848.85	5755.36
2848.2	5912.7
2847.55	6170.32
2846.91	6285.11
2846.26	6156.83
2845.61	6368.01
2844.96	6459.58
2844.31	6346.76
2843.67	6314.93
2843.02	6202.16
2842.37	5973.81
2841.72	5730.11
2841.07	5494.19
2840.42	5011.8
2839.77	4868.51
2839.12	4548.12
2838.47	4223.97
2837.82	3896.07
2837.18	3841.58
2836.53	3294.47
2835.88	3197.75
2835.23	3020.27
2834.58	2631.27
2833.93	2442.39
2833.28	2322.79
2832.63	2153.25
2831.98	2064.49
2831.33	1710.53
2830.67	1664.15
2830.02	1552.45
2829.37	1463.84
2828.72	1417.51
2828.07	1279.02
2827.42	1167.45
2826.77	1121.19
2826.12	1113.34
2825.47	1001.85
2824.82	1040.07
2824.16	947.817
2823.51	878.608
2822.86	893.816
2822.21	862.993
2821.56	801.499
2820.91	736.191
2820.25	755.245
2819.6	739.795
2818.95	797.168
2818.3	705.077
2817.64	655.16
2816.99	666.55
2816.34	662.616
2815.69	693.149
2815.03	731.331
2814.38	646.993
2813.73	650.72
2813.07	662.1
2812.42	631.384
2811.77	638.938
2811.11	608.235
2810.46	608.14
2809.81	600.397
2809.15	596.48
2808.5	588.741
2807.84	642.163
2807.19	596.201
2806.54	561.717
2805.88	580.733
2805.23	569.182
2804.57	565.274
2803.92	595.736
2803.26	576.552
2802.61	530.651
2801.95	587.824
2801.3	511.403
2800.64	526.587
2799.99	583.733
2799.33	541.681
2798.68	537.782
2798.02	564.393
2797.37	610.059
2796.71	495.596
2796.05	594.622
2795.4	499.252
2794.74	525.848
2794.09	480.047
2793.43	548.539
2792.77	544.645
2792.12	536.944
2791.46	506.4
2790.8	517.742
2790.15	544.305
2789.49	521.386
2788.83	502.279
2788.18	551.659
2787.52	509.73
2786.86	524.864
2786.2	570.415
2785.55	509.491
2784.89	498.007
2784.23	501.73
2783.57	566.258
2782.91	524.372
2782.26	501.495
2781.6	486.222
2780.94	520.328
2780.28	516.449
2779.62	516.369
2778.97	470.733
2778.31	493.434
2777.65	500.947
2776.99	512.252
2776.33	523.553
2775.67	531.058
2775.01	527.182
2774.35	523.308
2773.69	515.643
2773.03	564.844
2772.37	549.595
2771.71	522.981
2771.05	485.008
2770.39	503.874
2769.73	518.947
2769.07	518.866
2768.41	511.212
2767.75	556.566
2767.09	499.695
2766.43	563.961
2765.77	563.873
2765.11	529.731
2764.45	518.298
2763.79	548.478
2763.13	525.7
2762.47	529.4
2761.81	597.372
2761.15	555.696
2760.48	544.27
2759.82	495.057
2759.16	562.992
2758.5	574.237
2757.84	574.147
2757.18	558.951
2756.51	521.102
2755.85	536.123
2755.19	581.338
2754.53	558.601
2753.86	584.929
2753.2	558.426
2752.54	596.064
2751.88	554.479
2751.21	573.249
2750.55	599.555
2749.89	524.057
2749.22	550.362
2748.56	531.431
2747.9	520.042
2747.23	576.478
2746.57	572.621
2745.91	580.064
2745.24	523.483
2744.58	610.007
2743.91	523.319
2743.25	598.522
2742.59	587.138
2741.92	605.861
2741.26	650.916
2740.59	680.91
2739.93	695.849
2739.26	665.653
2738.6	639.228
2737.93	631.609
2737.27	669.099
2736.6	732.887
2735.94	646.343
2735.27	766.473
2734.61	664.923
2733.94	706.136
2733.28	728.557
2732.61	765.992
2731.94	814.677
2731.28	803.288
2730.61	851.953
2729.95	851.819
2729.28	836.678
2728.61	862.806
2727.95	900.178
2727.28	873.786
2726.61	971.137
2725.95	1015.97
2725.28	940.845
2724.61	1011.91
2723.94	1112.92
2723.28	1049.05
2722.61	1112.57
2721.94	1071.2
2721.28	1067.28
2720.61	1059.63
2719.94	1111.87
2719.27	1134.16
2718.6	1130.24
2717.94	1122.58
2717.27	1073.76
2716.6	1140.93
2715.93	1073.43
2715.26	994.726
2714.59	1035.7
2713.92	1065.44
2713.26	1054.06
2712.59	1080.06
2711.92	1053.73
2711.25	1038.62
2710.58	997.368
2709.91	1034.56
2709.24	911.166
2708.57	929.692
2707.9	933.279
2707.23	914.469
2706.56	888.202
2705.89	895.525
2705.22	902.846
2704.55	872.863
2703.88	850.348
2703.21	861.401
2702.54	857.537
2701.87	823.852
2701.2	823.722
2700.53	868.313
2699.86	890.533
2699.19	808.432
2698.51	804.58
2697.84	752.313
2697.17	811.774
2696.5	833.986
2695.83	737.068
2695.16	729.508
2694.49	744.279
2693.81	766.486
2693.14	762.646
2692.47	680.694
2691.8	795.877
2691.13	676.761
2690.45	736.141
2689.78	754.611
2689.11	665.291
2688.43	628.025
2687.76	639.073
2687.09	720.702
2686.42	668.587
2685.74	705.62
2685.07	720.361
2684.4	627.433
2683.72	694.15
2683.05	686.618
2682.38	645.691
2681.7	734.636
2681.03	704.842
2680.35	686.186
2679.68	678.661
2679.01	685.97
2678.33	711.813
2677.66	707.994
2676.98	626.347
2676.31	663.304
2675.63	692.84
2674.96	677.913
2674.28	703.733
2673.61	673.996
2672.93	659.079
2672.26	625.656
2671.58	762.514
2670.91	647.665
2670.23	677.165
2669.55	691.858
2668.88	710.245
2668.2	639.859
2667.53	647.154
2666.85	654.447
2666.17	698.706
2665.5	717.078
2664.82	657.833
2664.15	705.766
2663.47	676.099
2662.79	568.868
2662.11	705.432
2661.44	657.315
2660.76	657.211
2660.08	701.407
2659.41	675.459
2658.73	667.972
2658.05	678.936
2657.37	638.247
2656.7	678.722
2656.02	641.733
2655.34	619.507
2654.66	693.148
2653.98	729.903
2653.31	685.558
2652.63	681.764
2651.95	648.495
2651.27	696.285
2650.59	714.593
2649.91	732.894
2649.23	721.732
2648.55	673.756
2647.88	706.779
2647.2	743.473
2646.52	647.677
2645.84	643.895
2645.16	698.975
2644.48	662.083
2643.8	654.623
2643.12	705.999
2642.44	672.799
2641.76	657.989
2641.08	709.339
2640.4	698.203
2639.72	720.138
2639.04	653.899
2638.36	756.64
2637.68	708.779
2636.99	708.667
2636.31	671.842
2635.63	675.407
2634.95	642.269
2634.27	656.846
2633.59	689.763
2632.91	638.296
2632.23	630.86
2631.54	707.772
2630.86	700.326
2630.18	667.221
2629.5	630.461
2628.82	681.67
2628.13	608.276
2627.45	655.808
2626.77	615.41
2626.09	644.613
2625.4	688.455
2624.72	710.315
2624.04	666.272
2623.36	633.224
2622.67	655.082
2621.99	654.979
2621.31	662.192
2620.62	702.325
2619.94	680.269
2619.25	680.162
2618.57	683.71
2617.89	727.47
2617.2	694.459
2616.52	657.804
2615.83	675.97
2615.15	657.596
2614.47	726.894
2613.78	686.605
2613.1	715.709
2612.41	726.549
2611.73	700.881
2611.04	700.77
2610.36	697.01
2609.67	707.845
2608.99	707.733
2608.3	696.679
2607.62	758.566
2606.93	758.446
2606.24	681.764
2605.56	710.818
2604.87	619.589
2604.19	681.44
2603.5	717.767
2602.81	655.724
2602.13	775.817
2601.44	742.918
2600.75	666.336
2600.07	720.839
2599.38	709.805
2598.69	724.25
2598.01	727.774
2597.32	774.957
2596.63	727.544
2595.95	723.791
2595.26	636.399
2594.57	698.11
2593.88	668.916
2593.2	705.158
2592.51	774.097
2591.82	741.271
2591.13	697.556
2590.44	733.771
2589.75	715.495
2589.07	697.225
2588.38	718.899
2587.69	736.936
2587	754.967
2586.31	711.299
2585.62	743.842
2584.93	794.515
2584.24	743.606
2583.55	787.009
2582.87	725.239
2582.18	717.873
2581.49	706.884
2580.8	674.151
2580.11	703.035
2579.42	710.17
2578.73	695.567
2578.04	684.59
2577.35	742.427
2576.66	669.888
2575.96	687.884
2575.27	680.535
2574.58	626.138
2573.89	716.506
2573.2	730.865
2572.51	672.868
2571.82	665.527
2571.13	701.585
2570.44	679.779
2569.75	701.363
2569.05	657.875
2568.36	654.156
2567.67	693.801
2566.98	693.691
2566.29	693.581
2565.59	689.859
2564.9	707.805
2564.21	711.304
2563.52	664.259
2562.82	674.982
2562.13	664.048
2561.44	667.551
2560.75	667.445
2560.05	692.589
2559.36	688.872
2558.67	685.157
2557.97	641.782
2557.28	663.309
2556.59	706.456
2555.89	666.702
2555.2	677.406
2554.5	644.874
2553.81	706.007
2553.12	666.278
2552.42	633.764
2551.73	684.068
2551.03	698.358
2550.34	637.06
2549.64	708.932
2548.95	662.044
2548.25	654.744
2547.56	665.43
2546.86	676.113
2546.17	668.814
2545.47	618.375
2544.78	715.332
2544.08	646.931
2543.39	646.828
2542.69	671.875
2541.99	643.029
2541.3	624.968
2540.6	725.422
2539.91	567.319
2539.21	707.241
2538.51	703.539
2537.82	667.538
2537.12	667.431
2536.42	688.851
2535.73	724.614
2535.03	695.805
2534.33	667.006
2533.63	666.9
2532.94	699.058
2532.24	638.013
2531.54	645.078
2530.84	691.557
2530.15	702.195
2529.45	694.919
2528.75	744.949
2528.05	730.506
2527.35	658.783
2526.66	658.678
2525.96	694.365
2525.26	733.619
2524.56	715.612
2523.86	694.033
2523.16	711.807
2522.46	704.541
2521.76	665.095
2521.07	729.343
2520.37	636.286
2519.67	643.332
2518.97	682.538
2518.27	721.731
2517.57	714.472
2516.87	746.504
2516.17	696.388
2515.47	710.559
2514.77	699.735
2514.07	667.498
2513.37	667.392
2512.67	706.537
2511.96	699.289
2511.26	663.505
2510.56	663.399
2509.86	706.086
2509.16	681.015
2508.46	648.822
2507.76	680.797
2507.06	762.657
2506.35	705.523
2505.65	691.159
2504.95	712.422
2504.25	722.993
2503.55	665.902
2502.85	683.597
2502.14	779.604
2501.44	722.531
2500.74	644.124
2500.04	700.951
2499.33	761.318
2498.63	746.968
2497.93	725.51
2497.22	778.732
2496.52	743.055
2495.82	725.162
2495.11	721.492
2494.41	653.859
2493.71	778.11
2493	724.699
2492.3	728.135
2491.6	713.813
2490.89	653.337
2490.19	759.737
2489.48	756.066
2488.78	706.259
2488.07	709.694
2487.37	745.06
2486.66	734.299
2485.96	737.728
2485.25	790.803
2484.55	762.312
2483.84	772.825
2483.14	758.523
2482.43	726.507
2481.73	793.714
2481.02	743.988
2480.32	743.869
2479.61	729.583
2478.9	733.008
2478.2	715.188
2477.49	693.834
2476.79	743.274
2476.08	760.849
2475.37	817.34
2474.67	749.993
2473.96	746.335
2473.25	802.801
2472.55	763.777
2471.84	820.221
2471.13	678.695
2470.42	770.478
2469.72	784.49
2469.01	770.232
2468.3	777.173
2467.59	741.729
2466.89	755.736
2466.18	727.367
2465.47	769.615
2464.76	783.611
2464.05	804.66
2463.34	769.245
2462.64	737.369
2461.93	737.251
2461.22	747.714
2460.51	729.962
2459.8	775.681
2459.09	754.405
2458.38	757.809
2457.67	718.922
2456.96	732.901
2456.25	760.967
2455.54	760.845
2454.83	718.461
2454.12	721.867
2453.41	742.876
2452.7	728.676
2451.99	770.794
2451.28	767.152
2450.57	770.547
2449.86	752.834
2449.15	784.369
2448.44	752.592
2447.73	734.891
2447.02	759.382
2446.31	804.957
2445.59	790.769
2444.88	846.866
2444.17	808.083
2443.46	850.107
2442.75	842.946
2442.04	811.205
2441.32	828.631
2440.61	842.54
2439.9	814.325
2439.19	793.137
2438.48	785.992
2437.76	810.424
2437.05	792.755
2436.34	831.207
2435.62	806.527
2434.91	781.855
2434.2	837.818
2433.48	841.189
2432.77	827.036
2432.06	844.422
2431.34	889.829
2430.63	886.183
2429.92	833.509
2429.2	773.848
2428.49	854.247
2427.77	843.609
2427.06	864.472
2426.35	825.841
2425.63	857.197
2424.92	850.063
2424.2	863.917
2423.49	884.76
2422.77	888.115
2422.06	922.931
2421.34	817.921
2420.63	866.718
2419.91	880.555
2419.2	831.502
2418.48	922.19
2417.76	855.683
2417.05	841.577
2416.33	844.933
2415.62	865.742
2414.9	848.152
2414.18	914.321
2413.47	792.051
2412.75	900.072
2412.03	861.558
2411.32	892.807
2410.6	826.411
2409.88	836.738
2409.16	923.749
2408.45	874.807
2407.73	825.88
2407.01	843.168
2406.3	863.933
2405.58	895.142
2404.86	860.173
2404.14	828.697
2403.42	821.601
2402.71	852.796
2401.99	821.337
2401.27	807.286
2400.55	866.301
2399.83	876.597
2399.11	852.11
2398.39	862.405
2397.67	890.081
2396.96	903.843
2396.24	959.309
2395.52	865.324
2394.8	868.66
2394.08	830.305
2393.36	868.38
2392.64	833.51
2391.92	843.793
2391.2	878.376
2390.48	892.119
2389.76	964.861
2389.04	902.242
2388.32	909.036
2387.6	905.42
2386.87	898.338
2386.15	866.981
2385.43	814.831
2384.71	856.301
2383.99	870.028
2383.27	842.163
2382.55	925.19
2381.83	845.356
2381.1	869.467
2380.38	910.889
2379.66	851.872
2378.94	827.499
2378.22	931.219
2377.49	872.228
2376.77	854.784
2376.05	854.646
2375.33	934.077
2374.6	920.091
2373.88	885.358
2373.16	923.252
2372.43	850.499
2371.71	867.646
2370.99	933.173
2370.26	946.845
2369.54	953.603
2368.82	943.085
2368.09	863.492
2367.37	828.818
2366.65	925.364
2365.92	894.144
2365.2	890.548
2364.47	931.818
2363.75	876.458
2363.02	876.316
2362.3	893.422
2361.57	920.87
2360.85	958.653
2360.12	924.02
2359.4	868.714
2358.67	896.148
2357.95	913.234
2357.22	944.097
2356.5	823.367
2355.77	850.79
2355.05	878.204
2354.32	922.826
2353.59	902.02
2352.87	956.951
2352.14	936.146
2351.41	953.2
2350.69	980.571
2349.96	921.932
2349.23	904.585
2348.51	969.779
2347.78	983.375
2347.05	972.903
2346.33	931.498
2345.6	941.658
2344.87	938.069
2344.14	982.581
2343.41	927.461
2342.69	954.787
2341.96	982.104
2341.23	954.478
2340.5	878.801
2339.77	933.576
2339.05	933.424
2338.32	936.705
2337.59	1001.73
2336.86	926.111
2336.13	919.102
2335.4	987.532
2334.67	949.66
2333.94	942.651
2333.21	928.789
2332.48	908.079
2331.75	983.307
2331.02	972.871
2330.29	941.888
2329.56	962.283
2328.83	996.366
2328.1	941.431
2327.37	1033.69
2326.64	968.504
2325.91	1009.41
2325.18	957.927
2324.45	940.669
2323.72	923.416
2322.99	998.495
2322.26	936.792
2321.53	987.917
2320.79	977.503
2320.06	943.172
2319.33	977.186
2318.6	932.617
2317.87	956.376
2317.14	1010.86
2316.4	938.993
2315.67	993.464
2314.94	1061.57
2314.21	979.491
2313.47	1013.46
2312.74	985.997
2312.01	1033.59
2311.27	989.088
2310.54	913.905
2309.81	978.538
2309.08	974.971
2308.34	978.221
2307.61	1022.36
2306.87	1035.83
2306.14	1032.25
2305.41	1032.09
2304.67	1052.35
2303.94	1007.92
2303.2	1052.01
2302.47	1041.63
2301.74	1000.62
2301	976.635
2300.27	996.891
2299.53	976.318
2298.8	1023.78
2298.06	1074.62
2297.33	999.644
2296.59	1040.28
2295.85	1057.1
2295.12	1033.14
2294.38	1060.16
2293.65	1005.63
2292.91	1015.65
2292.18	1046.06
2291.44	1022.12
2290.7	1045.72
2289.97	1110.04
2289.23	991.071
2288.49	1024.85
2287.76	997.535
2287.02	1044.87
2286.28	1122.71
2285.54	1112.35
2284.81	1115.56
2284.07	1044.19
2283.33	1081.3
2282.59	1060.79
2281.86	1006.4
2281.12	1104.49
2280.38	1073.83
2279.64	1077.04
2278.9	1127.66
2278.17	1097
2277.43	1056.2
2276.69	1032.34
2275.95	1123.54
2275.21	1109.83
2274.47	1106.26
2273.73	1075.64
2272.99	1072.08
2272.26	1058.38
2271.52	1048.07
2270.78	1156.07
2270.04	1034.21
2269.3	1128.66
2268.56	1128.47
2267.82	1081
2267.08	1104.46
2266.34	1063.76
2265.6	1073.72
2264.86	1130.93
2264.11	1107.12
2263.37	1137.31
2262.63	1140.5
2261.89	1066.09
2261.15	1049.06
2260.41	1052.26
2259.67	1102.67
2258.93	1051.91
2258.18	1055.11
2257.44	1122.35
2256.7	1155.87
2255.96	1108.51
2255.22	1084.75
2254.47	1054.26
2253.73	1054.08
2252.99	1101.05
2252.25	1181.67
2251.5	1077.13
2250.76	1076.95
2250.02	1150.81
2249.28	1164.08
2248.53	1076.43
2247.79	1190.61
2247.05	1139.97
2246.3	1180.13
2245.56	1119.43
2244.81	1173.02
2244.07	1139.23
2243.33	1186.08
2242.58	1128.78
2241.84	1185.69
2241.09	1135.13
2240.35	1192.02
2239.6	1148.18
2238.86	1168.14
2238.12	1117.6
2237.37	1134.2
2236.63	1177.63
2235.88	1167.38
2235.13	1204.08
2234.39	1130.11
2233.64	1176.86
2232.9	1153.2
2232.15	1136.26
2231.41	1172.94
2230.66	1189.5
2229.91	1169.2
2229.17	1175.71
2228.42	1192.26
2227.67	1188.72
2226.93	1228.7
2226.18	1131.43
2225.43	1154.67
2224.69	1141.1
2223.94	1227.9
2223.19	1224.35
2222.44	1207.43
2221.7	1170.45
2220.95	1273.91
2220.2	1160.04
2219.45	1203.3
2218.71	1216.47
2217.96	1189.54
2217.21	1169.3
2216.46	1189.15
2215.71	1155.56
2214.96	1111.96
2214.21	1171.88
2213.47	1268.49
2212.72	1174.83
2211.97	1248.05
2211.22	1144.42
2210.47	1247.65
2209.72	1247.44
2208.97	1173.87
2208.22	1170.35
2207.47	1160.15
2206.72	1196.63
2205.97	1196.43
2205.22	1202.9
2204.47	1229.36
2203.72	1212.5
2202.97	1152.35
2202.22	1215.43
2201.47	1231.88
2200.71	1221.69
2199.96	1138.29
2199.21	1254.57
2198.46	1184.5
2197.71	1257.49
2196.96	1214.04
2196.21	1200.54
2195.45	1163.77
2194.7	1339.78
2193.95	1236.52
2193.2	1189.79
2192.45	1295.92
2191.69	1282.42
2190.94	1255.64
2190.19	1255.43
2189.44	1258.55
2188.68	1215.18
2187.93	1354.4
2187.18	1231.38
2186.42	1337.37
2185.67	1214.38
2184.92	1336.93
2184.16	1313.49
2183.41	1399.5
2182.65	1323.01
2181.9	1375.84
2181.15	1382.24
2180.39	1368.76
2179.64	1361.91
2178.88	1365
2178.13	1391.27
2177.37	1311.56
2176.62	1357.7
2175.86	1377.35
2175.11	1264.57
2174.35	1330.56
2173.6	1184.73
2172.84	1277.18
2172.09	1283.59
2171.33	1230.45
2170.57	1260.02
2169.82	1375.54
2169.06	1216.62
2168.31	1209.81
2167.55	1282.32
2166.79	1268.9
2166.04	1252.17
2165.28	1291.6
2164.52	1238.55
2163.76	1228.44
2163.01	1287.67
2162.25	1277.55
2161.49	1287.24
2160.74	1273.83
2159.98	1336.31
2159.22	1266.82
2158.46	1279.8
2157.7	1289.49
2156.95	1246.41
2156.19	1200.05
2155.43	1246
2154.67	1275.46
2153.91	1347.74
2153.15	1271.74
2152.39	1271.53
2151.63	1353.66
2150.88	1284.29
2150.12	1353.22
2149.36	1310.2
2148.6	1260.62
2147.84	1290.03
2147.08	1279.94
2146.32	1256.71
2145.56	1355.18
2144.8	1269.45
2144.04	1292.26
2143.28	1298.62
2142.52	1314.84
2141.76	1268.61
2140.99	1281.55
2140.23	1435.76
2139.47	1369.82
2138.71	1208.66
2137.95	1343.1
2137.19	1293.63
2136.43	1421.44
2135.67	1352.28
2134.9	1237.2
2134.14	1374.81
2133.38	1328.65
2132.62	1282.51
2131.86	1272.46
2131.09	1324.72
2130.33	1396.63
2129.57	1265.28
2128.81	1307.68
2128.04	1346.78
2127.28	1281.04
2126.52	1257.9
2125.75	1290.44
2124.99	1375.37
2124.23	1355.5
2123.46	1391.29
2122.7	1361.6
2121.93	1256.65
2121.17	1367.69
2120.41	1383.83
2119.64	1380.33
2118.88	1360.48
2118.11	1487.78
2117.35	1379.65
2116.58	1346.73
2115.82	1349.78
2115.05	1336.49
2114.29	1385.27
2113.52	1339.31
2112.76	1401.15
2111.99	1296.42
2111.23	1364.77
2110.46	1380.87
2109.69	1416.54
2108.93	1377.15
2108.16	1376.92
2107.4	1419.1
2106.63	1396.04
2105.86	1350.15
2105.1	1362.97
2104.33	1414.91
2103.56	1463.57
2102.79	1437.26
2102.03	1391.4
2101.26	1309.72
2100.49	1469.12
2099.73	1452.59
2098.96	1397
2098.19	1409.79
2097.42	1409.56
2096.65	1393.05
2095.89	1376.55
2095.12	1425.13
2094.35	1366.33
2093.58	1395.38
2092.81	1476.46
2092.04	1394.92
2091.27	1345.93
2090.5	1404.21
2089.74	1452.73
2088.97	1351.76
2088.2	1426.26
2087.43	1325.33
2086.66	1455.02
2085.89	1471.02
2085.12	1467.53
2084.35	1350.42
2083.58	1353.44
2082.81	1359.71
2082.04	1333.53
2081.27	1433.88
2080.49	1381.74
2079.72	1384.76
2078.95	1449.38
2078.18	1368.09
2077.41	1390.55
2076.64	1419.49
2075.87	1464.62
2075.1	1357.47
2074.32	1457.66
2073.55	1389.41
2072.78	1460.42
2072.01	1418.09
2071.24	1466.41
2070.46	1407.91
2069.69	1443.27
2068.92	1465.68
2068.14	1536.61
2067.37	1455.49
2066.6	1377.64
2065.83	1448.54
2065.05	1393.35
2064.28	1399.58
2063.51	1402.58
2062.73	1399.12
2061.96	1460.27
2061.18	1489.1
2060.41	1417.8
2059.64	1407.88
2058.86	1491.59
2058.09	1459.06
2057.31	1471.73
2056.54	1484.4
2055.76	1474.47
2054.99	1422.61
2054.21	1425.6
2053.44	1431.82
2052.66	1489.62
2051.89	1405.55
2051.11	1411.77
2050.33	1376.08
2049.56	1411.3
2048.78	1523.82
2048.01	1468.81
2047.23	1378.39
2046.45	1542.38
2045.68	1474.52
2044.9	1458.18
2044.12	1509.43
2043.35	1448.04
2042.57	1454.24
2041.79	1473.3
2041.02	1482.7
2040.24	1476.03
2039.46	1405.05
2038.68	1459.47
2037.91	1478.51
2037.13	1513.61
2036.35	1433.03
2035.57	1487.41
2034.79	1496.8
2034.01	1429.11
2033.24	1509.15
2032.46	1476.79
2031.68	1486.18
2030.9	1498.77
2030.12	1501.73
2029.34	1498.27
2028.56	1584.63
2027.78	1488.15
2027	1513.56
2026.22	1506.9
2025.44	1577.17
2024.66	1583.32
2023.88	1544.6
2023.1	1480.27
2022.32	1569.72
2021.54	1553.44
2020.76	1559.59
2019.98	1591.35
2019.2	1507.85
2018.42	1478.79
2017.64	1523.35
2016.86	1548.7
2016.07	1471.66
2015.29	1554.58
2014.51	1506.35
2013.73	1592.44
2012.95	1451.5
2012.16	1492.81
2011.38	1530.92
2010.6	1469.95
2009.82	1533.6
2009.04	1482.24
2008.25	1632.11
2007.47	1612.68
2006.69	1596.44
2005.9	1516.37
2005.12	1538.46
2004.34	1525.44
2003.55	1534.76
2002.77	1540.88
2001.99	1543.82
2001.2	1518.05
2000.42	1520.98
1999.63	1543.05
1998.85	1526.85
1998.07	1631.77
1997.28	1666.55
1996.5	1545.21
1995.71	1535.4
1994.93	1649.8
1994.14	1585.84
1993.36	1614.23
1992.57	1575.76
1991.79	1578.68
1991	1584.78
1990.21	1613.15
1989.43	1552.44
1988.64	1631.7
1987.86	1558.29
1987.07	1542.13
1986.28	1573.66
1985.5	1643.33
1984.71	1557.25
1983.92	1607.83
1983.14	1588.5
1982.35	1642.24
1981.56	1661.02
1980.77	1555.95
1979.99	1625.54
1979.2	1609.4
1978.41	1650.39
1977.62	1653.29
1976.84	1583.21
1976.05	1614.67
1975.26	1557.31
1974.47	1617.31
1973.68	1651.91
1972.89	1632.62
1972.11	1648.19
1971.32	1654.26
1970.53	1695.17
1969.74	1653.71
1968.95	1691.44
1968.16	1659.49
1967.37	1656.05
1966.58	1608.28
1965.79	1715.64
1965	1639.39
1964.21	1642.29
1963.42	1642.01
1962.63	1648.06
1961.84	1673.09
1961.05	1625.38
1960.26	1634.59
1959.47	1653.29
1958.68	1735.19
1957.89	1621.14
1957.09	1636.66
1956.3	1636.39
1955.51	1648.75
1954.72	1597.95
1953.93	1701.88
1953.14	1771.05
1952.34	1732.88
1951.55	1707.34
1950.76	1732.3
1949.97	1773.02
1949.18	1684.4
1948.38	1677.82
1947.59	1633.39
1946.8	1812.82
1946	1610.78
1945.21	1660.94
1944.42	1685.87
1943.62	1707.64
1942.83	1656.96
1942.04	1697.62
1941.24	1741.43
1940.45	1722.25
1939.65	1699.92
1938.86	1674.46
1938.07	1623.83
1937.27	1736.83
1936.48	1695.64
1935.68	1736.25
1934.89	1666.77
1934.09	1738.81
1933.3	1713.37
1932.5	1757.09
1931.71	1785.08
1930.91	1684.23
1930.11	1734.22
1929.32	1664.82
1928.52	1683.39
1927.73	1695.67
1926.93	1698.52
1926.13	1701.38
1925.34	1814.08
1924.54	1694.53
1923.74	1728.76
1922.95	1734.75
1922.15	1687.41
1921.35	1709.08
1920.55	1780.91
1919.76	1739.86
1918.96	1745.84
1918.16	1742.41
1917.36	1817.32
1916.57	1779.42
1915.77	1722.74
1914.97	1728.72
1914.17	1825.5
1913.37	1759.45
1912.57	1774.8
1911.77	1780.76
1910.98	1764.82
1910.18	1880.28
1909.38	1876.84
1908.58	1760.81
1907.78	1838.69
1906.98	1757.09
1906.18	1725.54
1905.38	1778.38
1904.58	1824.96
1903.78	1784.03
1902.98	1749.37
1902.18	1836.53
1901.38	1826.86
1900.58	1848.41
1899.78	1854.34
1898.98	1860.27
1898.17	1828.75
1897.37	1897.09
1896.57	1825.02
1895.77	1877.74
1894.97	1811.94
1894.17	1886.47
1893.37	1739.62
1892.56	1798.56
1891.76	1826.3
1890.96	1832.23
1890.16	1841.27
1889.35	1781.78
1888.55	1899.83
1887.75	1859.03
1886.95	1833.81
1886.14	1802.37
1885.34	1792.73
1884.54	1876.45
1883.73	1795.24
1882.93	1779.39
1882.12	1788.42
1881.32	1865.86
1880.52	1784.71
1879.71	1837.26
1878.91	1914.66
1878.1	1845.97
1877.3	1873.62
1876.49	1944.76
1875.69	1932.01
1874.88	1779.51
1874.08	1822.68
1873.27	1791.33
1872.47	1859.32
1871.66	1880.73
1870.86	1812.15
1870.05	1842.87
1869.25	1910.8
1868.44	1916.69
1867.63	1876.05
1866.83	1943.95
1866.02	1903.32
1865.21	1872.01
1864.41	1877.89
1863.6	1908.56
1862.79	1818.4
1861.99	1880.04
1861.18	1873.53
1860.37	1842.26
1859.56	1900.77
1858.76	1863.3
1857.95	1937.26
1857.14	1902.9
1856.33	1948.99
1855.52	1920.82
1854.72	1911.22
1853.91	1839.78
1853.1	1947.68
1852.29	2018.44
1851.48	1962.47
1850.67	1881.8
1849.86	1934.01
1849.05	1927.51
1848.24	1958.07
1847.43	1963.91
1846.62	1895.66
1845.81	1867.56
1845	2030.82
1844.19	2005.79
1843.38	1986.94
1842.57	2032.88
1841.76	1896.83
1840.95	1899.59
1840.14	1939.36
1839.33	1954.44
1838.52	1988.02
1837.71	2036.99
1836.9	1984.27
1836.09	1940.81
1835.27	1983.6
1834.46	2001.75
1833.65	1942.91
1832.84	2025.7
1832.03	2046.91
1831.21	1941.92
1830.4	1904.67
1829.59	1993.57
1828.78	1999.39
1827.96	2032.88
1827.15	1912.61
1826.34	1943.04
1825.52	1994.97
1824.71	2043.8
1823.9	2089.55
1823.08	1972.45
1822.27	1947.54
1821.45	2073.14
1820.64	2014.45
1819.83	1998.75
1819.01	2016.84
1818.2	1995.01
1817.38	2046.84
1816.57	2064.91
1815.75	2000.14
1814.94	2002.87
1814.12	1987.2
1813.31	1956.2
1812.49	2001.85
1811.68	2065.88
1810.86	1988.92
1810.04	1902.79
1809.23	2113.86
1808.41	2046.11
1807.6	2027.39
1806.78	2063.79
1805.96	2032.83
1805.15	2038.61
1804.33	1912.79
1803.51	2007.32
1802.69	2028.4
1801.88	2132.06
1801.06	2003.25
1800.24	2097.7
1799.42	2048.43
1798.61	2026.69
1797.79	2014.12
1796.97	2053.51
1796.15	2001.22
1795.33	2065.03
1794.52	2037.2
1793.7	2055.17
1792.88	2085.36
1792.06	1984.27
1791.24	2121.28
1790.42	2069.04
1789.6	2111.41
1788.78	2056.14
1787.96	2013.09
1787.14	1948.71
1786.32	2082.54
1785.5	2149.26
1784.68	2087.93
1783.86	2118.06
1783.04	2044.57
1782.22	2144.76
1781.4	2144.4
1780.58	2055.72
1779.76	2107.13
1778.94	2131.13
1778.12	2142.95
1777.29	2173.02
1776.47	2233.51
1775.65	2041.46
1774.83	2153.67
1774.01	2113.76
1773.19	2064.75
1772.36	2100.89
1771.54	2149.17
1770.72	2127.53
1769.9	2102.86
1769.07	2145.04
1768.25	2032.28
1767.43	2195.95
1766.6	2116.62
1765.78	2204.31
1764.96	2155.37
1764.13	2121.62
1763.31	2109.12
1762.49	2096.62
1761.66	2108.4
1760.84	2196.01
1760.01	2195.64
1759.19	2158.88
1758.36	2146.39
1757.54	2161.18
1756.71	2115.35
1755.89	2151.36
1755.06	2157.05
1754.24	1987.06
1753.41	2225.98
1752.59	2204.4
1751.76	2179.81
1750.94	2236.95
1750.11	2224.47
1749.28	2181.73
1748.46	2126.9
1747.63	2187.04
1746.8	2183.64
1745.98	2156.06
1745.15	2207.09
1744.32	2233.92
1743.5	2191.23
1742.67	2142.51
1741.84	2205.59
1741.01	2235.43
1740.19	2210.89
1739.36	2110.86
1738.53	2140.69
1737.7	2173.54
1736.87	2146
1736.05	2218.07
1735.22	2202.6
1734.39	2220.33
1733.56	2126.45
1732.73	2237.67
1731.9	2333.78
1731.07	2161.54
1730.24	2236.53
1729.41	2242.18
1728.58	2196.6
1727.75	2217.32
1726.92	2316.34
1726.09	2186.45
1725.26	2216.19
1724.43	2194.74
1723.6	2239.52
1722.77	2272.24
1721.94	2271.85
1721.11	2175.19
1720.28	2241
1719.45	2213.55
1718.62	2333.46
1717.78	2275.94
1716.95	2272.55
1716.12	2245.11
1715.29	2325.86
1714.46	2280.4
1713.62	2328.08
1712.79	2276.62
1711.96	2240.2
1711.13	2281.85
1710.29	2278.46
1709.46	2233.06
1708.63	2268.69
1707.79	2277.3
1706.96	2303.91
1706.13	2387.5
1705.29	2285.14
1704.46	2218.78
1703.63	2254.38
1702.79	2233.02
1701.96	2163.71
1701.12	2229.26
1700.29	2378.67
1699.45	2276.43
1698.62	2300
1697.78	2296.61
1696.95	2308.2
1696.11	2355.7
1695.28	2307.41
1694.44	2298.04
1693.61	2315.6
1692.77	2309.22
1691.94	2317.8
1691.1	2296.48
1690.26	2293.1
1689.43	2337.54
1688.59	2364.04
1687.75	2327.78
1686.92	2246.72
1686.08	2297.12
1685.24	2395.29
1684.41	2320.23
1683.57	2343.72
1682.73	2295.55
1681.89	2381.72
1681.06	2482.77
1680.22	2303.33
1679.38	2449.11
1678.54	2421.85
1677.7	2409.51
1676.87	2340.52
1676.03	2417.63
1675.19	2321.84
1674.35	2431.71
1673.51	2389.58
1672.67	2305.76
1671.83	2415.57
1670.99	2433.03
1670.15	2390.93
1669.31	2360.75
1668.47	2345.46
1667.63	2473.03
1666.79	2317.89
1665.95	2376.99
1665.11	2323.04
1664.27	2435.66
1663.43	2429.29
1662.59	2399.15
1661.75	2452.25
1660.91	2324.03
1660.07	2421.69
1659.22	2468.82
1658.38	2447.6
1657.54	2476.88
1656.7	2428.95
1655.86	2443.38
1655.01	2434.06
1654.17	2564.23
1653.33	2522.25
1652.49	2412.04
1651.64	2485.79
1650.8	2494.26
1649.96	2446.39
1649.12	2437.08
1648.27	2484.09
1647.43	2525.16
1646.58	2483.24
1645.74	2453.19
1644.9	2506.09
1644.05	2556.01
1643.21	2457.86
1642.36	2602.51
1641.52	2554.7
1640.67	2601.62
1639.83	2613.02
1638.99	2636.24
1638.14	2644.66
1637.29	2543.65
1636.45	2552.09
1635.6	2436.34
1634.76	2450.7
1633.91	2476.88
1633.07	2624.22
1632.22	2564.68
1631.37	2543.56
1630.53	2507.68
1629.68	2530.88
1628.83	2598.36
1627.99	2592.01
1627.14	2594.51
1626.29	2608.83
1625.45	2634.94
1624.6	2596.13
1623.75	2542.6
1622.9	2542.16
1622.06	2577.11
1621.21	2688.7
1620.36	2576.23
1619.51	2540.42
1618.66	2566.5
1617.81	2536.6
1616.97	2633.38
1616.12	2627.03
1615.27	2591.25
1614.42	2640.85
1613.57	2616.85
1612.72	2522.23
1611.87	2648.33
1611.02	2715.54
1610.17	2741.55
1609.32	2641.08
1608.47	2558.29
1607.62	2596.08
1606.77	2636.79
1605.92	2677.48
1605.07	2635.88
1604.22	2694.19
1603.37	2558.6
1602.52	2725.58
1601.66	2587.09
1600.81	2712.9
1599.96	2765.27
1599.11	2717.84
1598.26	2734.98
1597.4	2681.7
1596.55	2596.16
1595.7	2666.11
1594.85	2741.9
1594	2624.15
1593.14	2676.47
1592.29	2705.32
1591.44	2687.27
1590.58	2660.44
1589.73	2630.69
1588.88	2680.03
1588.02	2641.5
1587.17	2708.39
1586.31	2652.3
1585.46	2707.46
1584.61	2630.91
1583.75	2782.6
1582.9	2700.21
1582.04	2737.77
1581.19	2719.76
1580.33	2751.45
1579.48	2786.06
1578.62	2844.04
1577.77	2776.34
1576.91	2878.13
1576.06	2749.09
1575.2	2815.8
1574.34	2783.19
1573.49	2759.36
1572.63	2779.32
1571.77	2749.65
1570.92	2792.96
1570.06	2824.57
1569.2	2765.74
1568.35	2800.27
1567.49	2896.03
1566.63	2767.23
1565.78	2790.08
1564.92	2754.62
1564.06	2876.55
1563.2	2791.55
1562.34	2726.98
1561.49	2851.76
1560.63	2903.7
1559.77	2882.81
1558.91	2931.81
1558.05	2937.13
1557.19	2872.6
1556.33	2933.21
1555.47	2906.52
1554.61	2868.2
1553.75	3016.04
1552.89	2954.45
1552.03	3006.28
1551.17	3110.41
1550.31	2987.81
1549.45	2929.17
1548.59	3036.17
1547.73	3128.61
1546.87	3020.6
1546.01	2982.33
1545.15	3193.77
1544.29	3283.21
1543.43	3395.84
1542.57	3479.41
1541.71	3623.88
1540.84	3910.45
1539.98	3851.77
1539.12	4091.8
1538.26	4433.23
1537.39	4313.61
1536.53	4472.28
1535.67	4404.85
1534.81	4392.5
1533.94	4510.52
1533.08	4761.73
1532.22	4827.52
1531.35	5205.99
1530.49	5462.74
1529.63	5728.09
1528.76	5735.78
1527.9	5607.48
1527.03	5386.65
1526.17	5151.44
1525.31	4658.92
1524.44	4340.05
1523.58	3842.06
1522.71	3711.33
1521.85	3563.3
1520.98	3360.43
1520.12	3137.4
1519.25	3183.07
1518.38	3274.94
1517.52	3043.38
1516.65	3063.06
1515.79	3068.3
1514.92	3030.26
1514.05	2980.68
1513.19	3049.41
1512.32	3043.11
1511.45	2915.69
1510.59	2998.81
1509.72	3050.18
1508.85	3115.95
1507.98	3069.31
1507.12	3060.13
1506.25	2996.22
1505.38	3090.76
1504.51	3021.11
1503.65	2971.63
1502.78	3083.4
1501.91	3010.9
1501.04	3007.51
1500.17	2975.33
1499.3	3110.04
1498.43	3008.82
1497.56	3005.43
1496.69	3033.66
1495.82	3145.27
1494.95	2986.62
1494.08	3285.01
1493.21	3149.38
1492.34	3120.11
1491.47	3128.19
1490.6	3038.61
1489.73	3158.69
1488.86	3161.02
1487.99	3120.28
1487.12	3214.45
1486.25	3170.85
1485.38	3207.6
1484.51	3273.03
1483.63	3292.54
1482.76	3263.29
1481.89	3357.34
1481.02	3399.76
1480.15	3436.43
1479.27	3455.89
1478.4	3524.06
1477.53	3431.78
1476.66	3648.86
1475.78	3688.31
1474.91	3722.03
1474.04	3878.83
1473.16	3958.3
1472.29	4137.9
1471.42	4274.51
1470.54	4330.99
1469.67	4541.89
1468.79	4718.4
1467.92	4894.85
1467.04	5151.28
1466.17	5373.32
1465.29	5432.4
1464.42	5557.17
1463.54	5724.75
1462.67	5729.47
1461.79	5839.85
1460.92	6092.95
1460.04	6029.09
1459.17	6025.19
1458.29	6027
1457.41	5986.01
1456.54	5930.77
1455.66	5906.93
1454.78	5994.31
1453.91	6067.4
1453.03	6009.33
1452.15	6116.6
1451.28	6126.94
1450.4	6268.34
1449.52	6047.9
1448.64	6120.9
1447.77	5966.06
1446.89	6081.76
1446.01	5983.92
1445.13	6239.04
1444.25	6568.07
1443.37	6786.02
1442.5	7234.32
1441.62	7918.54
1440.74	8318.15
1439.86	8905.27
1438.98	9549.04
1438.1	9211.99
1437.22	9173.45
1436.34	8560.97
1435.46	7732.79
1434.58	7166.22
1433.7	6807.15
1432.82	6326.12
1431.94	6072.36
1431.06	5727.86
1430.18	5213.21
1429.3	4985.31
1428.41	4885.15
1427.53	4651.72
1426.65	4469.41
1425.77	4474.3
1424.89	4209.88
1424.01	4257.33
1423.12	4163.07
1422.24	4238.85
1421.36	4320.27
1420.48	4517.79
1419.59	4601.96
1418.71	4867.32
1417.83	5387.38
1416.94	5830.83
1416.06	6276.96
1415.18	6346.61
1414.29	5957.93
1413.41	5399.67
1412.53	4960.38
1411.64	4198.91
1410.76	3972.02
1409.87	3722.59
1408.99	3645.63
1408.1	3402
1407.22	3243.2
1406.33	3172.02
1405.45	3219.48
1404.56	3122.92
1403.68	3085.67
1402.79	3161.35
1401.91	3129.75
1401.02	3151.78
1400.13	3151.23
1399.25	3190.17
1398.36	3073.99
1397.47	3149.59
1396.59	3188.51
1395.7	3063.93
1394.81	3052.12
1393.93	2952.97
1393.04	3014.44
1392.15	2991.38
1391.26	3066.89
1390.38	3184.62
1389.49	3150.28
1388.6	3191.96
1387.71	3067.57
1386.82	2982.62
1385.93	3052.44
1385.04	3032.21
1384.16	3006.37
1383.27	2994.6
1382.38	3154.33
1381.49	2987.94
1380.6	2978.99
1379.71	3197.64
1378.82	3197.08
1377.93	3019.56
1377.04	3108.9
1376.15	3276.84
1375.26	3166.77
1374.37	3306.57
1373.48	3249.86
1372.59	3327.86
1371.69	3509.64
1370.8	3461.34
1369.91	3648.64
1369.02	3704.08
1368.13	3588.49
1367.24	3733.62
1366.34	3533.99
1365.45	3443.71
1364.56	3625.21
1363.67	3504.13
1362.77	3385.89
1361.88	3413.3
1360.99	3365.11
1360.1	3364.52
1359.2	3369.53
1358.31	3427.71
1357.42	3340.38
1356.52	3356.58
1355.63	3193.79
1354.73	3319.06
1353.84	3259.77
1352.95	3368.21
1352.05	3306.14
1351.16	3392.18
1350.26	3302.19
1349.37	3284.85
1348.47	3516.08
1347.58	3565.72
1346.68	3643.27
1345.78	3977.59
1344.89	4147.13
1343.99	4252.44
1343.1	4483.25
1342.2	4607.99
1341.3	4674.11
1340.41	4734.64
1339.51	4731.02
1338.61	4886.29
1337.72	4902.16
1336.82	4472.19
1335.92	4284.75
1335.02	4102.95
1334.13	3971.34
1333.23	3750.67
1332.33	3752.8
1331.43	3721.52
1330.53	3578.94
1329.64	3461.45
1328.74	3613.85
1327.84	3513.08
1326.94	3618.15
1326.04	3559.12
1325.14	3616.88
1324.24	3663.5
1323.34	3579.49
1322.44	3653.88
1321.54	3725.47
1320.64	3666.49
1319.74	3724.17
1318.84	3706.86
1317.94	3697.88
1317.04	3730.54
1316.14	3729.88
1315.24	3823.57
1314.34	3845.1
1313.44	3805.59
1312.54	3879.8
1311.63	3881.89
1310.73	3897.85
1309.83	4093.96
1308.93	4278.92
1308.03	4239.38
1307.12	4299.58
1306.22	4423.47
1305.32	4425.47
1304.41	4624.05
1303.51	4639.85
1302.61	4688.86
1301.71	5003.53
1300.8	5107.79
1299.9	5106.9
1298.99	5587.28
1298.09	6247.25
1297.19	7393.64
1296.28	9385.56
1295.38	12208.8
1294.47	14143.9
1293.57	14102.7
1292.66	12180.2
1291.76	9584.48
1290.85	7235.43
1289.95	5861.88
1289.04	5294.92
1288.14	4786.12
1287.23	4523.11
1286.32	4304.34
1285.42	4218.06
1284.51	4115.27
1283.6	3995.96
1282.7	4036.62
1281.79	3944.93
1280.88	3982.83
1279.98	3794.74
1279.07	3656.3
1278.16	3694.23
1277.25	3638.49
1276.35	3585.53
1275.44	3433.46
1274.53	3548.48
1273.62	3561.62
1272.71	3417.89
1271.81	3466.82
1270.9	3457.96
1269.99	3369.33
1269.08	3379.74
1268.17	3472.63
1267.26	3329.07
1266.35	3394.45
1265.44	3388.35
1264.53	3374.02
1263.62	3269.04
1262.71	3183.32
1261.8	3223.95
1260.89	3319.48
1259.98	3145.95
1259.07	3216.76
1258.16	3227.17
1257.25	3201.91
1256.33	3165.68
1255.42	3104.78
1254.51	3041.17
1253.6	3076.27
1252.69	3240.21
1251.78	2992.97
1250.86	3044.51
1249.95	3112.47
1249.04	3065.35
1248.12	3020.99
1247.21	2943.78
1246.3	3030.87
1245.39	3019.39
1244.47	3016.12
1243.56	3012.85
1242.64	2987.7
1241.73	2957.08
1240.82	2937.41
1239.9	3021.67
1238.99	3021.13
1238.07	2982.33
1237.16	3014.6
1236.24	3003.14
1235.33	2964.36
1234.41	2955.64
1233.5	3034.33
1232.58	3025.6
1231.67	3106.97
1230.75	2991.78
1229.84	2953.04
1228.92	2979.81
1228	2968.37
1227.09	3057.86
1226.17	3027.32
1225.25	3048.6
1224.34	2952.64
1223.42	3031.17
1222.5	3098.77
1221.58	3139.1
1220.67	3073.16
1219.75	3227.88
1218.83	3093.86
1217.91	3267.58
1216.99	3280.62
1216.08	3285.49
1215.16	3271.3
1214.24	3352.35
1213.32	3215.73
1212.4	3302.21
1211.48	3331.54
1210.56	3311.92
1209.64	3284.14
1208.72	3207.45
1207.8	3255.81
1206.88	3336.75
1205.96	3276.39
1205.04	3264.95
1204.12	3095.99
1203.2	3144.32
1202.28	3217.06
1201.36	3135.06
1200.44	3188.79
1199.52	3199.08
1198.59	3182.23
1197.67	3181.67
1196.75	3205.52
1195.83	3093.78
1194.91	3169.14
1193.98	3168.58
1193.06	3170.73
1192.14	3164.75
1191.22	3126.26
1190.29	3139.25
1189.37	3217.23
1188.45	3167.93
1187.52	3297.31
1186.6	3248
1185.68	3271.79
1184.75	3219.8
1183.83	3192.18
1182.9	3280.87
1181.98	3274.88
1181.05	3185.07
1180.13	3130.44
1179.21	3178.54
1178.28	3080.69
1177.35	3177.41
1176.43	3114.72
1175.5	3160.08
1174.58	3218.93
1173.65	3226.46
1172.73	3233.99
1171.8	3481.73
1170.87	3742.87
1169.95	3842.03
1169.02	3935.77
1168.09	3978.22
1167.17	3896.62
1166.24	3537.34
1165.31	3445.06
1164.38	3382.46
1163.46	3360.3
1162.53	3235.77
1161.6	3297.16
1160.67	3237.32
1159.74	3225.97
1158.81	3249.63
1157.89	3270.59
1156.96	3213.49
1156.03	3121.43
1155.1	3128.95
1154.17	3260.2
1153.24	3205.83
1152.31	3151.49
1151.38	3156.3
1150.45	3239.07
1149.52	3203.56
1148.59	3211.05
1147.66	3320.63
1146.73	3320.04
1145.8	3410.77
1144.87	3461.18
1143.94	3678.02
1143	3672
1142.07	3800.17
1141.14	3769.98
1140.21	3645.9
1139.28	3752.55
1138.34	3641.92
1137.41	3890.64
1136.48	3881.91
1135.55	3857.1
1134.61	4202.12
1133.68	4538.99
1132.75	5157.02
1131.81	6171.26
1130.88	7372.59
1129.95	8760.92
1129.01	9848.93
1128.08	10331.6
1127.15	9789.23
1126.21	8532.62
1125.28	7129.32
1124.34	6052.82
1123.41	5447.37
1122.47	4788.67
1121.54	4525.83
1120.6	4247.06
1119.67	4075.28
1118.73	3938.29
1117.79	3825.39
1116.86	3605.7
1115.92	3540.97
1114.99	3540.34
1114.05	3505
1113.11	3368.26
1112.18	3447.72
1111.24	3361.73
1110.3	3465.16
1109.36	3355.19
1108.43	3653.26
1107.49	3607.28
1106.55	3492.02
1105.61	3318.16
1104.67	3437.48
1103.74	3290.33
1102.8	3217.83
1101.86	3254.54
1100.92	3328.52
1099.98	3272.02
1099.04	3228.84
1098.1	3305.45
1097.16	3448.55
1096.22	3304.27
1095.28	3327.62
1094.34	3337.67
1093.4	3281.23
1092.46	3355.09
1091.52	3423.6
1090.58	3364.52
1089.64	3512.72
1088.7	3490.84
1087.76	3484.91
1086.82	3423.2
1085.88	3481.01
1084.93	3644.98
1083.99	3657.61
1083.05	3516.3
1082.11	3698.75
1081.17	3631.77
1080.22	3591.34
1079.28	3651.69
1078.34	3547.63
1077.39	3695.46
1076.45	3633.83
1075.51	3574.89
1074.56	3563.65
1073.62	3520.63
1072.68	3572.97
1071.73	3598.82
1070.79	3680.25
1069.84	3764.3
1068.9	3803.33
1067.95	4117.56
1067.01	4471.35
1066.06	4840.9
1065.12	5802.75
1064.17	6883.26
1063.23	7981.88
1062.28	8387.54
1061.34	8314.68
1060.39	8033.1
1059.44	7281.33
1058.5	6276.25
1057.55	5445.84
1056.6	4671.18
1055.66	4176.65
1054.71	3946.25
1053.76	3660.52
1052.82	3541.12
1051.87	3400.66
1050.92	3413.24
1049.97	3185.83
1049.02	3174.71
1048.08	3211.05
1047.13	3157.76
1046.18	3146.65
1045.23	3143.46
1044.28	2929.5
1043.33	3031.71
1042.38	3081.2
1041.43	3062.22
1040.48	2948.47
1039.53	3016.38
1038.58	2984.26
1037.63	3010.03
1036.68	3098.94
1035.73	3043.15
1034.78	3008.42
1033.83	2879.05
1032.88	3015.23
1031.93	2838.59
1030.98	2882.75
1030.03	2845.46
1029.07	3073.49
1028.12	2896.96
1027.17	3019.87
1026.22	2906.43
1025.27	2903.28
1024.31	2902.76
1023.36	2973.09
1022.41	2946.33
1021.46	2880.22
1020.5	2827.25
1019.55	2816.25
1018.59	2876.05
1017.64	2817.87
1016.69	2843.57
1015.73	2950.49
1014.78	2947.34
1013.82	2936.34
1012.87	2891.29
1011.92	2945.76
1010.96	2981.88
1010.01	2902.82
1009.05	2925.85
1008.09	2878.23
1007.14	3005.9
1006.18	2932.13
1005.23	3012.67
1004.27	2860.48
1003.31	2878.26
1002.36	2888.2
1001.4	2877.23
1000.44	2842.75
999.488	2873.59
998.53	2745.09
997.573	2828.16
996.616	2764.99
995.658	2790.6
994.7	2677.87
993.742	2781.77
992.784	2783.88
991.825	2772.94
990.867	2842.86
989.908	2891.9
988.949	2909.63
987.99	2898.68
987.031	2775.67
986.072	2892.43
985.112	2850.22
984.152	2828.87
983.192	2870.03
982.232	2744.53
981.272	2824.74
980.312	2852.87
979.351	2878.38
978.39	2734.75
977.429	2744.67
976.468	2790.99
975.507	2865.91
974.545	2685.98
973.584	2896.08
972.622	2747.4
971.66	2843.06
970.698	2785.38
969.735	2678.37
968.773	2779.19
967.81	2760.51
966.847	2923.59
965.884	2743.94
964.921	2795.36
963.958	2854.54
962.994	2726.89
962.03	2656.36
961.067	2847.81
960.103	2886.2
959.138	2784.56
958.174	2817.76
957.209	2920.92
956.244	2894.48
955.28	2989.82
954.314	3064.4
953.349	3126.01
952.384	3094.37
951.418	3016.15
950.452	2994.9
949.486	2914.13
948.52	2879.96
947.554	2892.38
946.587	2767.7
945.621	2849.96
944.654	2852.03
943.687	2748.11
942.719	2778.63
941.752	2783.3
940.785	2767.29
939.817	2846.88
938.849	2805.04
937.881	2874.26
936.913	2853.09
935.944	2798.36
934.976	2859.8
934.007	2833.48
933.038	2887.15
932.069	2865.99
931.099	2844.84
930.13	2906.22
929.16	2797.41
928.19	2825.26
927.22	2850.52
926.25	2958.23
925.28	2921.63
924.309	2861.86
923.339	2817.56
922.368	2912.32
921.397	2986.46
920.426	2808.31
919.454	2915.89
918.483	2858.76
917.511	2845.38
916.539	2875.73
915.567	2942.08
914.595	2949.26
913.622	2928.16
912.649	2904.5
911.677	2814.03
910.704	2962.55
909.731	2959.44
908.757	2899.83
907.784	2886.47
906.81	2893.65
905.836	2995.81
904.862	3028.63
903.888	2894.65
902.914	2855.64
901.939	3078.3
900.964	3003.36
899.989	2900.25
899.014	2881.77
898.039	2983.79
897.063	2944.8
896.088	3039.08
895.112	3033.41
894.136	2894.54
893.16	2973.41
892.184	2957.51
891.207	2905.77
890.23	3069.06
889.254	3040.35
888.277	3078.19
887.299	3021.35
886.322	2972.2
885.344	2999.79
884.367	2930.21
883.389	3098.41
882.411	3018.61
881.432	3053.84
880.454	2948.53
879.475	3032.3
878.496	3118.59
877.517	3069.51
876.538	3068.95
875.559	3004.58
874.579	3065.29
873.6	3064.73
872.62	3005.5
871.64	3137.6
870.66	3116.63
869.679	2970.71
868.699	3090
867.718	3125.13
866.737	3055.75
865.756	3029.71
864.774	3029.16
863.793	3018.43
862.811	3081.55
861.83	3060.62
860.848	3108.43
859.865	3105.32
858.883	3061.5
857.9	3048.22
856.918	2912.84
855.935	3085.27
854.952	3168.63
853.968	3150.26
852.985	3068.34
852.001	3042.36
851.018	3138.38
850.034	3041.26
849.05	3144.86
848.065	3085.87
847.081	3024.37
846.096	2973.04
845.111	3089.27
844.126	3060.79
843.141	3039.93
842.156	3079.97
841.17	3147.9
840.184	3058.57
839.198	3136.62
838.212	3179.14
837.226	3097.46
836.239	3091.82
835.253	3126.74
834.266	3141.37
833.279	3034.41
832.292	3109.84
831.304	3134.59
830.317	3215.03
829.329	3052.46
828.341	3120.23
827.353	2950.14
826.365	3154.51
825.376	2961.72
824.388	2991.52
823.399	3036.49
822.41	3015.71
821.421	3017.69
820.431	3110.64
819.442	2940.8
818.452	3106.98
817.462	3129.15
816.472	2969.5
815.482	3011.87
814.492	3034.04
813.501	3058.73
812.51	2957.24
811.519	3032.39
810.528	3029.31
809.537	2917.8
808.545	2932.4
807.553	2959.59
806.562	2921.25
805.57	3011.44
804.577	2940.34
803.585	3022.94
802.592	3034.98
801.6	2906
800.607	2978.48
799.613	2995.56
798.62	3085.62
797.627	2989.44
796.633	2986.38
795.639	2968.22
794.645	2980.26
793.651	3095.38
792.656	2893.69
791.662	2878.08
790.667	2988.14
789.672	2990.11
788.677	2954.39
787.682	3069.39
786.686	3076.37
785.691	3068.27
784.695	2979.85
783.699	3069.66
782.702	3149.41
781.706	3123.74
780.709	3180.87
779.713	3270.58
778.716	3407.91
777.719	3457.43
776.721	3481.86
775.724	3491.25
774.726	3332.75
773.728	3184.32
772.73	3201.28
771.732	3210.71
770.734	3182.58
769.735	3031.79
768.736	3028.73
767.737	3090.74
766.738	2970.07
765.739	3002.05
764.739	3054.03
763.74	2898.43
762.74	3002.91
761.74	3024.86
760.74	2976.82
759.739	3153.7
758.739	3015.71
757.738	3000.17
756.737	2997.12
755.736	3036.53
754.734	3065.93
753.733	3060.38
752.731	3169.64
751.729	3313.78
750.727	3577.63
749.725	4115.77
748.723	4683.64
747.72	5071.77
746.717	4649.52
745.714	3995.61
744.711	3665.92
743.708	3373.72
742.704	3667.07
741.7	3766.03
740.696	3857.48
739.692	3782.08
738.688	3400.51
737.684	3330.2
736.679	3137.97
735.674	3179.7
734.669	3087.07
733.664	3111.38
732.659	3143.14
731.653	3043.11
730.647	3164.36
729.642	3131.47
728.635	2937.08
727.629	2993.68
726.623	2998.1
725.616	3005
724.609	3021.83
723.602	2939.36
722.595	3144.83
721.588	3077.25
720.58	3153.6
719.572	3177.83
718.564	3050.76
717.556	3020.44
716.548	3074.43
715.539	2987.11
714.531	3095.61
713.522	3114.87
712.513	3002.81
711.503	3074.09
710.494	3021.52
709.484	3063.06
708.475	3079.83
707.465	3069.36
706.454	3167.79
705.444	3125.15
704.434	3107.26
703.423	3084.42
702.412	3155.58
701.401	3117.91
700.39	3149.47
699.378	3237.88
698.366	3177.97
697.355	3219.39
696.343	3337.37
695.33	3237.97
694.318	3306.52
693.305	3276.28
692.293	3288.02
691.28	3442.91
690.267	3397.86
689.253	3527.99
688.24	3613.68
687.226	3960.75
686.212	4152.35
685.198	4410.45
684.184	4434.28
683.169	4403.9
682.155	4361.2
681.14	4532.84
680.125	4285.71
679.11	3932.77
678.094	3626.74
677.079	3283.9
676.063	3243.91
675.047	3159.65
674.031	3112.32
673.015	3131.43
671.998	3162.82
670.981	3120.44
669.965	3149.37
668.948	3111.92
667.93	3086.77
666.913	3081.29
665.895	3115.11
664.877	3065.42
663.859	3059.94
662.841	3047.1
661.823	3120.19
660.804	2979.71
659.786	3077.32
658.767	3010.51
657.748	3024.67
656.728	3058.45
655.709	3048.08
654.689	3143.14
653.669	3027.35
652.649	3095.41
651.629	2989.48
650.608	3135.92
649.588	3103.5
648.567	3071.09
647.546	3055.84
646.525	3057.72
645.504	3071.84
644.482	3100.64
643.46	3129.43
642.438	3199.8
641.416	3248.13
640.394	3051.89
639.371	3149.13
638.349	3102.1
637.326	3138.19
636.303	3228.03
635.279	3185.9
634.256	3229.28
633.232	3162.74
632.208	3213.44
631.184	3132.28
630.16	3209.81
629.136	3199.46
628.111	3184.23
627.087	3186.08
626.062	3405.01
625.036	3419.02
624.011	3303.79
622.986	3310.49
621.96	3317.19
620.934	3496.91
619.908	3289.17
618.882	3424.98
617.855	3475.49
616.828	3280.04
615.802	3406.04
614.775	3334.82
613.747	3443.72
612.72	3584.21
611.692	3430.28
610.664	3381
609.636	3557.91
608.608	3457.56
607.58	3405.87
606.551	3468.43
605.523	3494.52
604.494	3416.13
603.465	3444.65
602.435	3507.16
601.406	3474.94
600.376	3386.9
599.346	3476.09
598.316	3317.69
597.286	3431.12
596.255	3428.06
595.225	3420.15
594.194	3446.2
593.163	3460.11
592.131	3386.74
591.1	3424.89
590.068	3443.65
589.037	3404.24
588.005	3318.82
586.972	3264.93
585.94	3327.28
584.908	3234.66
583.875	3260.69
582.842	3264.93
581.809	3143.33
580.775	3220.17
579.742	3226.83
578.708	3257.67
577.674	3143.42
576.64	3283.06
575.606	3229.28
574.571	3165.84
573.537	3145.93
572.502	3135.68
571.467	3120.61
570.432	3146.59
569.396	3189.47
568.36	3097.15
567.325	3183.46
566.289	3173.22
565.252	3119.55
564.216	3184.1
563.179	3135.28
562.143	3209.45
561.106	3177.51
560.069	3174.51
559.031	3048.61
557.994	3144.42
556.956	3134.2
555.918	3237.19
554.88	3149.9
553.841	3113.2
552.803	3081.32
551.764	3172.21
550.725	3152.37
549.686	3202.31
548.647	3165.64
547.607	3258.84
546.568	3178.89
545.528	3255.23
544.488	3230.59
543.448	3093
542.407	3142.89
541.367	3185.55
540.326	3129.71
539.285	3167.55
538.243	3246.2
537.202	3327.22
536.16	3223.39
535.119	3184.4
534.077	3155.02
533.035	3195.21
531.992	3149.05
530.95	3182.03
529.907	3291.73
528.864	3180.85
527.821	3252.16
526.777	3194.04
525.734	3191.06
524.69	3121
523.646	3221
522.602	3241.95
521.558	3159.96
520.513	3324.52
519.468	3182.71
518.424	3234.76
517.378	3179.13
516.333	3228.77
515.288	3139.69
514.242	3241.91
513.196	3188.72
512.15	3197.69
511.104	3189.92
510.057	3301.61
509.011	3212.62
507.964	3204.86
506.917	3228.14
505.87	3194.12
504.822	3293.77
503.775	3223.95
502.727	3316.4
501.679	3265.69
500.63	3231.69
