#Wave		#Intensity
3200.600830	84.197044
3200.007080	58.937931
3199.413086	16.836864
3198.819092	50.502956
3198.224854	25.247662
3197.630615	29.451153
3197.036377	12.620015
3196.442139	16.824142
3195.847656	8.410800
3195.252930	16.819057
3194.658447	42.041283
3194.063721	29.424450
3193.468750	4.202857
3192.873779	46.224438
3192.278809	-12.604758
3191.683838	33.607605
3191.088623	37.802841
3190.493164	20.998402
3189.897949	75.582809
3189.302490	-12.595230
3188.706787	8.395550
3188.111328	33.577118
3187.515381	50.358059
3186.919678	29.371092
3186.323730	67.123764
3185.727783	8.389201
3185.131592	67.103455
3184.535400	25.159988
3183.939209	29.348879
3183.342773	25.152374
3182.746338	8.382856
3182.149902	20.953968
3181.553223	20.950798
3180.956543	46.084778
3180.359619	12.566673
3179.762695	20.941286
3179.165771	20.938116
3178.568604	20.934946
3177.971436	33.490841
3177.374268	29.300051
3176.776855	4.185088
3176.179443	41.844543
3175.581787	37.654385
3174.984131	29.282309
3174.386475	16.730215
3173.788574	29.273441
3173.190674	33.450294
3172.592773	25.083921
3171.994629	62.700306
3171.396484	16.717548
3170.798340	41.787540
3170.199951	16.712484
3169.601563	29.242418
3169.002930	-8.353711
3168.404297	41.762226
3167.805664	29.229130
3167.206787	-4.174957
3166.607910	20.871622
3166.008789	37.563229
3165.409912	62.595894
3164.810547	25.034563
3164.211426	37.546154
3163.612061	41.711624
3163.012695	20.852652
3162.413086	16.679592
3161.813477	16.677065
3161.213623	-8.337268
3160.614014	50.016026
3160.013916	-16.669481
3159.414063	37.500645
3158.813965	37.494961
3158.213867	16.661900
3157.613525	20.824217
3157.013184	33.313694
3156.412598	12.490742
3155.812256	37.466541
3155.211426	70.759399
3154.610840	16.646746
3154.010010	49.932663
3153.409180	33.283394
3152.808105	16.639172
3152.207031	8.318324
3151.605957	41.585308
3151.004639	16.631599
3150.403320	33.258156
3149.801758	33.253109
3149.200195	24.936047
3148.598633	24.932262
3147.996826	58.166454
3147.395020	62.311741
3146.793213	16.613943
3146.191162	33.222843
3145.589111	20.761126
3144.986816	8.303189
3144.384766	33.207718
3143.782227	12.451004
3143.179932	20.748522
3142.577393	12.447224
3141.974609	24.890667
3141.371826	58.069408
3140.769043	12.441555
3140.166260	-4.146555
3139.563232	-12.437778
3138.960205	33.162369
3138.356934	29.012667
3137.753662	0.000000
3137.150391	33.147263
3136.546875	53.856121
3135.943359	8.284299
3135.339600	12.424561
3134.735840	8.281782
3134.132080	33.122097
3133.528076	33.117062
3132.924072	-20.695021
3132.320068	41.383751
3131.715820	12.413239
3131.111572	20.685589
3130.507080	33.091911
3129.902588	28.951023
3129.298096	24.811392
3128.693604	0.000000
3128.088867	28.937826
3127.483887	45.466812
3126.878906	16.530874
3126.273926	28.924631
3125.668945	16.525848
3125.063721	33.046673
3124.458252	37.171856
3123.853027	24.777470
3123.247559	49.547401
3122.641846	24.769936
3122.036133	24.766169
3121.430420	49.524803
3120.824707	57.770153
3120.218750	49.509743
3119.612549	4.125185
3119.006592	20.622786
3118.400391	32.991436
3117.793945	24.739815
3117.187500	41.226753
3116.581055	12.366144
3115.974609	41.214211
3115.367920	0.000000
3114.760986	37.081501
3114.154297	41.195400
3113.547363	12.356740
3112.940186	24.709719
3112.333008	49.411919
3111.725830	4.117033
3111.118408	16.465626
3110.510986	69.968262
3109.903564	32.921230
3109.295898	16.458109
3108.688232	41.139011
3108.080566	61.699123
3107.472656	49.351784
3106.864746	49.344269
3106.256592	16.445585
3105.648438	28.775394
3105.040039	12.330434
3104.431885	32.876152
3103.823486	28.762251
3103.214844	12.324802
3102.606201	24.645849
3101.997559	28.749113
3101.388672	49.276688
3100.779785	12.317295
3100.170898	45.156536
3099.561768	41.045143
3098.952637	24.623335
3098.343262	0.000000
3097.733887	57.436943
3097.124512	32.816109
3096.514893	28.709723
3095.905273	8.201528
3095.295410	28.700974
3094.685791	8.199028
3094.075684	32.791115
3093.465820	16.393059
3092.855713	49.171684
3092.245361	49.164188
3091.635254	57.349476
3091.024658	40.957668
3090.414307	32.761139
3089.803711	28.661627
3089.193115	32.751152
3088.582275	49.119236
3087.971436	53.204395
3087.360596	49.104259
3086.749512	28.639784
3086.138428	32.726192
3085.527100	24.540901
3084.915771	28.626684
3084.304443	24.533415
3083.692871	24.529675
3083.081299	32.701244
3082.469482	8.174064
3081.857910	44.950493
3081.245850	53.115208
3080.634033	4.085162
3080.021973	28.591770
3079.409668	57.174816
3078.797607	24.499754
3078.185059	48.992031
3077.572754	36.738415
3076.960205	36.732811
3076.347656	36.727203
3075.734863	32.641422
3075.122070	24.477329
3074.509033	24.473595
3073.895996	53.018028
3073.282959	69.320686
3072.669922	12.231194
3072.056641	-4.076442
3071.443115	28.530741
3070.829834	36.676781
3070.216064	16.298302
3069.602539	52.961395
3068.988770	-4.073331
3068.375000	24.436256
3067.760986	36.648788
3067.146973	65.143448
3066.532715	20.354219
3065.918701	28.491554
3065.304199	36.626404
3064.689941	28.482851
3064.075439	40.683571
3063.460693	32.541885
3062.846191	0.000000
3062.231445	60.997395
3061.616455	48.790459
3061.001465	24.391502
3060.386475	69.098694
3059.771240	8.128016
3059.156006	40.633873
3058.540771	24.376596
3057.925293	56.870033
3057.309814	44.676769
3056.694092	36.548134
3056.078369	12.180849
3055.462646	-8.119325
3054.846680	28.413292
3054.230713	56.817898
3053.614502	48.693607
3052.998291	44.628983
3052.382080	32.452480
3051.765625	16.223759
3051.149170	36.497875
3050.532715	40.546993
3049.916016	56.757111
3049.299316	24.320757
3048.682373	44.581234
3048.065430	64.835510
3047.448486	32.412800
3046.831299	40.509800
3046.214111	52.654686
3045.596680	36.447666
3044.979248	20.245605
3044.361816	20.242508
3043.744141	60.718235
3043.126465	64.756210
3042.508545	44.513081
3041.890869	32.368195
3041.272705	48.544865
3040.654785	28.313503
3040.036621	52.574173
3039.418213	60.653221
3038.799805	40.429295
3038.181396	48.507725
3037.562988	64.667068
3036.944336	44.451801
3036.325439	36.364090
3035.706543	20.199179
3035.087646	48.470608
3034.468750	40.385986
3033.849609	28.265863
3033.230469	68.635155
3032.611084	56.514412
3031.991699	64.578011
3031.372070	60.532612
3030.752441	36.314007
3030.132813	48.411259
3029.513184	44.370190
3028.893066	40.330357
3028.273193	68.551102
3027.653076	24.190800
3027.032959	48.374187
3026.412598	32.244518
3025.792480	36.269524
3025.171875	28.205309
3024.551270	64.459396
3023.930664	28.196665
3023.310059	28.192345
3022.689209	48.322327
3022.068115	36.236191
3021.447266	68.435646
3020.826172	36.225082
3020.204834	36.219528
3019.583496	76.451729
3018.962158	20.115791
3018.340576	64.360664
3017.718994	44.241173
3017.097412	28.149158
3016.475586	36.186226
3015.853760	36.180676
3015.231689	36.175129
3014.609619	56.263794
3013.987549	60.273392
3013.365234	60.264145
3012.742920	12.050981
3012.120361	48.196529
3011.497803	32.126091
3010.875244	52.196888
3010.252441	40.145294
3009.629639	84.292183
3009.006836	108.359039
3008.383789	40.126820
3007.760498	32.096531
3007.137451	56.160309
3006.514160	44.119186
3005.890625	56.143074
3005.267090	48.115250
3004.643555	32.071911
3004.019775	20.041868
3003.395996	52.100857
3002.772217	68.121429
3002.148193	68.110977
3001.524170	28.041389
3000.899902	64.084770
3000.275635	28.032782
2999.651367	60.061024
2999.026855	60.051800
2998.402344	40.028385
2997.777588	52.028912
2997.152832	36.014484
2996.528076	48.011940
2995.903076	32.003044
2995.278076	35.997894
2994.653076	71.984726
2994.027832	31.988298
2993.402344	63.966770
2992.777100	63.956944
2992.151367	31.973558
2991.525879	71.929459
2990.900146	39.954670
2990.274414	23.969118
2989.648438	63.907825
2989.022461	47.923504
2988.396240	67.881203
2987.770264	39.923981
2987.143799	55.884983
2986.517578	51.885223
2985.891113	71.830032
2985.264404	27.929609
2984.637695	59.839962
2984.010986	51.853329
2983.384033	39.881042
2982.757080	71.774841
2982.130127	39.868782
2981.502930	67.766510
2980.875732	55.799133
2980.248291	59.775589
2979.620850	35.859840
2978.993408	67.724838
2978.365723	59.748016
2977.738037	71.686592
2977.110107	63.711617
2976.482178	47.776363
2975.854248	59.711266
2975.226074	31.841110
2974.597900	55.713367
2973.969482	59.683712
2973.341309	39.783020
2972.712646	95.464554
2972.083984	55.679089
2971.455322	63.623455
2970.826660	79.517075
2970.197754	59.628632
2969.568604	79.492607
2968.939697	75.506355
2968.310547	103.308578
2967.681152	43.700748
2967.051758	83.415855
2966.422363	43.687294
2965.792725	75.448257
2965.163086	35.733147
2964.533203	43.667122
2963.903564	31.753016
2963.273438	67.464767
2962.643311	87.293907
2962.013184	47.607525
2961.383057	47.600193
2960.752686	59.491077
2960.122314	63.447376
2959.491699	79.297005
2958.861084	59.463593
2958.230225	79.272575
2957.599609	75.297348
2956.968506	63.398525
2956.337646	71.312355
2955.706299	79.223740
2955.075195	75.250954
2954.443848	67.319427
2953.812500	98.983902
2953.180908	71.257431
2952.549316	71.246445
2951.917725	94.980621
2951.285889	91.009071
2950.653809	75.169815
2950.021973	94.936714
2949.389893	102.832253
2948.757568	118.634308
2948.125244	79.077347
2947.492920	142.317276
2946.860352	102.768852
2946.227783	122.513199
2945.595215	169.911469
2944.962402	114.573784
2944.329590	106.655693
2943.696533	161.933670
2943.063477	173.755661
2942.430420	146.090179
2941.797119	138.172104
2941.163574	142.097961
2940.530273	138.129486
2939.896729	161.783859
2939.262939	181.485596
2938.629150	193.291794
2937.995361	173.541351
2937.361328	212.949707
2936.727295	201.088135
2936.093262	201.057114
2935.458984	244.384659
2934.824707	248.288010
2934.190186	267.952057
2933.555664	248.211380
2932.921143	240.294556
2932.286377	275.705292
2931.651367	279.600769
2931.016602	279.557617
2930.381592	318.882690
2929.746338	330.642090
2929.111084	310.913025
2928.475830	330.540009
2927.840332	271.473083
2927.204834	334.371735
2926.569336	287.121948
2925.933594	334.268463
2925.297607	302.761139
2924.661865	334.165222
2924.025879	326.252106
2923.389648	282.970154
2922.753418	322.221771
2922.117188	377.176971
2921.480713	400.688629
2920.844238	357.421875
2920.207764	353.439545
2919.571045	357.311432
2918.934082	329.774994
2918.297363	325.798737
2917.660156	333.597748
2917.023193	337.470276
2916.385986	360.958923
2915.748779	349.134552
2915.111328	356.925079
2914.473877	384.321442
2913.836182	337.209534
2913.198486	337.157410
2912.560791	380.223419
2911.922852	380.164612
2911.284912	399.698944
2910.646729	352.621002
2910.008545	399.575348
2909.370361	387.763153
2908.731934	415.116547
2908.093506	387.643219
2907.455078	438.478027
2906.816406	360.122681
2906.177490	430.514862
2905.538574	446.100952
2904.899658	402.993774
2904.260498	418.579254
2903.621338	457.627991
2902.982178	438.003448
2902.342773	492.677643
2901.703369	539.515869
2901.063721	488.616272
2900.424072	511.990601
2899.784424	500.188202
2899.144531	531.367737
2898.504639	527.378967
2897.864502	550.732788
2897.224365	617.037659
2896.583984	573.990479
2895.943848	566.093445
2895.303223	585.523254
2894.662842	573.723938
2894.021973	593.146545
2893.381348	635.973145
2892.740479	612.468201
2892.099609	643.577087
2891.458496	616.178406
2890.817383	674.571899
2890.176025	643.278137
2889.534668	623.688293
2888.893311	623.591675
2888.251709	642.979309
2887.610107	662.360901
2886.968262	720.692871
2886.326416	736.161316
2885.684570	728.258423
2885.042480	735.933228
2884.400391	798.110779
2883.758057	809.664978
2883.115723	864.027771
2882.473389	891.133728
2881.830811	926.012939
2881.188232	1065.916870
2880.545410	1244.673462
2879.902588	1295.037598
2879.259766	1430.930786
2878.616699	1477.362549
2877.973633	1449.923218
2877.330322	1197.069946
2876.687012	1107.506714
2876.043457	1084.022705
2875.399902	982.850220
2874.756348	870.056519
2874.112549	842.736572
2873.468750	753.297424
2872.824707	691.062622
2872.180664	710.364319
2871.536621	686.967102
2870.892334	601.488037
2870.248047	601.394714
2869.603760	663.371277
2868.958984	643.874573
2868.314453	655.409119
2867.669678	593.266541
2867.024902	635.820984
2866.379883	612.464233
2865.734863	604.617676
2865.089844	639.400208
2864.444580	627.677307
2863.799316	581.092529
2863.153809	611.989136
2862.508301	615.766846
2861.862549	646.648438
2861.216797	658.162720
2860.571045	665.802429
2859.925049	716.013550
2859.279053	723.641846
2858.632813	692.576355
2857.986572	646.046326
2857.340332	789.059814
2856.693848	750.263916
2856.047363	815.881958
2855.400635	800.290710
2854.753906	811.763000
2854.107178	854.151245
2853.460205	834.696899
2852.813232	877.068359
2852.166016	942.605408
2851.518799	954.046631
2850.871338	961.622253
2850.223877	1000.086243
2849.576416	1081.006348
2848.928711	1096.278931
2848.281006	1111.546753
2847.633301	1122.950806
2846.985352	1223.093018
2846.337158	1327.061890
2845.688965	1222.712891
2845.040771	1245.662109
2844.392578	1299.451660
2843.743896	1295.394287
2843.095459	1225.807617
2842.446777	1206.346313
2841.798096	1132.941528
2841.149170	1017.177002
2840.500244	1040.132935
2839.851074	966.788025
2839.202148	881.912476
2838.552734	847.120422
2837.903320	762.289795
2837.253906	692.882935
2836.604492	719.716431
2835.954834	650.337769
2835.304932	569.437988
2834.655029	561.655457
2834.005127	542.336304
2833.354980	496.102844
2832.704834	403.741821
2832.054688	434.435486
2831.404297	353.644653
2830.753906	315.155975
2830.103271	338.163544
2829.452637	272.794037
2828.801758	226.652725
2828.150879	280.391083
2827.500000	226.582169
2826.848877	215.027573
2826.197754	207.315735
2825.546387	199.606308
2824.895020	172.709335
2824.243408	168.845062
2823.591797	184.165924
2822.940186	168.792480
2822.288330	168.766205
2821.636475	180.244919
2820.984619	138.038437
2820.332520	138.016937
2819.680176	168.661102
2819.028076	141.806564
2818.375488	126.456421
2817.723145	164.750885
2817.070557	103.432114
2816.417725	126.397331
2815.764893	126.377640
2815.112061	137.845047
2814.458984	107.196106
2813.805908	122.490746
2813.152832	118.644417
2812.499512	99.492714
2811.845947	80.346977
2811.192383	103.287155
2810.538818	76.497078
2809.885010	110.903481
2809.231201	114.709854
2808.577393	72.638252
2807.923340	110.851624
2807.269287	61.149982
2806.614990	61.140450
2805.960693	118.441154
2805.306152	106.962425
2804.651611	80.209312
2803.997070	103.110176
2803.342285	110.730698
2802.687500	72.536385
2802.032471	106.879051
2801.377441	99.229355
2800.722412	114.477547
2800.067139	72.491135
2799.411621	87.738739
2798.756348	106.795715
2798.100586	114.406136
2797.445068	106.762398
2796.789307	83.871651
2796.133301	91.482071
2795.477539	95.278954
2794.821289	91.453522
2794.165283	110.489098
2793.509033	102.853104
2792.852539	76.175591
2792.196045	72.355522
2791.539551	34.268318
2790.882813	98.981903
2790.226074	79.934441
2789.569092	106.562622
2788.912109	76.104271
2788.255127	72.287773
2787.597900	79.884537
2786.940430	87.478928
2786.283203	106.479454
2785.625488	110.265068
2784.968018	83.636299
2784.310303	76.021126
2783.652588	114.013878
2782.994629	53.198166
2782.336426	102.580437
2781.678467	110.161774
2781.020264	98.750298
2780.361816	117.722343
2779.703369	94.922546
2779.044922	75.926170
2778.386230	75.914307
2777.727539	64.517075
2777.068604	106.246819
2776.409668	49.321171
2775.750732	83.453552
2775.091553	72.062256
2774.432373	109.972565
2773.772949	117.538506
2773.113525	83.401382
2772.453857	87.178726
2771.794189	75.795738
2771.134521	87.151466
2770.474609	94.715050
2769.814697	75.760193
2769.154541	64.386093
2768.494385	106.031097
2767.833984	90.869583
2767.173584	52.998966
2766.513184	83.271065
2765.852539	79.473587
2765.191895	90.812752
2764.531006	87.015274
2763.870117	37.826809
2763.209229	98.334312
2762.548096	94.537430
2761.886719	79.399017
2761.225586	117.189735
2760.563965	90.713341
2759.902588	75.582619
2759.240967	90.684952
2758.579102	83.114861
2757.917236	98.211281
2757.255371	94.419144
2756.593262	86.852020
2755.931152	86.838425
2755.269043	135.899734
2754.606689	79.262436
2753.944092	120.761940
2753.281494	90.557274
2752.618896	109.406242
2751.956055	94.300957
2751.293213	109.371979
2750.630371	86.729713
2749.967285	86.716133
2749.303955	82.932869
2748.640625	79.150795
2747.977295	105.517868
2747.313721	105.501335
2746.650146	79.113609
2745.986572	109.235008
2745.322754	94.153358
2744.658691	60.248711
2743.994873	143.068268
2743.330566	120.459663
2742.666504	120.440788
2742.002197	86.553253
2741.337646	105.352661
2740.673096	131.670181
2740.008545	127.888138
2739.343750	120.346436
2738.678955	116.567337
2738.013916	135.347305
2737.348877	101.494560
2736.683594	131.546402
2736.018311	86.431221
2735.353027	82.660385
2734.687500	116.457733
2734.021973	105.171135
2733.356201	105.154640
2732.690430	146.442429
2732.024658	131.402069
2731.358643	105.105171
2730.692383	187.658371
2730.026367	153.855728
2729.359863	150.079605
2728.693604	112.542046
2728.027100	183.789841
2727.360352	150.008987
2726.693604	176.232895
2726.026855	172.456192
2725.359863	191.171432
2724.692871	217.376541
2724.025635	194.858719
2723.358398	179.841370
2722.691162	172.320923
2722.023682	202.258026
2721.355957	217.206009
2720.688477	235.893631
2720.020508	183.444016
2719.352783	190.901550
2718.684814	213.327072
2718.016602	235.745529
2717.348389	190.811661
2716.680176	194.522507
2716.011719	194.491959
2715.343262	201.940704
2714.674561	157.040329
2714.005859	186.923416
2713.337158	216.797104
2712.668213	205.551163
2711.999023	171.888519
2711.329834	153.180908
2710.660645	186.776642
2709.991455	145.662888
2709.321777	190.452316
2708.652344	182.954849
2707.982666	156.793808
2707.312988	167.966965
2706.643066	134.352448
2705.972900	156.719894
2705.302979	141.771912
2704.632813	182.782410
2703.962402	182.753677
2703.291992	167.808624
2702.621582	130.497299
2701.950928	152.844238
2701.280273	145.365570
2700.609375	167.703125
2699.938477	182.581360
2699.267334	141.571442
2698.596191	156.449097
2697.925049	89.385429
2697.253662	130.333252
2696.582031	134.035965
2695.910645	107.956436
2695.239014	107.939461
2694.567139	148.858597
2693.895264	93.021988
2693.223145	126.489998
2692.551270	115.310974
2691.878906	130.169327
2691.206543	130.148849
2690.534180	104.102692
2689.861816	96.651573
2689.189209	107.786713
2688.516357	141.215530
2687.843506	126.330856
2687.170654	115.165886
2686.497559	137.434418
2685.824463	92.846481
2685.151123	77.978767
2684.477783	107.668007
2683.804199	111.363167
2683.130615	133.614761
2682.457031	103.906227
2681.783203	155.834793
2681.109375	129.841888
2680.435303	133.530624
2679.761230	118.675194
2679.086914	122.364517
2678.412598	118.637817
2677.738281	114.912277
2677.063721	140.838028
2676.389160	129.698807
2675.714355	155.614044
2675.039551	137.066971
2674.364502	100.006081
2673.689453	111.100357
2673.014404	140.704941
2672.339111	81.447922
2671.663574	111.047844
2670.988037	118.432373
2670.312500	92.510704
2669.636719	118.395042
2668.960938	92.481544
2668.285156	144.248474
2667.609131	110.942871
2666.932861	118.320412
2666.256592	103.514038
2665.580322	96.105019
2664.903809	96.089867
2664.227295	81.293991
2663.550781	136.700150
2662.874023	92.350403
2662.197021	114.496437
2661.520020	107.092682
2660.843018	114.460327
2660.165771	129.209015
2659.488525	140.261948
2658.811035	118.096695
2658.133545	121.768005
2657.455811	140.195572
2656.778076	88.530609
2656.100342	118.022186
2655.422363	114.315948
2654.744385	121.671974
2654.066162	114.279877
2653.387939	129.005310
2652.709473	121.614372
2652.031006	128.964584
2651.352539	121.575989
2650.673828	106.822639
2649.994873	121.537613
2649.316162	106.788918
2648.636963	121.499237
2647.958008	95.711555
2647.278809	88.335182
2646.599365	114.081596
2645.919922	125.101990
2645.240479	132.440018
2644.560791	102.992630
2643.880859	132.398178
2643.201172	102.960098
2642.520996	99.267273
2641.841064	128.659470
2641.160889	102.911316
2640.480469	106.569885
2639.800049	91.856079
2639.119629	99.188889
2638.438965	95.500137
2637.758301	84.467537
2637.077393	102.813797
2636.396484	128.496933
2635.715332	121.135109
2635.034180	106.435242
2634.353027	124.766426
2633.671631	124.746704
2632.989990	117.390106
2632.308350	99.032242
2631.626709	110.018433
2630.944824	135.667938
2630.262939	128.314255
2629.581055	128.293961
2628.898926	135.603607
2628.216553	76.952034
2627.534180	109.914093
2626.851807	102.570267
2626.169189	106.216690
2625.486572	98.875755
2624.803711	128.152008
2624.120850	124.470825
2623.437988	106.149498
2622.754883	131.750946
2622.071533	128.070938
2621.388184	65.854630
2620.704834	124.372398
2620.021240	91.435822
2619.337646	120.676186
2618.653809	95.063164
2617.969971	76.769630
2617.286133	84.067719
2616.602051	116.945267
2615.917725	105.964874
2615.233398	102.294716
2614.549072	120.542549
2613.864502	146.089050
2613.179932	127.807678
2612.495117	156.996002
2611.810303	98.563278
2611.125488	120.447151
2610.440430	131.376083
2609.755127	116.760254
2609.069824	153.223557
2608.384521	142.256485
2607.698975	94.822632
2607.013428	102.100510
2606.327637	142.188904
2605.641846	142.166367
2604.956055	105.696709
2604.270020	127.544785
2603.583740	102.019661
2602.897461	91.074547
2602.211182	131.126572
2601.524658	134.747620
2600.838135	83.748756
2600.151367	109.220200
2599.464600	80.082115
2598.777832	127.383179
2598.090820	98.251442
2597.403564	123.704430
2596.716309	80.031357
2596.029053	138.214066
2595.341553	105.462425
2594.654053	145.442352
2593.966309	90.887054
2593.278564	130.856613
2592.590820	127.201530
2591.902832	134.448868
2591.214600	127.161186
2590.526367	94.447617
2589.838135	112.592758
2589.149658	123.469238
2588.461182	105.295296
2587.772461	108.908882
2587.083740	123.410484
2586.394775	127.020050
2585.705811	156.028442
2585.016846	141.491714
2584.327637	130.587021
2583.638184	116.058929
2582.948975	108.787979
2582.259277	116.022087
2581.569824	119.628792
2580.879883	94.238029
2580.190186	105.094963
2579.500244	126.818611
2578.810059	83.324715
2578.119873	86.933723
2577.429688	126.758217
2576.739258	137.601349
2576.048584	108.615402
2575.358154	115.838028
2574.667236	126.677727
2573.976563	90.469719
2573.285645	94.073563
2572.594482	137.470291
2571.903320	133.831390
2571.212158	90.412254
2570.520752	108.477470
2569.829102	97.614212
2569.137451	86.754402
2568.445801	83.126427
2567.753906	75.885986
2567.062012	97.552185
2566.370117	90.311745
2565.677979	97.521187
2564.985596	101.117012
2564.293213	115.543930
2563.600830	104.695045
2562.908203	97.459198
2562.215332	133.533966
2561.522705	111.862030
2560.829590	155.138794
2560.136719	79.360718
2559.443604	90.168289
2558.750244	126.215538
2558.056885	75.717278
2557.363525	118.965378
2556.669922	90.110954
2555.976074	79.285027
2555.282227	104.495461
2554.588379	82.862526
2553.894287	97.257927
2553.200195	79.234596
2552.505859	97.226990
2551.811523	100.811943
2551.117188	79.196785
2550.422607	115.176994
2549.727783	122.356079
2549.032959	93.551529
2548.338135	107.926888
2547.643066	104.312721
2546.947998	61.139107
2546.252686	107.875366
2545.557373	115.048744
2544.861816	86.272820
2544.166260	89.853218
2543.470703	86.245354
2542.774902	107.789528
2542.078857	96.995132
2541.382813	111.347054
2540.686768	111.329323
2539.990479	89.767410
2539.294189	100.523491
2538.597656	104.097031
2537.901123	93.313515
2537.204346	114.829109
2536.507568	118.398651
2535.810791	96.856194
2535.113770	100.427460
2534.416504	125.514328
2533.719238	78.882149
2533.021973	103.964447
2532.324463	129.038742
2531.626953	78.844444
2530.929199	103.914757
2530.231445	103.898193
2529.533447	114.628014
2528.835449	93.120415
2528.137451	103.848526
2527.439209	128.894867
2526.740723	89.496048
2526.042236	100.219597
2525.343750	93.046219
2524.645020	85.875122
2523.946289	107.326790
2523.247314	110.886665
2522.548340	118.021820
2521.849121	121.578842
2521.149902	114.408897
2520.450684	103.666527
2519.751221	110.798271
2519.051514	114.354164
2518.351807	125.054916
2517.652100	128.607391
2516.952148	107.155731
2516.252197	82.139618
2515.552002	110.692261
2514.851807	110.674599
2514.151367	124.935249
2513.450928	110.639275
2512.750244	117.758499
2512.049561	121.307579
2511.348877	107.019012
2510.647949	107.001930
2509.946777	85.587883
2509.245605	121.230141
2508.544434	139.035904
2507.843018	106.933624
2507.141602	117.608200
2506.439941	96.209534
2505.738281	96.194168
2505.036377	106.865341
2504.334473	113.971497
2503.632568	121.075371
2502.930420	85.451317
2502.228027	96.117378
2501.525635	92.542694
2500.823242	78.292847
2500.120605	106.745918
2499.417969	99.613609
2498.715088	106.711815
2498.012207	103.138268
2497.309082	103.121788
2496.605957	124.437447
2495.902588	120.862778
2495.199219	103.072365
2494.495605	113.716843
2493.791992	106.592499
2493.088379	106.575462
2492.384521	117.214272
2491.680664	106.541397
2490.976563	113.625984
2490.272461	88.756111
2489.568115	106.490303
2488.863770	120.669716
2488.159180	85.165001
2487.454590	95.795303
2486.749756	113.517021
2486.044922	102.858345
2485.339844	102.841896
2484.634766	113.462563
2483.929688	152.440933
2483.224365	109.881699
2482.519043	92.144096
2481.813477	148.824356
2481.107666	113.371841
2480.402100	85.015274
2479.696045	88.543411
2478.990234	84.988068
2478.284180	127.461708
2477.577881	138.061417
2476.871582	106.184090
2476.165039	106.167099
2475.458496	95.535095
2474.751953	113.208656
2474.045166	123.802147
2473.338379	123.782326
2472.631348	109.618217
2471.924072	134.349213
2471.217041	113.118057
2470.509521	98.962456
2469.802246	109.548027
2469.094482	123.663452
2468.386963	109.512947
2467.679199	116.559624
2466.971191	88.288605
2466.263184	123.584244
2465.554932	123.564445
2464.846680	112.955116
2464.138428	84.702766
2463.429932	102.332771
2462.721436	98.788223
2462.012695	126.993080
2461.303955	91.702530
2460.594971	116.373024
2459.885986	123.406151
2459.176758	126.911697
2458.467529	102.218040
2457.758057	84.580681
2457.048584	126.850677
2456.338867	119.784218
2455.629150	123.287514
2454.919434	147.921295
2454.209473	98.598389
2453.499512	84.499352
2452.789307	116.167976
2452.078857	137.267410
2451.368408	133.726288
2450.657959	126.667747
2449.947266	144.237350
2449.236572	112.557434
2448.525879	112.539383
2447.814697	151.200531
2447.103760	116.019005
2446.392578	140.606537
2445.681152	126.525581
2444.969727	80.822815
2444.258301	94.863739
2443.546631	77.283974
2442.834717	144.006104
2442.122803	143.983002
2441.410889	105.336510
2440.698730	101.808945
2439.986572	140.403595
2439.274170	150.909637
2438.561768	161.412292
2437.849121	122.793991
2437.136475	129.789948
2436.423584	115.740013
2435.710693	119.228142
2434.997803	122.715141
2434.284424	157.751282
2433.571289	115.665688
2432.857910	143.682785
2432.144287	129.644119
2431.430908	136.629959
2430.717041	129.602478
2430.003174	126.079453
2429.289307	119.055908
2428.575195	147.045441
2427.861084	133.019730
2427.146729	125.998444
2426.432373	164.471542
2425.717773	136.454453
2425.003174	146.927338
2424.288330	132.912888
2423.573486	132.891525
2422.858643	129.373581
2422.143555	153.824936
2421.428223	164.286591
2420.712891	150.280594
2419.997559	146.762085
2419.281982	157.219818
2418.566162	129.248840
2417.850586	164.154556
2417.134521	136.191452
2416.418457	104.745811
2415.702393	115.201866
2414.986084	129.144958
2414.269775	118.654655
2413.553223	132.592697
2412.836670	115.127762
2412.120117	153.478989
2411.403076	111.603127
2410.686279	111.585175
2409.969238	76.702461
2409.251953	122.007011
2408.534668	163.811615
2407.817383	121.967751
2407.099854	128.916580
2406.382080	139.346848
2405.664307	153.256866
2404.946533	125.371796
2404.228516	114.905647
2403.510498	156.664291
2402.792236	149.677338
2402.073975	149.653244
2401.355469	125.270912
2400.636963	128.729935
2399.918213	170.452728
2399.199463	153.034943
2398.480469	118.235229
2397.761475	135.600922
2397.042480	125.149925
2396.323242	107.750633
2395.603760	111.208542
2394.884277	159.836533
2394.164795	177.181519
2393.445068	107.681213
2392.725098	121.555977
2392.005127	142.371201
2391.285156	142.348267
2390.564941	142.325333
2389.844727	156.185547
2389.124268	128.398529
2388.403809	135.317184
2387.683105	121.418922
2386.962402	149.147781
2386.241455	104.039810
2385.520508	131.762527
2384.799316	156.009415
2384.078125	135.186356
2383.356689	121.301529
2382.635254	121.281967
2381.913818	135.120972
2381.192139	169.739990
2380.470215	100.442162
2379.748291	148.907471
2379.026367	135.033829
2378.304199	138.473892
2377.581787	114.222534
2376.859375	131.507751
2376.136963	121.106026
2375.414307	134.924942
2374.691650	114.148842
2373.968750	107.213425
2373.245850	110.654068
2372.522705	131.380493
2371.799316	131.359299
2371.076172	131.338089
2370.352783	114.038361
2369.629150	193.488403
2368.905518	152.002060
2368.181641	93.258934
2367.457764	148.499512
2366.733643	141.569702
2366.009521	124.285034
2365.285400	103.554138
2364.561035	127.696144
2363.836426	120.774147
2363.111816	117.304504
2362.387207	127.634285
2361.662354	169.001892
2360.937256	168.974594
2360.212158	144.811966
2359.487061	134.446533
2358.761719	120.637657
2358.036377	134.403107
2357.310791	110.261650
2356.584961	124.024315
2355.859375	158.449905
2355.133301	130.872253
2354.407471	137.737991
2353.681152	96.401016
2352.955078	127.366470
2352.228516	141.113007
2351.502197	137.648972
2350.775635	144.508057
2350.048828	182.325928
2349.322021	171.977783
2348.594971	130.681976
2347.867920	151.291504
2347.140869	113.450287
2346.413330	158.117249
2345.686035	134.034256
2344.958496	120.267693
2344.230713	140.862228
2343.502930	123.663902
2342.775146	109.905685
2342.047119	133.925888
2341.319092	154.504868
2340.590820	116.718132
2339.862305	144.157898
2339.133789	120.112137
2338.405273	133.817581
2337.676514	130.365265
2336.947754	150.924820
2336.218750	109.745743
2335.489746	140.588974
2334.760498	99.424889
2334.031250	147.399246
2333.301758	181.648743
2332.572266	137.071198
2331.842529	133.622772
2331.112793	119.898460
2330.382813	109.603699
2329.652832	150.680679
2328.922607	157.504303
2328.192383	157.478790
2327.462158	150.607498
2326.731689	157.427795
2326.000977	130.027985
2325.270264	136.849380
2324.539307	147.089264
2323.808350	140.225174
2323.077393	188.076477
2322.346191	143.598770
2321.614746	116.227783
2320.883301	126.462685
2320.151855	116.190117
2319.420166	105.920883
2318.688232	119.568710
2317.956299	181.031845
2317.224365	160.511658
2316.492188	143.412704
2315.760010	129.733307
2315.027588	157.020126
2314.295166	126.278328
2313.562500	126.257851
2312.829590	163.767410
2312.096924	146.684525
2311.363770	167.125031
2310.630615	194.379211
2309.897461	132.974731
2309.164063	177.270889
2308.430664	153.382629
2307.697021	136.317993
2306.963379	160.147659
2306.229492	136.273773
2305.495605	115.813911
2304.761719	129.418076
2304.027344	143.017822
2303.293213	153.208527
2302.558838	122.546928
2301.824219	146.351746
2301.089600	163.342880
2300.354736	136.096970
2299.619873	115.663651
2298.885010	136.052795
2298.149658	105.423798
2297.414551	149.609497
2296.679199	125.787552
2295.943604	132.565353
2295.208008	163.130875
2294.472412	142.716339
2293.736572	152.885529
2293.000488	166.448318
2292.264404	115.475998
2291.528320	125.644646
2290.791992	108.647987
2290.055420	169.734909
2289.318848	132.371719
2288.582275	145.924606
2287.845459	125.542633
2287.108398	122.129738
2286.371582	145.853485
2285.634277	118.698662
2284.896973	162.760284
2284.159668	159.343552
2283.422119	105.081856
2282.684570	176.237701
2281.946777	138.934052
2281.208740	159.239990
2280.470703	149.051498
2279.732666	179.510117
2278.994385	159.162338
2278.256104	128.663513
2277.517578	186.193237
2276.779053	132.006470
2276.040283	145.521927
2275.301514	135.347214
2274.562500	148.857727
2273.823486	169.128998
2273.084229	128.517136
2272.344971	169.073975
2271.605469	179.189270
2270.865967	148.736694
2270.126221	158.851990
2269.386475	148.688309
2268.646484	141.906662
2267.906494	162.152649
2267.166260	185.769669
2266.426025	168.854034
2265.685547	155.320435
2264.945068	165.423096
2264.204346	172.147034
2263.463623	182.243668
2262.722656	175.465332
2261.981689	195.679474
2261.240723	175.408203
2260.499268	172.006958
2259.758057	128.141190
2259.016602	178.694122
2258.274902	175.293991
2257.533203	148.301529
2256.791260	155.017258
2256.049316	175.208359
2255.307129	151.597931
2254.564941	161.678116
2253.822754	168.387268
2253.080322	141.422256
2252.337646	124.565979
2251.594971	164.938889
2250.852051	168.277557
2250.109131	181.710144
2249.366211	158.129364
2248.623047	137.920151
2247.879639	158.077820
2247.136230	137.875198
2246.392578	181.562134
2245.648926	174.809113
2244.905273	147.891281
2244.161377	198.276443
2243.417236	137.762863
2242.673096	174.695145
2241.928955	178.025635
2241.184570	171.279755
2240.439941	147.746674
2239.695313	191.367874
2238.950439	157.768829
2238.205566	177.880524
2237.460693	151.005997
2236.715576	147.626221
2235.970215	184.502670
2235.224854	184.472580
2234.479492	130.786484
2233.733887	140.824005
2232.988037	164.267868
2232.242188	144.129913
2231.496338	187.673447
2230.750244	197.695114
2230.003906	147.409576
2229.257568	174.182892
2228.511230	160.757965
2227.764648	164.080292
2227.017822	154.009415
2226.270996	164.026733
2225.523926	174.040756
2224.776855	157.280396
2224.029785	177.329773
2223.282471	197.372620
2222.534912	173.927109
2221.787354	173.898712
2221.039795	187.244949
2220.291992	187.214371
2219.543945	180.498657
2218.795898	190.495239
2218.047852	167.073792
2217.299561	153.682770
2216.551025	167.019196
2215.802490	220.429321
2215.053955	153.607452
2214.305176	166.937347
2213.556152	193.615677
2212.807129	163.545135
2212.058105	213.575058
2211.308838	190.184189
2210.559326	166.800964
2209.809814	160.102753
2209.060303	206.765579
2208.310547	183.391098
2207.560547	170.025757
2206.810547	206.664185
2206.060303	173.302917
2205.310059	143.284744
2204.559814	176.577896
2203.809326	163.224564
2203.058594	179.850708
2202.307861	203.131470
2201.557129	183.121368
2200.806152	176.433533
2200.054932	189.718231
2199.303711	193.015045
2198.552246	169.692352
2197.800781	169.664597
2197.049316	166.310623
2196.297607	192.888748
2195.545654	172.906433
2194.793701	202.799362
2194.041504	186.145996
2193.289307	219.350433
2192.537109	199.376846
2191.784668	202.666611
2191.031982	179.380417
2190.279297	182.672363
2189.526367	219.170944
2188.773438	202.533920
2188.020508	172.623596
2187.267090	202.467590
2186.513916	169.248459
2185.760498	165.902695
2185.006836	179.145569
2184.253174	205.651962
2183.499268	225.516815
2182.745361	208.900467
2181.991211	202.235565
2181.237061	188.943268
2180.482666	208.797806
2179.728271	208.763596
2178.973877	225.295212
2178.218994	208.695190
2177.464355	235.157608
2176.709229	211.938324
2175.954346	211.903580
2175.198975	201.937500
2174.443848	195.284576
2173.688232	175.396378
2172.932861	201.838211
2172.177002	191.880264
2171.421387	198.464279
2170.665283	221.582108
2169.909424	221.545776
2169.153076	185.142227
2168.396729	204.945282
2167.640381	194.996582
2166.883789	198.269089
2166.127197	181.716843
2165.370361	194.900650
2164.613525	194.868668
2163.856445	184.929749
2163.099365	194.804733
2162.342041	204.676468
2161.584473	171.635971
2160.826904	191.408707
2160.069336	181.478470
2159.311523	171.551483
2158.553711	178.120377
2157.795654	187.985092
2157.037354	214.333786
2156.279053	204.407898
2155.520752	197.781616
2154.762207	197.749146
2154.003662	233.964737
2153.244873	177.915787
2152.485840	224.005310
2151.726807	181.151016
2150.967773	197.586838
2150.208252	171.213806
2149.448975	171.185684
2148.689453	190.906509
2147.929688	174.420395
2147.169922	180.972565
2146.410156	187.522583
2145.650146	194.070419
2144.889893	197.327332
2144.129639	203.871399
2143.369141	167.673111
2142.608643	203.804398
2141.847900	190.624405
2141.087158	174.162628
2140.326416	183.990646
2139.565186	170.820374
2138.804199	190.499100
2138.042725	203.603500
2137.281494	190.436478
2136.519775	203.536545
2135.758301	180.526932
2134.996338	233.005539
2134.234619	190.311249
2133.472412	226.367538
2132.710449	200.089111
2131.947998	170.539703
2131.185547	222.976791
2130.423096	157.369492
2129.660400	186.845520
2128.897705	203.202057
2128.134766	216.276276
2127.371826	219.517059
2126.608643	216.205109
2125.845215	206.343643
2125.081787	180.111633
2124.318359	180.081985
2123.554688	229.157547
2122.790771	229.119827
2122.026855	186.538284
2121.262939	199.595840
2120.498779	222.463654
2119.734375	225.698013
2118.969971	219.119949
2118.205322	225.623703
2117.440674	251.741501
2116.676025	222.280563
2115.911133	199.365906
2115.145996	218.939606
2114.380859	189.498596
2113.615479	212.334137
2112.850098	222.097580
2112.084473	202.467377
2111.318848	199.168961
2110.552979	218.723312
2109.787109	235.007217
2109.020996	199.070526
2108.254883	195.774811
2107.488525	208.792053
2106.722168	205.495804
2105.955566	202.200638
2105.188965	202.167313
2104.422119	185.832855
2103.655029	208.620041
2102.887939	234.658859
2102.120850	211.809891
2101.353516	205.258804
2100.585938	166.134491
2099.818359	192.163116
2099.050781	263.773651
2098.282959	224.659027
2097.514893	227.877365
2096.746826	244.114059
2095.978760	201.767670
2095.210449	191.973053
2094.441895	211.460846
2093.673340	227.689499
2092.904541	217.895416
2092.135742	195.098038
2091.366699	237.330109
2090.597656	240.541504
2089.828369	230.751740
2089.059082	211.216736
2088.289551	201.435013
2087.520020	211.147018
2086.750244	217.607925
2085.980469	204.582626
2085.210449	211.042465
2084.440186	178.544922
2083.670166	227.201477
2082.899658	197.957169
2082.129150	210.903137
2081.358643	194.647659
2080.587891	217.320663
2079.816895	191.340332
2079.045898	201.036285
2078.274902	191.277130
2077.503662	188.004089
2076.732178	200.936676
2075.960693	226.826523
2075.188965	220.309357
2074.417236	207.315735
2073.645264	204.042694
2072.873291	216.961929
2072.101074	229.876892
2071.328857	226.601730
2070.556396	210.381119
2069.783936	239.471237
2069.011230	200.604889
2068.238525	207.041794
2067.465576	216.711044
2066.692627	203.739380
2065.919434	177.838318
2065.145996	213.370697
2064.372559	235.961899
2063.599121	203.604675
2062.825439	216.496140
2062.051514	229.383347
2061.277588	229.345413
2060.503662	251.915253
2059.729248	167.915726
2058.955078	258.289154
2058.180664	271.158752
2057.406006	232.383331
2056.631348	238.798904
2055.856445	219.400528
2055.081543	206.460449
2054.306396	219.327927
2053.531250	193.492615
2052.755859	228.928360
2051.980225	219.219040
2051.204590	199.843094
2050.428955	215.923737
2049.653076	264.221130
2048.877197	222.295593
2048.101074	222.258789
2047.324707	254.428085
2046.548340	186.764374
2045.771851	177.074814
2044.995239	244.644684
2044.218506	231.730270
2043.441528	225.255997
2042.664551	196.262009
2041.887329	238.048889
2041.110107	231.576767
2040.332642	247.617462
2039.555176	186.486145
2038.777466	237.891190
2037.999634	231.423340
2037.221802	253.880753
2036.443726	250.625534
2035.665527	202.394775
2034.887207	244.118317
2034.108765	208.750793
2033.330200	231.193314
2032.551514	234.365479
2031.772705	237.536591
2030.993774	224.659515
2030.214600	256.711182
2029.435425	253.460251
2028.656128	208.508667
2027.876587	211.681381
2027.097046	278.988281
2026.317261	189.167572
2025.537476	237.221664
2024.757446	224.361649
2023.977295	243.552246
2023.197021	237.103638
2022.416626	246.675018
2021.636230	237.024979
2020.855591	249.795685
2020.074707	294.581909
2019.293823	220.899780
2018.512817	233.666779
2017.731689	252.830307
2016.950439	265.587738
2016.168945	284.739594
2015.387451	252.704437
2014.605713	255.860748
2013.823975	233.434174
2013.041992	246.184204
2012.260010	258.929993
2011.477783	249.298599
2010.695435	271.626434
2009.912964	230.045364
2009.130371	242.785339
2008.347656	239.550995
2007.564819	290.606934
2006.781860	220.313721
2005.998779	239.431656
2005.215576	233.008102
2004.432129	239.352112
2003.648682	216.976532
2002.864990	274.365906
2002.081299	220.094193
2001.297363	248.760803
2000.513428	283.795288
1999.729248	239.113571
1998.944946	267.762695
1998.160522	239.034103
1997.375977	280.420074
1996.591309	258.071014
1995.806519	264.399170
1995.021606	251.615204
1994.236572	242.019958
1993.451416	254.715485
1992.666016	238.756058
1991.880615	289.642517
1991.094971	273.682556
1990.309326	260.909760
1989.523438	232.234680
1988.737549	260.822968
1987.951416	209.895752
1987.165161	279.814453
1986.378784	276.588715
1985.592285	228.862930
1984.805664	219.290482
1984.018921	289.161041
1983.232056	250.988159
1982.444946	285.888275
1981.657837	273.136688
1980.870605	244.511902
1980.083130	247.646164
1979.295654	225.383972
1978.507935	247.563721
1977.720093	279.256165
1976.932129	244.308456
1976.144165	272.818573
1975.355957	279.116699
1974.567627	263.213959
1973.779053	269.511566
1972.990479	244.105118
1972.201782	253.573456
1971.412964	250.362091
1970.623901	237.645935
1969.834839	256.614868
1969.045532	294.582794
1968.256226	253.362335
1967.466675	256.486633
1966.677002	272.273743
1965.887207	256.401154
1965.097290	291.172546
1964.307251	303.781586
1963.517090	275.256165
1962.726807	259.393616
1961.936401	272.001617
1961.145874	259.307129
1960.355103	271.910919
1959.564331	249.737000
1958.773315	300.266571
1957.982178	297.056335
1957.191040	290.687500
1956.399658	281.161682
1955.608154	281.114777
1954.816528	300.016296
1954.024780	246.288086
1953.232910	290.445190
1952.440918	299.866211
1951.648682	280.880432
1950.856445	296.610718
1950.063965	252.392548
1949.271484	309.129272
1948.478760	290.154572
1947.685913	268.032867
1946.893066	296.363342
1946.099976	337.293457
1945.306763	274.202179
1944.513428	280.458862
1943.719971	248.905075
1942.926270	274.064911
1942.132568	251.971634
1941.338745	264.526031
1940.544678	324.305145
1939.750610	267.585785
1938.956299	273.836182
1938.161865	276.937469
1937.367310	295.770172
1936.572632	314.596558
1935.777832	289.380493
1934.982910	270.462677
1934.187866	276.706268
1933.392700	301.810944
1932.597290	264.040466
1931.801880	336.281067
1931.006226	348.794037
1930.210571	285.900482
1929.414673	276.428986
1928.618652	292.086365
1927.822510	276.336609
1927.026245	326.525024
1926.229858	310.774750
1925.433350	320.138641
1924.636719	307.532776
1923.839844	266.693024
1923.042969	313.704041
1922.245850	307.378540
1921.448730	313.599121
1920.651367	285.327484
1919.853882	316.629211
1919.056274	347.920441
1918.258545	294.586029
1917.460693	307.070251
1916.662720	310.151733
1915.864624	306.967529
1915.066284	357.024933
1914.267944	278.683350
1913.469360	347.513214
1912.670776	313.022583
1911.871948	341.137512
1911.072998	322.305359
1910.273926	300.350830
1909.474731	315.941223
1908.675415	328.398773
1907.875977	268.929199
1907.076294	281.390442
1906.276611	340.738037
1905.476807	340.680969
1904.676758	334.373962
1903.876587	331.193512
1903.076294	274.907043
1902.275879	327.959167
1901.475342	327.904236
1900.674683	302.870331
1899.873901	377.744019
1899.072998	355.831451
1898.271851	299.597351
1897.470703	321.389130
1896.669312	330.694580
1895.867920	299.446777
1895.066284	333.702484
1894.264526	330.528381
1893.462646	327.355316
1892.660645	327.300446
1891.858521	305.429230
1891.056152	311.610229
1890.253784	345.829376
1889.451172	311.505768
1888.648560	383.087860
1887.845703	336.313446
1887.042725	367.391968
1886.239624	354.878479
1885.436401	333.031860
1884.633057	308.080597
1883.829590	314.251740
1883.025879	351.529602
1882.222168	345.249939
1881.418213	342.082184
1880.614258	338.915466
1879.810059	320.205841
1879.005737	329.476959
1878.201294	363.606934
1877.396729	332.473633
1876.592041	403.872131
1875.787231	360.317749
1874.982178	329.200623
1874.177124	360.196808
1873.371826	366.345612
1872.566406	360.075897
1871.760986	304.151001
1870.955322	322.718292
1870.149536	325.766663
1869.343506	310.201874
1868.537476	350.469269
1867.731323	365.915283
1866.924927	421.662048
1866.118530	347.192780
1865.311890	309.941498
1864.505127	381.164001
1863.698242	343.919495
1862.891235	328.372467
1862.084106	377.874634
1861.276855	377.811157
1860.469482	356.073608
1859.661865	365.301117
1858.854126	343.572968
1858.046387	349.704681
1857.238403	331.080658
1856.430298	371.243011
1855.622070	334.062531
1854.813721	380.396179
1854.005249	398.885010
1853.196533	386.451508
1852.387817	367.839996
1851.578857	373.959290
1850.769775	342.995880
1849.960693	407.818390
1849.151367	339.791534
1848.341919	389.150299
1847.532227	352.029144
1846.722534	364.319763
1845.912720	354.997650
1845.102661	354.937958
1844.292603	385.737213
1843.482300	394.928467
1842.671875	364.013428
1841.861328	400.964264
1841.050659	357.723297
1840.239868	394.662720
1839.428833	403.844666
1838.617798	360.624969
1837.806519	416.035706
1836.995117	391.315857
1836.183716	366.604340
1835.372070	366.542603
1834.560303	397.277618
1833.748291	366.419189
1832.936279	347.885712
1832.124146	372.452057
1831.311768	387.777313
1830.499390	356.941223
1829.686768	338.421722
1828.874023	406.037689
1828.061157	381.365082
1827.248169	381.300842
1826.434937	381.236603
1825.621704	344.284729
1824.808228	390.328522
1823.994751	381.043945
1823.181030	377.907318
1822.367188	411.634552
1821.553223	411.565186
1820.739136	439.133606
1819.924927	340.808472
1819.110474	377.588989
1818.296021	383.663971
1817.481323	420.424805
1816.666626	386.602905
1815.851685	423.350830
1815.036621	414.077728
1814.221436	383.340637
1813.406006	429.269135
1812.590576	392.408447
1811.774902	383.146729
1810.959229	349.370880
1810.143311	343.183685
1809.327271	407.461884
1808.511108	410.456238
1807.694824	419.574768
1806.878418	355.200439
1806.061768	401.063873
1805.245117	391.813080
1804.428223	397.867981
1803.611206	382.500824
1802.794067	400.793213
1801.976807	308.956360
1801.159424	409.833282
1800.341919	428.111755
1799.524170	415.809784
1798.706421	427.967224
1797.888428	397.331024
1797.070313	412.543335
1796.252075	427.750488
1795.433716	397.129791
1794.615234	400.117065
1793.796509	445.856689
1792.977783	396.928619
1792.158813	387.703217
1791.339844	430.369446
1790.520630	387.572266
1789.701294	442.428986
1788.881714	417.948486
1788.062134	439.229309
1787.242432	393.409760
1786.422485	420.785828
1785.602417	393.276794
1784.782349	393.210327
1783.962036	448.001160
1783.141479	426.595673
1782.320923	426.523560
1781.500244	414.267120
1780.679321	453.789459
1779.858398	468.937988
1779.037231	380.567108
1778.215942	429.207123
1777.394531	426.091034
1776.572998	416.890015
1775.751221	432.031891
1774.929443	404.581146
1774.107422	441.010101
1773.285278	416.608002
1772.463013	431.739655
1771.640625	413.427155
1770.818115	413.357208
1769.995483	407.209534
1769.172607	428.409149
1768.349731	431.374512
1767.526611	449.525513
1766.703369	425.154877
1765.880005	391.683533
1765.056519	409.832001
1764.232910	385.480377
1763.409058	406.658478
1762.585083	446.034912
1761.761108	470.229279
1760.936890	476.216095
1760.112549	457.939209
1759.288086	430.571899
1758.463379	475.974213
1757.638672	424.363708
1756.813721	439.445129
1755.988647	451.491272
1755.163574	469.592560
1754.338257	502.833282
1753.512695	411.890015
1752.687134	402.735931
1751.861328	429.915894
1751.035522	432.870117
1750.209473	447.929504
1749.383301	435.749451
1748.557007	429.624542
1747.730591	408.376648
1746.903931	417.380920
1746.077271	396.142242
1745.250366	453.521088
1744.423340	486.696777
1743.596313	423.142853
1742.768921	468.400146
1741.941528	419.977936
1741.114014	441.053101
1740.286255	450.039490
1739.458374	437.883606
1738.630493	437.809326
1737.802368	437.735077
1736.973999	431.624115
1736.145630	482.854156
1735.317139	437.512329
1734.488403	467.606232
1733.659546	452.445374
1732.830566	473.479156
1732.001465	461.337677
1731.172241	452.215088
1730.342896	461.181091
1729.513306	440.006622
1728.683594	427.878998
1727.853882	503.124390
1727.023926	469.904663
1726.193726	448.742981
1725.363525	418.554932
1724.533203	466.654663
1723.702637	484.636414
1722.871948	490.573425
1722.041138	463.407806
1721.210205	490.406799
1720.379150	472.274780
1719.547974	514.301086
1718.716553	460.085938
1717.885010	475.040710
1717.053467	453.917480
1716.221558	444.823639
1715.389648	477.803650
1714.557617	489.740631
1713.725342	465.625153
1712.893066	465.546021
1712.060547	468.469910
1711.227905	516.430298
1710.395142	429.284760
1709.562256	468.231049
1708.729126	510.165039
1707.895874	489.075073
1707.062622	491.991852
1706.229126	467.912659
1705.395508	467.833099
1704.561646	452.761444
1703.727783	533.627991
1702.893677	473.589233
1702.059570	461.521118
1701.225220	482.417267
1700.390747	503.306305
1699.556030	533.174316
1698.721313	485.165955
1697.886353	497.060760
1697.051392	523.920654
1696.216187	499.884949
1695.380859	499.799866
1694.545410	478.768677
1693.709717	520.572327
1692.874023	481.596985
1692.038086	505.441223
1691.202026	478.442749
1690.365845	475.371552
1689.529541	436.430359
1688.692993	531.995728
1687.856445	493.058136
1687.019653	537.790039
1686.182739	519.775146
1685.345703	489.819580
1684.508545	537.515259
1683.671143	462.781525
1682.833740	489.569305
1681.996094	495.455231
1681.158325	525.212463
1680.320435	498.270081
1679.482422	516.084045
1678.644287	507.048187
1677.805908	477.140503
1676.967407	494.948883
1676.128784	444.185638
1675.290039	533.528015
1674.451172	536.417175
1673.612183	530.366577
1672.772949	566.025085
1671.933594	545.078613
1671.094116	553.919861
1670.254517	521.072266
1669.414795	541.822754
1668.574829	422.668732
1667.734863	523.781738
1666.894653	502.863739
1666.054321	446.252625
1665.213867	496.743195
1664.373169	505.580444
1663.532471	508.467682
1662.691528	526.218872
1661.850464	532.074036
1661.009277	517.123352
1660.167969	540.806885
1659.326538	496.150177
1658.484863	507.947296
1657.643066	501.920715
1656.801147	528.559998
1655.959106	522.531860
1655.116943	564.000610
1654.274658	531.257263
1653.432129	456.981262
1652.589478	545.910339
1651.746704	516.153137
1650.903809	495.303772
1650.060791	563.423035
1649.217529	551.467285
1648.374146	498.014404
1647.530640	589.809143
1646.687012	551.184753
1645.843262	533.313477
1644.999390	530.260010
1644.155273	544.978577
1643.311035	482.697449
1642.466675	506.301575
1641.622192	535.818298
1640.777588	503.168732
1639.932739	550.431702
1639.087769	500.037933
1638.242798	567.993347
1637.397461	553.107239
1636.552124	499.781525
1635.706665	544.047791
1634.860962	529.173401
1634.015137	526.127136
1633.169189	558.545105
1632.323120	520.037659
1631.476929	502.223206
1630.630493	525.767273
1629.783936	555.209778
1628.937256	534.445679
1628.090454	534.354248
1627.243530	528.359375
1626.396484	537.122620
1625.549194	548.833557
1624.701782	584.142212
1623.854248	560.444580
1623.006592	554.450256
1622.158691	507.176208
1621.310791	563.105042
1620.462646	586.590210
1619.614380	548.176392
1618.765991	515.669067
1617.917358	550.934875
1617.068726	559.677551
1616.219849	562.526855
1615.370850	559.485901
1614.521729	535.836792
1613.672363	532.801392
1612.822998	585.686829
1611.973389	535.561523
1611.123657	579.601929
1610.273804	532.436401
1609.423828	526.462952
1608.573608	538.135254
1607.723389	511.581909
1606.872925	537.950867
1606.022339	581.945435
1605.171509	614.170471
1604.320679	578.807861
1603.469604	613.959961
1602.618408	640.288635
1601.767090	563.827271
1600.915649	569.602783
1600.064087	607.667847
1599.212280	598.758423
1598.360352	598.655701
1597.508301	601.487122
1596.656128	592.583252
1595.803833	554.351624
1594.951294	612.908020
1594.098633	568.821838
1593.245850	603.903076
1592.392944	565.695618
1591.539795	603.695862
1590.686646	624.102722
1589.833252	603.488770
1588.979736	609.243286
1588.126099	568.139038
1587.272217	570.969543
1586.418335	585.509338
1585.564209	573.700623
1584.709961	582.381775
1583.855591	588.133911
1583.000977	596.809509
1582.146362	576.231812
1581.291504	581.981934
1580.436523	596.502197
1579.581421	590.552673
1578.726074	590.451294
1577.870605	634.187744
1577.015137	625.312744
1576.159424	566.774963
1575.303467	575.440613
1574.447510	537.375061
1573.591309	586.922974
1572.734985	613.097778
1571.878540	615.911438
1571.021973	577.864990
1570.165161	647.797852
1569.308350	641.851563
1568.451294	618.405151
1567.594116	641.630920
1566.736694	571.536560
1565.879272	580.184814
1565.021606	606.320068
1564.163818	626.617371
1563.305908	620.681580
1562.447876	594.353394
1561.589600	623.381165
1560.731201	626.186462
1559.872681	620.254761
1559.014038	637.617065
1558.155273	561.821594
1557.296265	602.471802
1556.437134	608.188171
1555.577881	637.178467
1554.718506	584.706970
1553.859009	587.514893
1552.999268	648.481567
1552.139404	645.462463
1551.279419	656.979370
1550.419312	592.923523
1549.558960	682.907104
1548.698608	650.829224
1547.838013	633.287231
1546.977173	618.655762
1546.116333	691.148987
1545.255249	696.836914
1544.394165	670.590088
1543.532837	664.669617
1542.671265	650.045227
1541.809692	684.751099
1540.947876	684.633179
1540.085938	710.619629
1539.223877	695.997314
1538.361694	800.259033
1537.499268	771.131226
1536.636841	710.130127
1535.774170	791.151489
1534.911377	843.169983
1534.048340	912.552551
1533.185303	825.500488
1532.322021	839.838196
1531.458618	886.021362
1530.594971	810.598755
1529.731323	804.669983
1528.867432	772.697327
1528.003418	726.268127
1527.139282	697.212891
1526.275024	699.985168
1525.410522	760.596558
1524.545898	708.418335
1523.681152	699.623108
1522.816284	699.502441
1521.951172	713.831848
1521.086060	679.034607
1520.220703	626.915283
1519.355225	673.023315
1518.489502	684.459229
1517.623779	626.590820
1516.757813	666.900940
1515.891724	652.353271
1515.025513	646.468689
1514.159058	655.013672
1513.292480	643.360535
1512.425781	637.480408
1511.558960	654.674561
1510.692017	643.027405
1509.824829	683.278809
1508.957520	691.808472
1508.090088	680.160889
1507.222534	616.649536
1506.354736	648.234497
1505.486938	665.405823
1504.618896	699.851501
1503.750610	647.898682
1502.882324	624.754333
1502.013794	641.917786
1501.145142	670.587463
1500.276367	641.695984
1499.407471	647.339233
1498.538330	701.882141
1497.669067	681.628357
1496.799683	644.128113
1495.930176	690.018005
1495.060547	669.776672
1494.190674	672.534973
1493.320679	681.039490
1492.450562	672.302490
1491.580200	686.549194
1490.709717	677.814209
1489.839233	686.311829
1488.968384	709.161926
1488.097534	711.909912
1487.226440	688.825928
1486.355347	703.054871
1485.483887	705.802368
1484.612427	720.023376
1483.740845	777.261292
1482.869019	685.362732
1481.997070	719.649719
1481.124878	776.857910
1480.252686	727.999146
1479.380249	796.648560
1478.507690	764.994080
1477.635010	773.455627
1476.762207	796.234985
1475.889160	827.597412
1475.015991	715.790771
1474.142700	850.212280
1473.269165	847.202881
1472.395630	950.076538
1471.521851	964.217957
1470.647949	966.911682
1469.773804	986.765564
1468.899658	1069.525757
1468.025269	1103.650879
1467.150757	1109.177124
1466.276001	1234.746216
1465.401245	1194.524292
1464.526245	1257.176147
1463.651123	1288.382324
1462.775879	1319.577637
1461.900391	1336.483398
1461.024780	1399.067017
1460.149048	1390.260254
1459.273193	1472.792603
1458.397217	1441.145996
1457.520996	1438.042969
1456.644653	1383.591064
1455.768188	1366.237671
1454.891479	1411.629150
1454.014648	1402.830566
1453.137695	1334.168457
1452.260620	1231.326538
1451.383423	1422.049438
1450.505981	1270.789673
1449.628418	1341.789551
1448.750732	1293.135498
1447.872803	1292.911133
1446.994873	1289.839478
1446.116699	1400.642212
1445.238403	1454.479736
1444.359863	1496.915039
1443.481201	1499.500610
1442.602417	1541.913208
1441.723511	1720.840576
1440.844482	1848.516113
1439.965210	2027.328003
1439.085815	2035.504761
1438.206299	2165.901367
1437.326538	2162.683350
1436.446777	1971.933960
1435.566772	1877.841553
1434.686646	1786.622070
1433.806274	1675.554810
1432.925781	1467.985474
1432.045166	1376.884521
1431.164429	1368.130005
1430.283569	1197.615356
1429.402466	1217.269409
1428.521240	1146.133911
1427.639893	1100.551147
1426.758301	1128.719727
1425.876709	1023.610657
1424.994873	1040.442749
1424.112793	1011.916870
1423.230713	1085.425293
1422.348389	1085.236572
1421.465942	1175.704712
1420.583374	1220.820801
1419.700562	1240.432861
1418.817627	1339.321289
1417.934570	1579.728027
1417.051392	1749.286987
1416.167969	2145.192627
1415.284546	2365.526611
1414.400757	2418.867676
1413.516968	2161.045166
1412.633057	1674.235840
1411.748901	1368.562744
1410.864624	1167.599365
1409.980103	1071.291016
1409.095459	926.971802
1408.210815	867.472046
1407.325806	796.692322
1406.440796	830.449585
1405.555542	734.283386
1404.670166	708.742493
1403.784668	691.680054
1402.899048	716.963867
1402.013184	697.083679
1401.127197	694.140564
1400.241089	688.377319
1399.354736	708.002563
1398.468262	705.059021
1397.581665	659.820313
1396.694946	645.609131
1395.807983	679.321838
1394.920898	667.930420
1394.033691	687.538574
1393.146362	712.774414
1392.258789	726.734253
1391.371094	670.281433
1390.483276	681.427917
1389.595337	658.786560
1388.707153	681.190491
1387.818848	678.257446
1386.930420	652.814514
1386.041748	649.887390
1385.152954	703.218689
1384.264038	652.473206
1383.375000	674.854614
1382.485718	680.359741
1381.596313	674.619324
1380.706787	725.089294
1379.817139	688.433716
1378.927246	674.266479
1378.037231	646.059326
1377.147095	693.690552
1376.256714	730.073181
1375.366333	732.753357
1374.475586	707.362549
1373.584839	726.884705
1372.693970	684.667664
1371.802856	754.686340
1370.911499	833.095642
1370.020142	774.054749
1369.128540	799.156189
1368.236816	815.838135
1367.344971	793.271118
1366.453003	801.540405
1365.560791	787.389954
1364.668457	750.831604
1363.775879	703.081421
1362.883301	747.768799
1361.990479	739.237793
1361.097534	680.315979
1360.204346	719.385437
1359.311035	708.065125
1358.417603	682.757751
1357.524048	696.627014
1356.630249	688.113647
1355.736450	674.009827
1354.842285	668.299622
1353.948120	676.570068
1353.053711	721.175964
1352.159180	651.180786
1351.264526	690.186890
1350.369751	673.303528
1349.474731	656.426025
1348.579590	754.059753
1347.684204	709.250732
1346.788818	664.457336
1345.893188	664.341187
1344.997314	770.277771
1344.101440	711.545227
1343.205322	691.891602
1342.309082	767.084351
1341.412720	741.849976
1340.516113	738.931824
1339.619385	749.954346
1338.722534	733.098450
1337.825439	758.052856
1336.928223	805.290222
1336.030884	788.433411
1335.133423	774.367981
1334.235718	763.092468
1333.337891	762.958923
1332.439941	709.928711
1331.541870	796.094421
1330.643555	754.209229
1329.745117	737.381775
1328.846436	776.201843
1327.947754	681.491638
1327.048828	803.741211
1326.149780	806.381104
1325.250488	775.658386
1324.351074	811.658020
1323.451538	783.724243
1322.551880	708.562683
1321.651978	761.224182
1320.751953	772.201660
1319.851807	819.279114
1318.951416	735.833618
1318.050903	752.362183
1317.150269	727.248535
1316.249512	782.626526
1315.348511	760.291138
1314.447388	812.869568
1313.546021	768.346069
1312.644653	845.864563
1311.743042	873.444702
1310.841309	831.706299
1309.939331	884.225952
1309.037231	836.957458
1308.135010	931.021179
1307.232666	892.072144
1306.330078	939.004456
1305.427368	958.225830
1304.524536	971.902588
1303.621460	966.195190
1302.718262	982.633606
1301.814941	1051.648560
1300.911499	1095.736328
1300.007813	1161.940674
1299.104004	1175.567017
1298.199951	1355.121826
1297.295898	1647.981323
1296.391602	2327.779785
1295.487061	3289.277588
1294.582520	4178.583984
1293.677734	4374.032715
1292.772827	4102.525879
1291.867676	3148.860840
1290.962402	2341.899414
1290.057007	1579.400024
1289.151489	1280.966675
1288.245728	1131.689941
1287.339844	968.666809
1286.433838	860.885925
1285.527588	857.975952
1284.621216	780.593445
1283.714722	766.667297
1282.808105	777.561890
1281.901245	744.343323
1280.994263	722.161804
1280.087036	705.499756
1279.179810	705.375793
1278.272217	650.154053
1277.364624	669.320618
1276.456787	682.972595
1275.548828	729.661011
1274.640747	743.297485
1273.732544	682.612488
1272.824097	685.244507
1271.915405	671.366516
1271.006714	687.754578
1270.097778	734.392700
1269.188721	640.761841
1268.279541	684.642212
1267.370117	640.536438
1266.460571	673.406982
1265.550781	689.777222
1264.640991	620.965088
1263.730957	736.236145
1262.820679	722.373230
1261.910400	672.814880
1260.999878	664.459351
1260.089233	667.087646
1259.178345	658.736023
1258.267334	620.200623
1257.356201	642.041565
1256.444824	663.874817
1255.533447	611.644714
1254.621704	619.764038
1253.709961	669.007935
1252.797974	597.614990
1251.885864	638.622803
1250.973633	572.741028
1250.061157	575.380066
1249.148560	605.412354
1248.235840	542.310120
1247.322876	621.629883
1246.409790	585.926697
1245.496582	610.460876
1244.583130	632.249451
1243.669556	599.299683
1242.755859	580.041748
1241.841919	601.824036
1240.927856	563.426819
1240.013672	596.142761
1239.099365	604.240051
1238.184814	557.661682
1237.270142	549.363953
1236.355225	592.989868
1235.440186	557.366821
1234.525024	568.195374
1233.609741	557.170288
1232.694214	652.648132
1231.778564	565.164551
1230.862671	570.524475
1229.946777	592.258240
1229.030640	559.407959
1228.114258	537.482544
1227.197876	572.849854
1226.281128	572.748779
1225.364380	553.559509
1224.447388	561.641052
1223.530273	591.527161
1222.613037	588.697327
1221.695557	583.143494
1220.777954	599.387512
1219.860229	514.837463
1218.942261	574.664185
1218.024170	596.347107
1217.105957	571.738708
1216.187500	571.637756
1215.268921	549.763977
1214.350220	565.993652
1213.431274	612.144592
1212.512207	576.674377
1211.593018	636.405518
1210.673706	557.436279
1209.754150	546.462952
1208.834351	592.576477
1207.914551	616.931641
1206.994507	576.063416
1206.074219	592.262451
1205.153931	619.320984
1204.233398	589.337280
1203.312744	605.525269
1202.391846	542.976013
1201.470825	572.738464
1200.549683	564.495422
1199.628296	564.395630
1198.706787	556.156982
1197.785156	572.333496
1196.863281	574.944336
1195.941284	566.708069
1195.019165	572.029968
1194.096802	596.323853
1193.174438	558.277222
1192.251709	566.307251
1191.328979	571.625305
1190.406006	625.697144
1189.482788	612.045593
1188.559570	606.521912
1187.636108	609.121826
1186.712402	595.480347
1185.788696	592.668762
1184.864746	589.858093
1183.940552	570.816650
1183.016357	573.420410
1182.091919	611.179565
1181.167236	567.809692
1180.242554	613.666565
1179.317505	610.854980
1178.392456	575.615356
1177.467163	613.340637
1176.541748	607.829102
1175.616211	618.525391
1174.690430	661.623901
1173.764526	629.106384
1172.838501	645.192200
1171.912231	677.466797
1170.985840	715.127014
1170.059204	698.811646
1169.132446	714.873657
1168.205566	822.633301
1167.278564	757.767151
1166.351318	717.189819
1165.423828	679.322571
1164.496338	633.382935
1163.568604	635.965454
1162.640747	665.489929
1161.712646	633.046143
1160.784424	659.867249
1159.856079	562.807373
1158.927490	646.171387
1157.998779	613.753906
1157.069946	613.645081
1156.140869	610.845276
1155.211670	618.808350
1154.282349	667.118469
1153.352783	589.004150
1152.423096	618.479065
1151.493164	639.877808
1150.563232	623.635742
1149.632935	599.336609
1148.702637	647.598633
1147.772095	650.170349
1146.841431	628.565491
1145.910522	668.739441
1144.979492	641.768494
1144.048340	684.610535
1143.116943	687.173218
1142.185425	660.213257
1141.253784	700.345825
1140.321899	686.807251
1139.389893	753.744385
1138.457764	777.747498
1137.525391	807.104858
1136.592896	873.984863
1135.660278	897.953735
1134.727417	1039.833252
1133.794434	1203.098511
1132.861206	1460.071655
1131.927856	1708.917725
1130.994385	2337.962402
1130.060669	2832.903320
1129.126831	3375.856689
1128.192871	3688.424805
1127.258667	3380.009033
1126.324341	2959.323242
1125.389893	2354.196777
1124.455200	1915.119385
1123.520386	1484.221069
1122.585327	1307.486572
1121.650146	1189.627930
1120.714844	1042.409790
1119.779297	991.449402
1118.843628	889.741028
1117.907837	870.882813
1116.971802	817.309021
1116.035645	758.413269
1115.099365	736.918396
1114.162842	691.405457
1113.226196	731.318054
1112.289307	661.805115
1111.352417	693.704468
1110.415161	688.245789
1109.477905	704.126160
1108.540405	680.000732
1107.602661	658.550171
1106.664917	677.092957
1105.726807	644.989441
1104.788696	679.516602
1103.850342	623.445374
1102.911865	639.317261
1101.973145	668.500244
1101.034302	673.706909
1100.095337	684.236511
1099.156128	697.424255
1098.216797	681.331299
1097.277344	675.888000
1096.337646	667.786011
1095.397827	691.607300
1094.457764	688.824524
1093.517700	672.747253
1092.577271	693.896240
1091.636841	688.456299
1090.696167	680.360596
1089.755249	704.153931
1088.814209	746.535828
1087.873047	719.840332
1086.931763	732.990784
1085.990234	708.962463
1085.048584	785.825745
1084.106689	777.722595
1083.164673	772.276123
1082.222412	819.899536
1081.280151	787.918213
1080.337524	737.381104
1079.394897	750.509399
1078.452026	760.981506
1077.509033	779.402954
1076.565796	819.022217
1075.622437	826.826355
1074.678955	752.489685
1073.735229	739.109680
1072.791382	728.383057
1071.847290	746.790405
1070.903076	773.134277
1069.958740	770.348999
1069.014160	849.614746
1068.069458	936.791016
1067.124512	971.019470
1066.179565	1156.021118
1065.234253	1457.331543
1064.288940	1792.911621
1063.343384	2210.333984
1062.397583	2429.346924
1061.451660	2555.776611
1060.505615	2431.121338
1059.559448	2177.050049
1058.613037	1878.162720
1057.666382	1494.866577
1056.719727	1336.161377
1055.772827	1058.705444
1054.825684	884.296570
1053.878418	852.467896
1052.931030	831.205505
1051.983398	749.270325
1051.035645	743.860779
1050.087769	701.530457
1049.139648	611.751770
1048.191406	664.370117
1047.242920	648.435852
1046.294312	669.403442
1045.345581	627.124084
1044.396606	640.184448
1043.447510	640.069946
1042.498291	626.787598
1041.548828	624.042358
1040.599121	602.869751
1039.649414	639.611938
1038.699341	568.442200
1037.749268	644.645447
1036.798950	626.114929
1035.848511	599.700256
1034.897827	557.516174
1033.947021	575.821655
1032.996094	602.007080
1032.044922	549.331665
1031.093506	586.024048
1030.142090	554.389832
1029.190430	598.949036
1028.238525	588.335815
1027.286499	585.604370
1026.334351	564.495056
1025.381958	598.520081
1024.429443	593.163574
1023.476807	527.453613
1022.523926	553.595886
1021.570923	561.366333
1020.617737	566.511230
1019.664368	639.833191
1018.710815	571.551758
1017.757080	524.265442
1016.803223	579.209473
1015.849121	579.105652
1014.894897	597.341248
1013.940491	563.181335
1012.985962	584.032227
1012.031189	549.886841
1011.076294	555.024353
1010.121216	607.276184
1009.165955	622.869873
1008.210510	583.508667
1007.254944	541.545471
1006.299133	593.762146
1005.343201	572.733826
1004.387085	572.631104
1003.430786	551.614075
1002.474365	541.059814
1001.517700	551.416138
1000.560913	582.671692
999.603943	587.791931
998.646790	569.402832
997.689514	592.803894
996.731995	524.811401
995.774353	569.096252
994.816528	555.943726
993.858521	581.939880
992.900330	594.881042
991.942017	581.730896
990.983459	586.842834
990.024780	576.306519
989.065918	563.166748
988.106873	552.638428
987.147705	552.539185
986.188293	557.651611
985.228760	573.183655
984.269043	575.685608
983.309143	552.142151
982.349060	512.983276
981.388794	549.340210
980.428406	590.890137
979.467834	538.732422
978.507019	569.860840
977.546082	530.733887
976.585022	543.644287
975.623718	533.143738
974.662292	585.052551
973.700623	504.354584
972.738831	558.849182
971.776855	524.963867
970.814758	553.451416
969.852417	524.775024
968.889954	553.252319
967.927246	550.555847
966.964417	542.667297
966.001404	591.894165
965.038208	568.427612
964.074890	576.110596
963.111328	563.033813
962.147644	560.338318
961.183777	518.738342
960.219727	557.543396
959.255493	591.148865
958.291077	565.119507
957.326538	559.834106
956.361755	570.098755
955.396851	585.541443
954.431763	543.989197
953.466492	554.251038
952.501038	559.330200
951.535461	569.585571
950.569641	597.957092
949.603699	561.616089
948.637573	535.638611
947.671265	545.890747
946.704773	550.965820
945.738098	563.797668
944.771240	589.553650
943.804260	571.350342
942.837097	589.341187
941.869751	594.403625
940.902222	643.390564
939.934509	581.272217
938.966614	560.503662
937.998535	562.985107
937.030334	573.211731
936.061951	588.597778
935.093323	619.464844
934.124573	596.127380
933.155640	562.477600
932.186584	595.912354
931.217285	549.378479
930.247864	626.642700
929.278198	580.119995
928.308411	626.416565
927.338440	610.839233
926.368286	590.113708
925.397949	587.430725
924.427429	556.412903
923.456787	594.945251
922.485901	623.163452
921.514893	571.559143
920.543701	574.030090
919.572327	573.926453
918.600769	571.249634
917.629028	573.719177
916.657104	565.898743
915.685059	606.945435
914.712769	586.265076
913.740356	617.009644
912.767761	565.489990
911.794983	611.646851
910.822021	575.563599
909.848877	613.994873
908.875549	613.883911
907.902039	613.772949
906.928406	587.985840
905.954590	572.476563
904.980530	564.673035
904.006348	677.485168
903.031982	577.297729
902.057434	607.976990
901.082703	643.774841
900.107849	651.351563
899.132751	610.211182
898.157532	610.100830
897.182068	602.301514
896.206482	643.192932
895.230713	617.455994
894.254761	632.713867
893.278625	647.966187
892.302307	586.392944
891.325806	627.250122
890.349182	660.413208
889.372314	609.108154
888.395325	619.233215
887.418091	644.704651
886.440735	672.724731
885.463196	636.798950
884.485474	603.443176
883.507568	600.777405
882.529480	631.341125
881.551270	626.115662
880.572815	605.561340
879.594238	697.419067
878.615417	651.317383
877.636475	630.769653
876.657349	605.122803
875.677979	653.516296
874.698486	655.950256
873.718811	671.142639
872.739014	681.226685
871.758972	637.737122
870.778748	635.071106
869.798401	683.406433
868.817810	688.381714
867.837097	639.824036
866.856140	606.575745
865.875061	593.724915
864.893799	634.380737
863.912354	664.832703
862.930725	674.899292
861.948914	690.054932
860.966919	618.645508
859.984741	677.077637
859.002441	638.780640
858.019897	646.298218
857.037231	623.284851
856.054321	643.520203
855.071289	625.601807
854.088074	648.372009
853.104614	599.953064
852.121033	645.594971
851.137268	688.679077
850.153320	668.227783
849.169189	632.541931
848.184937	624.807495
847.200439	660.245728
846.215759	695.671143
845.230896	670.159973
844.245911	637.043945
843.260681	642.003418
842.275330	654.572327
841.289795	629.087036
840.304016	654.334595
839.318115	661.822876
838.332031	626.209045
837.345764	598.212524
836.359314	636.118896
835.372681	615.732300
834.385864	595.353088
833.398865	640.838074
832.411743	587.539185
831.424377	577.304260
830.436829	632.894043
829.449158	622.654541
828.461243	645.317200
827.473206	698.334045
826.484924	645.082581
825.496521	672.787354
824.507935	604.386963
823.519104	634.617310
822.530151	576.360291
821.541016	624.276794
820.551697	644.379028
819.562195	677.106506
818.572510	616.357971
817.582642	601.092224
816.592590	651.485657
815.602356	648.842407
814.611938	648.724365
813.621399	646.082520
812.630615	585.405701
811.639648	592.867676
810.648560	650.774536
809.657227	615.349182
808.665771	635.408875
807.674072	582.352051
806.682251	635.177490
805.690186	647.662231
804.697998	639.985413
803.705566	637.349731
802.713013	652.345886
801.720276	604.380310
800.727356	629.448120
799.734253	621.781433
798.740906	629.218811
797.747437	681.948914
796.753784	676.792725
795.759949	636.421387
794.765930	613.670044
793.771729	671.393555
792.777344	643.615845
791.782776	713.881165
790.788025	668.513306
789.793091	653.314941
788.798035	625.560608
787.802734	635.493835
786.807251	617.798340
785.811584	647.816711
784.815796	592.468445
783.819763	635.030396
782.823547	654.990906
781.827148	619.744202
780.830627	622.139771
779.833862	589.420044
778.836975	611.881958
777.839844	604.248535
776.842529	594.111084
775.845093	684.230896
774.847412	613.941284
773.849609	588.774963
772.851563	601.192322
771.853394	638.650269
770.854980	653.557983
769.856445	640.920654
768.857666	668.338196
767.858765	623.167847
766.859680	643.071838
765.860352	640.452637
764.860901	620.325134
763.861206	700.239197
762.861389	645.102539
761.861389	664.984192
760.861145	599.876099
759.860779	642.250000
758.860168	659.622620
757.859436	624.528503
756.858521	621.916687
755.857361	674.244202
754.856079	641.663330
753.854614	656.523743
752.852905	651.412048
751.851074	673.751343
750.848999	716.041809
749.846802	738.361023
748.844421	852.950317
747.841797	865.262085
746.839050	837.679810
745.836121	785.181152
744.832947	720.240784
743.829651	707.650391
742.826111	702.538391
741.822449	675.010864
740.818604	692.319885
739.814514	672.273987
738.810303	632.319763
737.805847	647.138000
736.801270	644.531006
735.796448	659.341553
734.791504	616.931213
733.786316	741.176758
732.781006	626.652161
731.775452	703.611511
730.769775	720.883301
729.763855	666.073608
728.757751	730.558838
727.751526	695.642883
726.745056	648.319824
725.738403	710.289246
724.731628	692.777649
723.724609	642.998291
722.717407	667.702148
721.710083	677.506653
720.702515	674.901245
719.694763	682.219971
718.686829	721.780457
717.678711	659.650879
716.670410	684.324341
715.661987	699.072754
714.653320	696.466064
713.644470	693.860291
712.635437	626.837402
711.626221	653.971252
710.616821	693.478699
709.607178	720.590332
708.597412	708.079163
707.587463	700.523193
706.577332	650.896851
705.567017	668.098511
704.556458	630.866150
703.545776	638.171021
702.534912	677.623169
701.523804	677.498779
700.512573	652.652771
699.501099	709.382446
698.489502	677.125854
697.477661	689.355591
696.465698	642.292297
695.453491	666.873413
694.441101	666.750916
693.428589	627.124634
692.415833	676.380249
691.402893	624.426208
690.389771	681.067139
689.376465	626.664063
688.362976	666.016602
687.349304	695.489502
686.335449	678.101013
685.321411	677.976440
684.307190	660.597412
683.292725	677.727295
682.278137	660.354675
681.263367	667.623962
680.248352	729.078857
679.233215	659.990601
678.217834	704.188904
677.202332	674.518494
676.186584	674.394470
675.170654	647.201233
674.154541	649.542603
673.138306	649.423157
672.121826	651.763184
671.105164	676.233643
670.088318	678.567810
669.071289	641.571106
668.054016	661.114502
667.036621	641.335083
666.019043	653.500916
665.001282	653.380676
663.983276	596.775513
662.965149	626.130676
661.946777	601.465820
660.928223	650.445313
659.909546	618.422852
658.890625	647.752258
657.871521	628.007751
656.852234	706.378662
655.832764	593.445007
654.813110	644.823547
653.793274	681.475037
652.773254	664.193237
651.752991	681.223999
650.732605	681.098572
649.711975	646.679443
648.691223	688.194885
647.670227	624.403442
646.649048	656.114868
645.627747	651.098511
644.606201	643.636658
643.584473	665.539551
642.562561	682.541565
641.540466	648.172668
640.518127	674.953552
639.495667	682.164185
638.473022	721.151733
637.450134	681.912720
636.427063	625.582275
635.403870	684.104431
634.380432	654.664917
633.356812	656.986511
632.333008	651.981567
631.309021	671.392761
630.284851	693.237671
629.260498	683.347717
628.235901	702.742249
627.211182	680.655945
626.186218	765.901489
625.161133	695.037109
624.135803	690.032288
623.110291	658.213135
622.084595	655.654297
621.058716	667.717896
620.032654	711.451172
619.006409	721.063965
617.979919	701.446167
616.953308	728.103088
615.926453	679.275024
614.899414	649.938843
613.872253	696.060608
612.844849	681.332092
611.817261	664.176025
610.789490	693.242493
609.761475	690.682434
608.733337	717.301697
607.705017	678.271851
606.676453	690.299622
605.647705	733.915344
604.618774	670.606628
603.589722	687.487671
602.560425	699.504761
601.530884	641.094177
600.501221	738.093201
599.471375	662.704529
598.441284	754.809509
597.411011	696.431763
596.380615	701.155273
595.349976	701.025574
594.319153	693.620178
593.288147	700.766235
592.256897	717.607056
591.225525	710.202576
590.193970	719.765015
589.162170	734.169861
588.130188	692.850586
587.098022	750.852905
586.065674	690.172485
585.033142	697.308350
584.000427	675.392456
582.967468	677.687744
581.934387	687.241699
580.901062	728.244568
579.867554	749.880432
578.833862	744.904541
577.799988	706.077454
576.765930	734.958191
575.731628	746.907898
574.697205	681.517883
573.662537	720.052124
572.627747	686.097046
571.592712	618.339111
570.557434	683.427917
569.522034	656.741821
568.486450	688.002747
567.450623	733.733582
566.414673	694.987183
565.378479	740.699707
564.342102	694.729553
563.305542	677.718079
562.268799	737.876465
561.231812	744.972412
560.194702	718.319153
559.157349	708.545837
558.119812	708.414429
557.082092	763.692932
556.044189	765.959961
555.006042	681.529785
553.967773	741.597961
552.929260	741.460388
551.890625	738.915894
550.851746	654.553223
549.812683	685.709717
548.773376	716.854675
547.733948	716.721619
546.694275	800.751648
545.654419	730.880859
544.614441	723.533875
543.574158	675.333130
542.533752	725.668091
541.493164	723.130920
540.452332	766.232300
539.411316	739.673157
538.370178	801.964111
537.328735	741.799072
536.287170	756.062439
535.245422	770.320496
534.203430	736.587097
533.161255	750.843384
532.118896	731.516602
531.076355	752.962341
530.033630	707.269470
528.990723	738.300049
527.947571	704.609985
526.904236	704.479004
525.860718	728.305481
524.817017	785.657166
523.773132	756.772888
522.729004	763.815369
521.684692	785.218994
520.640198	730.022156
519.595520	756.210144
518.550659	830.240845
517.505615	818.125549
516.460327	743.829529
515.414856	760.430176
514.369202	757.897888
513.323364	762.537659
512.277283	702.646912
511.231079	721.632202
510.184631	807.504272
509.138000	709.420532
508.091187	704.512146
507.044159	709.156433
505.996948	666.053223
504.949554	675.476624
503.901947	739.783630
502.854126	715.786316
501.806152	753.821167
500.757965	784.686646
499.709564	791.694336
