#Wave		#Intensity
3200.600830	16.839409
3200.007080	33.678818
3199.413086	12.627648
3198.819092	25.251478
3198.224854	25.247662
3197.630615	16.829231
3197.036377	12.620015
3196.442139	-8.412071
3195.847656	12.616199
3195.252930	29.433350
3194.658447	0.000000
3194.063721	29.424450
3193.468750	29.420000
3192.873779	29.415552
3192.278809	21.007931
3191.683838	29.406656
3191.088623	25.201893
3190.493164	41.996803
3189.897949	16.796181
3189.302490	62.976151
3188.706787	37.779976
3188.111328	20.985701
3187.515381	33.572041
3186.919678	4.195870
3186.323730	20.976177
3185.727783	12.583802
3185.131592	-4.193966
3184.535400	12.579994
3183.939209	29.348879
3183.342773	25.152374
3182.746338	20.957140
3182.149902	20.953968
3181.553223	41.901596
3180.956543	20.947626
3180.359619	25.133347
3179.762695	-4.188257
3179.165771	29.313362
3178.568604	8.373979
3177.971436	16.745420
3177.374268	12.557164
3176.776855	25.110527
3176.179443	16.737816
3175.581787	33.470566
3174.984131	20.915936
3174.386475	41.825535
3173.788574	37.637283
3173.190674	20.906435
3172.592773	29.264576
3171.994629	33.440163
3171.396484	37.614487
3170.798340	25.072525
3170.199951	50.137455
3169.601563	37.597393
3169.002930	16.707422
3168.404297	33.409782
3167.805664	25.053539
3167.206787	45.924530
3166.607910	33.394596
3166.008789	45.910614
3165.409912	50.076714
3164.810547	45.896698
3164.211426	41.717949
3163.612061	4.171163
3163.012695	20.852652
3162.413086	20.849491
3161.813477	37.523396
3161.213623	25.011805
3160.614014	25.008013
3160.013916	4.167370
3159.414063	29.167170
3158.813965	29.162746
3158.213867	37.489277
3157.613525	29.153904
3157.013184	45.806332
3156.412598	49.962967
3155.812256	62.444237
3155.211426	24.973906
3154.610840	58.263611
3154.010010	41.610550
3153.409180	49.925087
3152.808105	24.958757
3152.207031	37.432457
3151.605957	24.951185
3151.004639	37.421101
3150.403320	20.786346
3149.801758	66.506218
3149.200195	33.248062
3148.598633	29.087641
3147.996826	29.083227
3147.395020	54.003510
3146.793213	29.074400
3146.191162	45.681408
3145.589111	16.608900
3144.986816	24.909569
3144.384766	16.603859
3143.782227	41.503345
3143.179932	33.197636
3142.577393	37.341671
3141.974609	37.336002
3141.371826	20.739075
3140.769043	37.324665
3140.166260	33.172443
3139.563232	33.167404
3138.960205	20.726480
3138.356934	12.434000
3137.753662	16.576149
3137.150391	24.860447
3136.546875	28.999449
3135.943359	16.568598
3135.339600	28.990641
3134.735840	62.113365
3134.132080	45.542881
3133.528076	49.675594
3132.924072	33.112034
3132.320068	24.830252
3131.715820	20.688732
3131.111572	33.096943
3130.507080	28.955423
3129.902588	33.086884
3129.298096	45.487549
3128.693604	16.538414
3128.088867	49.607700
3127.483887	41.333466
3126.878906	28.929029
3126.273926	37.188812
3125.668945	41.314621
3125.063721	37.177505
3124.458252	33.041649
3123.853027	49.554939
3123.247559	49.547401
3122.641846	66.053162
3122.036133	24.766169
3121.430420	37.143604
3120.824707	49.517273
3120.218750	16.503248
3119.612549	12.375553
3119.006592	24.747341
3118.400391	16.495718
3117.793945	20.616512
3117.187500	37.104076
3116.581055	32.976383
3115.974609	57.699894
3115.367920	20.603970
3114.760986	37.081501
3114.154297	28.836781
3113.547363	20.594566
3112.940186	41.182865
3112.333008	28.823618
3111.725830	41.170334
3111.118408	32.931252
3110.510986	16.463121
3109.903564	20.575769
3109.295898	61.717911
3108.688232	28.797308
3108.080566	49.359299
3107.472656	37.013840
3106.864746	20.560112
3106.256592	49.336758
3105.648438	24.664623
3105.040039	57.542027
3104.431885	61.642780
3103.823486	36.980038
3103.214844	16.433069
3102.606201	32.861134
3101.997559	20.535080
3101.388672	32.851124
3100.779785	41.057652
3100.170898	61.577095
3099.561768	24.627087
3098.952637	36.935001
3098.343262	24.619583
3097.733887	28.718472
3097.124512	49.224167
3096.514893	24.608334
3095.905273	20.503819
3095.295410	28.700974
3094.685791	36.895626
3094.075684	49.186672
3093.465820	36.884384
3092.855713	24.585842
3092.245361	49.164188
3091.635254	32.771130
3091.024658	16.383068
3090.414307	32.761139
3089.803711	45.039700
3089.193115	40.938938
3088.582275	61.399048
3087.971436	61.389687
3087.360596	36.828194
3086.749512	36.822578
3086.138428	8.181548
3085.527100	24.540901
3084.915771	20.447632
3084.304443	4.088902
3083.692871	8.176558
3083.081299	40.876553
3082.469482	20.435160
3081.857910	49.036903
3081.245850	49.029423
3080.634033	36.766457
3080.021973	49.014462
3079.409668	40.839153
3078.797607	53.082798
3078.185059	53.074699
3077.572754	48.984554
3076.960205	32.651386
3076.347656	57.131207
3075.734863	53.042309
3075.122070	44.875107
3074.509033	40.789322
3073.895996	16.313240
3073.282959	24.466124
3072.669922	28.539454
3072.056641	28.535097
3071.443115	16.303280
3070.829834	12.225594
3070.216064	24.447454
3069.602539	20.369768
3068.988770	57.026638
3068.375000	40.727093
3067.760986	20.360437
3067.146973	12.214396
3066.532715	36.637592
3065.918701	40.702221
3065.304199	44.765602
3064.689941	61.034679
3064.075439	40.683571
3063.460693	32.541885
3062.846191	24.402685
3062.231445	40.664928
3061.616455	48.790459
3061.001465	36.587254
3060.386475	32.517033
3059.771240	60.960121
3059.156006	65.014191
3058.540771	48.753193
3057.925293	48.745743
3057.309814	48.738293
3056.694092	44.669941
3056.078369	44.663113
3055.462646	8.119325
3054.846680	28.413292
3054.230713	44.642632
3053.614502	24.346804
3052.998291	-4.057180
3052.382080	40.565601
3051.765625	20.279699
3051.149170	28.387238
3050.532715	24.328197
3049.916016	52.703033
3049.299316	20.267298
3048.682373	16.211357
3048.065430	20.261099
3047.448486	44.567596
3046.831299	12.152940
3046.214111	48.604324
3045.596680	40.497406
3044.979248	56.687698
3044.361816	24.291010
3043.744141	28.335176
3043.126465	36.425365
3042.508545	40.466438
3041.890869	64.736389
3041.272705	36.408649
3040.654785	44.492649
3040.036621	52.574173
3039.418213	36.391933
3038.799805	56.601009
3038.181396	64.676964
3037.562988	48.500301
3036.944336	32.328583
3036.325439	32.323635
3035.706543	56.557701
3035.087646	64.627480
3034.468750	52.501785
3033.849609	48.455765
3033.230469	44.410984
3032.611084	44.404182
3031.991699	52.469635
3031.372070	48.426090
3030.752441	36.314007
3030.132813	68.582611
3029.513184	72.605766
3028.893066	40.330357
3028.273193	28.226925
3027.653076	24.190800
3027.032959	36.280643
3026.412598	28.213953
3025.792480	52.389313
3025.171875	56.410618
3024.551270	64.459396
3023.930664	72.505707
3023.310059	76.522079
3022.689209	64.429764
3022.068115	76.498619
3021.447266	60.384392
3020.826172	84.525192
3020.204834	56.341492
3019.583496	84.499283
3018.962158	56.324219
3018.340576	64.360664
3017.718994	52.285023
3017.097412	44.234390
3016.475586	36.186226
3015.853760	20.100376
3015.231689	48.233505
3014.609619	52.244949
3013.987549	60.273392
3013.365234	44.193707
3012.742920	40.169937
3012.120361	48.196529
3011.497803	40.157612
3010.875244	44.166599
3010.252441	24.087177
3009.629639	64.222618
3009.006836	80.265953
3008.383789	24.076092
3007.760498	52.156860
3007.137451	52.148857
3006.514160	44.119186
3005.890625	68.173737
3005.267090	60.144062
3004.643555	64.143822
3004.019775	40.083736
3003.395996	64.124130
3002.772217	72.128578
3002.148193	60.097919
3001.524170	68.100517
3000.899902	28.037085
3000.275635	44.051514
2999.651367	48.048817
2999.026855	64.055252
2998.402344	60.042580
2997.777588	80.044479
2997.152832	52.020924
2996.528076	52.012932
2995.903076	36.003422
2995.278076	79.995316
2994.653076	47.989819
2994.027832	47.982449
2993.402344	55.970924
2992.777100	55.962326
2992.151367	63.947117
2991.525879	31.968647
2990.900146	51.941071
2990.274414	47.938236
2989.648438	47.930870
2989.022461	47.923504
2988.396240	51.909153
2987.770264	47.908775
2987.143799	67.860336
2986.517578	67.849907
2985.891113	55.867805
2985.264404	51.869274
2984.637695	55.850632
2984.010986	55.842045
2983.384033	35.892941
2982.757080	19.937456
2982.130127	47.842537
2981.502930	39.862652
2980.875732	51.813480
2980.248291	83.685829
2979.620850	79.688530
2978.993408	87.643906
2978.365723	67.714417
2977.738037	55.756241
2977.110107	63.711617
2976.482178	71.664543
2975.854248	51.749763
2975.226074	63.682220
2974.597900	47.754318
2973.969482	51.725883
2973.341309	75.587738
2972.712646	79.553795
2972.083984	63.633244
2971.455322	71.576385
2970.826660	67.589516
2970.197754	87.455322
2969.568604	63.594086
2968.939697	35.766167
2968.310547	63.574509
2967.681152	51.646339
2967.051758	51.638390
2966.422363	43.687294
2965.792725	79.419220
2965.163086	87.347687
2964.533203	63.515812
2963.903564	55.567780
2963.273438	51.590706
2962.643311	55.550667
2962.013184	59.509407
2961.383057	59.500240
2960.752686	79.321434
2960.122314	63.447376
2959.491699	55.507904
2958.861084	59.463593
2958.230225	91.163467
2957.599609	79.260368
2956.968506	67.360931
2956.337646	83.197746
2955.706299	75.262550
2955.075195	87.132683
2954.443848	95.039192
2953.812500	51.471630
2953.180908	91.051155
2952.549316	87.078995
2951.917725	83.108047
2951.285889	71.224487
2950.653809	114.732880
2950.021973	98.892410
2949.389893	79.101730
2948.757568	122.588783
2948.125244	86.985077
2947.492920	102.784698
2946.860352	75.100311
2946.227783	75.088737
2945.595215	102.737160
2944.962402	86.918037
2944.329590	130.356949
2943.696533	130.336853
2943.063477	130.316757
2942.430420	122.399887
2941.797119	118.433235
2941.163574	153.939453
2940.530273	146.022598
2939.896729	173.621704
2939.262939	173.594925
2938.629150	181.457596
2937.995361	181.429596
2937.361328	165.627548
2936.727295	169.544907
2936.093262	173.461044
2935.458984	212.851151
2934.824707	212.818298
2934.190186	212.785461
2933.555664	200.933029
2932.921143	208.780518
2932.286377	204.809647
2931.651367	248.096466
2931.016602	212.621277
2930.381592	240.146225
2929.746338	263.726440
2929.111084	236.136459
2928.475830	255.775009
2927.840332	220.325974
2927.204834	267.497375
2926.569336	243.857010
2925.933594	247.751907
2925.297607	275.237396
2924.661865	271.263519
2924.025879	247.637131
2923.389648	290.830444
2922.753418	298.644592
2922.117188	251.451324
2921.480713	235.699203
2920.844238	282.795349
2920.207764	267.043213
2919.571045	298.413940
2918.934082	259.108917
2918.297363	266.919464
2917.660156	235.480759
2917.023193	302.153625
2916.385986	262.872253
2915.748779	282.445923
2915.111328	345.158325
2914.473877	247.063782
2913.836182	286.235992
2913.198486	337.157410
2912.560791	313.586304
2911.922852	337.053162
2911.284912	293.896271
2910.646729	313.440887
2910.008545	340.814240
2909.370361	313.343964
2908.731934	391.619385
2908.093506	360.234100
2907.455078	356.263397
2906.816406	383.608948
2906.177490	387.463379
2905.538574	383.490295
2904.899658	383.430969
2904.260498	391.195557
2903.621338	367.666931
2902.982178	406.717499
2902.342773	398.834290
2901.703369	371.405823
2901.063721	414.346588
2900.424072	472.907349
2899.784424	511.911377
2899.144531	449.318298
2898.504639	464.874786
2897.864502	464.802856
2897.224365	468.636200
2896.583984	456.849579
2895.943848	472.395233
2895.303223	484.032562
2894.662842	530.792236
2894.021973	452.664459
2893.381348	511.119507
2892.740479	495.436066
2892.099609	475.857025
2891.458496	553.780579
2890.817383	491.306671
2890.176025	530.217163
2889.534668	553.523315
2888.893311	530.052917
2888.251709	541.661316
2887.610107	498.718781
2886.968262	541.493530
2886.326416	560.884827
2885.684570	533.536926
2885.042480	564.604858
2884.400391	626.808960
2883.758057	677.315918
2883.115723	708.347046
2882.473389	860.002441
2881.830811	801.507019
2881.188232	984.222534
2880.545410	1116.316528
2879.902588	1182.256592
2879.259766	1220.957275
2878.616699	1232.431396
2877.973633	1232.240356
2877.330322	1072.699097
2876.687012	1018.128967
2876.043457	936.377991
2875.399902	877.961060
2874.756348	850.635620
2874.112549	683.509827
2873.468750	683.403870
2872.824707	683.297852
2872.180664	617.201782
2871.536621	589.937866
2870.892334	636.413147
2870.248047	581.994934
2869.603760	550.869690
2868.958984	597.329407
2868.314453	539.064331
2867.669678	581.633850
2867.024902	558.281860
2866.379883	542.689819
2865.734863	561.984375
2865.089844	585.148071
2864.444580	561.809937
2863.799316	584.966492
2863.153809	573.255615
2862.508301	553.802917
2861.862549	538.228394
2861.216797	596.218018
2860.571045	638.705811
2859.925049	638.606689
2859.279053	603.679871
2858.632813	595.847839
2857.986572	669.257629
2857.340332	665.285767
2856.693848	738.661865
2856.047363	715.346741
2855.400635	703.637207
2854.753906	761.511047
2854.107178	765.257690
2853.460205	749.681458
2852.813232	822.976013
2852.166016	873.068970
2851.518799	834.307983
2850.871338	888.245483
2850.223877	911.275513
2849.576416	911.133911
2848.928711	953.453857
2848.281006	995.760620
2847.633301	1057.348877
2846.985352	1049.467896
2846.337158	1141.890503
2845.688965	1068.427368
2845.040771	1118.396362
2844.392578	1172.205688
2843.743896	1183.589478
2843.095459	1121.729614
2842.446777	1094.576172
2841.798096	1040.456421
2841.149170	1013.324097
2840.500244	955.381348
2839.851074	947.529297
2839.202148	924.275085
2838.552734	785.511658
2837.903320	758.439880
2837.253906	681.334900
2836.604492	638.892700
2835.954834	592.615479
2835.304932	554.047729
2834.655029	553.961548
2834.005127	457.716461
2833.354980	449.953735
2832.704834	407.586975
2832.054688	342.166016
2831.404297	376.708435
2830.753906	326.686066
2830.103271	292.050323
2829.452637	284.320557
2828.801758	226.652725
2828.150879	226.617447
2827.500000	253.464798
2826.848877	184.309341
2826.197754	153.567215
2825.546387	226.476379
2824.895020	184.223282
2824.243408	222.568481
2823.591797	207.186676
2822.940186	168.792480
2822.288330	180.272980
2821.636475	157.234924
2820.984619	168.713638
2820.332520	164.853561
2819.680176	134.162231
2819.028076	114.978294
2818.375488	141.784470
2817.723145	130.268143
2817.070557	91.939659
2816.417725	130.227554
2815.764893	126.377640
2815.112061	107.212807
2814.458984	122.509834
2813.805908	118.662910
2813.152832	118.644417
2812.499512	141.585785
2811.845947	122.433487
2811.192383	130.065308
2810.538818	137.694748
2809.885010	76.485161
2809.231201	103.238869
2808.577393	95.576645
2807.923340	87.916809
2807.269287	107.012466
2806.614990	106.995789
2805.960693	68.772278
2805.306152	95.502167
2804.651611	106.945747
2803.997070	87.834595
2803.342285	103.094093
2802.687500	95.442612
2802.032471	118.330376
2801.377441	122.128433
2800.722412	106.845711
2800.067139	125.905663
2799.411621	87.738739
2798.756348	91.539185
2798.100586	102.965523
2797.445068	118.201225
2796.789307	87.683998
2796.133301	114.352592
2795.477539	91.467796
2794.821289	118.127472
2794.165283	102.869156
2793.509033	91.424980
2792.852539	95.219490
2792.196045	79.971886
2791.539551	79.959404
2790.882813	98.981903
2790.226074	98.966454
2789.569092	79.921967
2788.912109	72.299057
2788.255127	79.897011
2787.597900	79.884537
2786.940430	79.872063
2786.283203	98.873779
2785.625488	91.253853
2784.968018	117.851151
2784.310303	117.832741
2783.652588	102.612488
2782.994629	121.595802
2782.336426	106.379707
2781.678467	113.960457
2781.020264	87.356033
2780.361816	106.329865
2779.703369	113.907051
2779.044922	117.685562
2778.386230	110.075745
2777.727539	91.082932
2777.068604	106.246819
2776.409668	87.260529
2775.750732	91.040237
2775.091553	117.575256
2774.432373	98.596092
2773.772949	102.372246
2773.113525	102.356247
2772.453857	106.130623
2771.794189	64.426376
2771.134521	90.940666
2770.474609	98.503647
2769.814697	83.336212
2769.154541	94.685432
2768.494385	106.031097
2767.833984	102.228287
2767.173584	90.855377
2766.513184	102.196312
2765.852539	87.042496
2765.191895	105.948204
2764.531006	87.015274
2763.870117	75.653618
2763.209229	102.116402
2762.548096	83.192940
2761.886719	94.522644
2761.225586	105.848793
2760.563965	64.255280
2759.902588	113.373932
2759.240967	102.020569
2758.579102	109.560501
2757.917236	83.101852
2757.255371	132.186798
2756.593262	105.732895
2755.931152	117.043091
2755.269043	132.124741
2754.606689	90.585640
2753.944092	109.440506
2753.281494	105.650154
2752.618896	116.951500
2751.956055	101.845032
2751.293213	94.286194
2750.630371	124.438286
2749.967285	120.648529
2749.303955	113.090279
2748.640625	109.303482
2747.977295	150.739807
2747.313721	124.340866
2746.650146	120.554070
2745.986572	120.535187
2745.322754	112.984032
2744.658691	128.028503
2743.994873	94.123863
2743.330566	86.580383
2742.666504	120.440788
2742.002197	131.711472
2741.337646	120.403038
2740.673096	131.670181
2740.008545	131.649551
2739.343750	139.150574
2738.678955	142.888992
2738.013916	139.106949
2737.348877	139.085144
2736.683594	101.478653
2736.018311	146.557297
2735.353027	123.990570
2734.687500	101.430923
2734.021973	127.707802
2733.356201	138.954346
2732.690430	135.177628
2732.024658	123.893387
2731.358643	187.687805
2730.692383	161.386200
2730.026367	165.113464
2729.359863	180.095520
2728.693604	183.818680
2728.027100	198.793091
2727.360352	157.509430
2726.693604	194.981079
2726.026855	164.958099
2725.359863	209.913727
2724.692871	194.889313
2724.025635	191.111435
2723.358398	202.321533
2722.691162	206.035889
2722.023682	220.985626
2721.355957	157.287109
2720.688477	168.495453
2720.020508	220.881577
2719.352783	190.901550
2718.684814	209.584488
2718.016602	172.131653
2717.348389	213.260086
2716.680176	183.300064
2716.011719	190.751740
2715.343262	194.461426
2714.674561	168.257492
2714.005859	190.661880
2713.337158	179.418289
2712.668213	224.237640
2711.999023	212.992294
2711.329834	160.653152
2710.660645	156.892380
2709.991455	175.542465
2709.321777	179.249237
2708.652344	160.552216
2707.982666	156.793808
2707.312988	212.758148
2706.643066	194.064651
2705.972900	205.228439
2705.302979	141.771912
2704.632813	171.591644
2703.962402	182.753677
2703.291992	130.517822
2702.621582	167.782257
2701.950928	178.939606
2701.280273	160.274857
2700.609375	190.063553
2699.938477	141.593704
2699.267334	156.473709
2698.596191	141.549179
2697.925049	167.597672
2697.253662	145.228470
2696.582031	107.973419
2695.910645	126.569618
2695.239014	145.159958
2694.567139	133.972733
2693.895264	107.905502
2693.223145	137.650879
2692.551270	111.591263
2691.878906	148.764938
2691.206543	122.711761
2690.534180	118.974503
2689.861816	152.412094
2689.189209	141.237762
2688.516357	141.215530
2687.843506	115.184013
2687.170654	115.165886
2686.497559	115.147758
2685.824463	129.985077
2685.151123	118.824783
2684.477783	137.369537
2683.804199	155.908432
2683.130615	118.768677
2682.457031	118.749977
2681.783203	133.572693
2681.109375	148.390732
2680.435303	85.311234
2679.761230	144.635391
2679.086914	114.948486
2678.412598	122.345245
2677.738281	144.567062
2677.063721	122.306709
2676.389160	144.521515
2675.714355	114.857986
2675.039551	148.180496
2674.364502	140.749298
2673.689453	125.913742
2673.014404	129.596664
2672.339111	122.171883
2671.663574	125.854225
2670.988037	99.927315
2670.312500	107.312424
2669.636719	107.295509
2668.960938	81.383759
2668.285156	114.659042
2667.609131	103.546684
2666.932861	118.320412
2666.256592	107.210968
2665.580322	121.979446
2664.903809	114.568687
2664.227295	144.112076
2663.550781	121.921761
2662.874023	92.350403
2662.197021	114.496437
2661.520020	125.556938
2660.843018	140.306213
2660.165771	114.442276
2659.488525	132.879745
2658.811035	129.168259
2658.133545	154.977463
2657.455811	169.710434
2656.778076	147.551010
2656.100342	106.957603
2655.422363	114.315948
2654.744385	132.733063
2654.066162	125.339218
2653.387939	140.062897
2652.709473	132.670227
2652.031006	125.279884
2651.352539	128.944229
2650.673828	121.556801
2649.994873	128.903519
2649.316162	165.706940
2648.636963	117.817444
2647.958008	128.842484
2647.278809	92.015816
2646.599365	117.761642
2645.919922	95.666229
2645.240479	117.724457
2644.560791	139.775711
2643.880859	121.365005
2643.201172	143.408707
2642.520996	139.709488
2641.841064	139.687424
2641.160889	84.534294
2640.480469	102.895058
2639.800049	80.833344
2639.119629	113.883537
2638.438965	124.884789
2637.758301	124.865059
2637.077393	132.189163
2636.396484	135.839615
2635.715332	132.147400
2635.034180	113.775604
2634.353027	117.427223
2633.671631	161.436905
2632.989990	124.726982
2632.308350	117.371544
2631.626709	99.016586
2630.944824	132.001236
2630.262939	109.983643
2629.581055	153.952759
2628.898926	117.278793
2628.216553	117.260246
2627.534180	131.896912
2626.851807	109.896713
2626.169189	117.204620
2625.486572	135.496414
2624.803711	179.412811
2624.120850	124.470825
2623.437988	124.451134
2622.754883	106.132706
2622.071533	124.411766
2621.388184	124.392082
2620.704834	131.688416
2620.021240	102.408119
2619.337646	98.735062
2618.653809	106.031990
2617.969971	127.949387
2617.286133	102.343307
2616.602051	142.527054
2615.917725	135.196564
2615.233398	102.294716
2614.549072	142.459381
2613.864502	135.132370
2613.179932	171.627457
2612.495117	127.787445
2611.810303	102.213768
2611.125488	105.847496
2610.440430	120.428078
2609.755127	120.409012
2609.069824	127.686302
2608.384521	127.666077
2607.698975	171.410141
2607.013428	131.272079
2606.327637	138.543030
2605.641846	138.521088
2604.956055	123.920280
2604.270020	112.968239
2603.583740	134.811691
2602.897461	145.719284
2602.211182	138.411377
2601.524658	156.598587
2600.838135	152.932510
2600.151367	109.220200
2599.464600	116.483078
2598.777832	138.301727
2598.090820	83.695679
2597.403564	141.896255
2596.716309	116.409241
2596.029053	152.762909
2595.341553	112.735695
2594.654053	149.078415
2593.966309	98.158020
2593.278564	138.126419
2592.590820	145.373169
2591.902832	152.617630
2591.214600	119.894836
2590.526367	108.978012
2589.838135	112.592758
2589.149658	134.363586
2588.461182	137.973145
2587.772461	137.951248
2587.083740	152.448242
2586.394775	141.536636
2585.705811	130.628464
2585.016846	166.887665
2584.327637	126.959595
2583.638184	123.312607
2582.948975	126.919304
2582.259277	130.524857
2581.569824	159.505051
2580.879883	123.234344
2580.190186	112.342888
2579.500244	108.701668
2578.810059	115.930038
2578.119873	141.267303
2577.429688	105.028236
2576.739258	133.980270
2576.048584	108.615402
2575.358154	112.218094
2574.667236	108.580910
2573.976563	112.182449
2573.285645	155.583206
2572.594482	155.558487
2571.903320	151.916718
2571.212158	104.878212
2570.520752	137.404800
2569.829102	93.998871
2569.137451	133.746368
2568.445801	122.882545
2567.753906	108.408546
2567.062012	144.521759
2566.370117	115.599037
2565.677979	144.475830
2564.985596	104.728333
2564.293213	115.543930
2563.600830	126.356087
2562.908203	137.164795
2562.215332	108.270790
2561.522705	115.470482
2560.829590	137.099396
2560.136719	108.219154
2559.443604	129.842346
2558.750244	122.609383
2558.056885	129.801056
2557.363525	115.360367
2556.669922	108.133141
2555.976074	118.927544
2555.282227	118.908623
2554.588379	133.300583
2553.894287	104.462219
2553.200195	97.242455
2552.505859	97.226990
2551.811523	90.010666
2551.117188	100.795906
2550.422607	104.379150
2549.727783	115.158661
2549.032959	79.158981
2548.338135	100.731766
2547.643066	129.491653
2546.947998	143.856720
2546.252686	111.471214
2545.557373	100.667648
2544.861816	115.030426
2544.166260	104.229729
2543.470703	118.587364
2542.774902	125.754456
2542.078857	96.995132
2541.382813	122.122574
2540.686768	107.738052
2539.990479	136.446472
2539.294189	143.604980
2538.597656	107.686584
2537.901123	118.436378
2537.204346	96.887054
2536.507568	107.635139
2535.810791	107.617996
2535.113770	93.254066
2534.416504	136.272690
2533.719238	157.764297
2533.021973	132.644302
2532.324463	161.298431
2531.626953	129.018188
2530.929199	96.748222
2530.231445	121.811676
2529.533447	132.538635
2528.835449	107.446632
2528.137451	114.591476
2527.439209	107.412384
2526.740723	125.294472
2526.042236	121.695229
2525.343750	128.833221
2524.645020	118.078293
2523.946289	150.257507
2523.247314	114.463654
2522.548340	164.515259
2521.849121	128.730545
2521.149902	132.285294
2520.450684	150.137726
2519.751221	121.520683
2519.051514	110.780594
2518.351807	128.627914
2517.652100	135.752243
2516.952148	139.302444
2516.252197	157.136658
2515.552002	128.545853
2514.851807	146.376083
2514.151367	114.226517
2513.450928	114.208290
2512.750244	96.347862
2512.049561	121.307579
2511.348877	135.557419
2510.647949	142.669235
2509.946777	171.175766
2509.245605	96.270996
2508.544434	114.080742
2507.843018	121.191437
2507.141602	106.916550
2506.439941	131.842682
2505.738281	121.133400
2505.036377	135.362762
2504.334473	96.163445
2503.632568	117.514336
2502.930420	117.495567
2502.228027	117.476799
2501.525635	121.017365
2500.823242	128.115570
2500.120605	128.095108
2499.417969	117.401749
2498.715088	135.168289
2498.012207	96.025284
2497.309082	106.677711
2496.605957	135.103516
2495.902588	156.410645
2495.199219	142.168777
2494.495605	163.467957
2493.791992	149.229507
2493.088379	156.310684
2492.384521	134.974014
2491.680664	145.606567
2490.976563	152.684921
2490.272461	163.311249
2489.568115	173.934158
2488.863770	170.357239
2488.159180	149.038757
2487.454590	127.727074
2486.749756	148.991089
2486.044922	141.873581
2485.339844	120.573257
2484.634766	113.462563
2483.929688	145.350662
2483.224365	138.238266
2482.519043	124.040138
2481.813477	159.454666
2481.107666	166.514893
2480.402100	109.811394
2479.696045	127.502510
2478.990234	134.564438
2478.284180	141.624115
2477.577881	92.040947
2476.871582	127.420914
2476.165039	155.711746
2475.458496	134.456802
2474.751953	148.586365
2474.045166	155.636978
2473.338379	130.855606
2472.631348	162.659302
2471.924072	134.349213
2471.217041	144.932510
2470.509521	116.634323
2469.802246	123.683258
2469.094482	102.464005
2468.386963	130.709000
2467.679199	123.623848
2466.971191	134.198669
2466.263184	134.177185
2465.554932	127.094864
2464.846680	123.544655
2464.138428	137.641983
2463.429932	155.263519
2462.721436	119.957130
2462.012695	126.993080
2461.303955	119.918694
2460.594971	176.322754
2459.885986	123.406151
2459.176758	130.437027
2458.467529	109.267555
2457.758057	130.395218
2457.048584	147.992462
2456.338867	140.922607
2455.629150	126.810013
2454.919434	140.877426
2454.209473	130.290726
2453.499512	154.915482
2452.789307	161.931122
2452.078857	137.267410
2451.368408	112.611610
2450.657959	112.593552
2449.947266	144.237350
2449.236572	144.214218
2448.525879	133.640518
2447.814697	147.684250
2447.103760	154.692001
2446.392578	161.697525
2445.681152	168.700775
2444.969727	137.047394
2444.258301	137.025391
2443.546631	129.977585
2442.834717	119.419701
2442.122803	140.471222
2441.410889	161.515976
2440.698730	147.447433
2439.986572	140.403595
2439.274170	154.419159
2438.561768	154.394379
2437.849121	126.302391
2437.136475	136.805618
2436.423584	115.740013
2435.710693	157.801956
2434.997803	136.739731
2434.284424	157.751282
2433.571289	122.675735
2432.857910	101.629280
2432.144287	154.171387
2431.430908	164.656616
2430.717041	182.144012
2430.003174	143.590485
2429.289307	171.580566
2428.575195	147.045441
2427.861084	161.023880
2427.146729	118.998528
2426.432373	139.975769
2425.717773	153.948608
2425.003174	167.916946
2424.288330	150.401428
2423.573486	160.868683
2422.858643	150.353088
2422.143555	97.888596
2421.428223	164.286591
2420.712891	136.300995
2419.997559	136.279083
2419.281982	178.182465
2418.566162	146.714905
2417.850586	167.647217
2417.134521	181.588608
2416.418457	160.610245
2415.702393	136.147659
2414.986084	160.558594
2414.269775	143.083557
2413.553223	143.060532
2412.836670	111.639046
2412.120117	122.085564
2411.403076	136.016312
2410.686279	129.020355
2409.969238	135.972549
2409.251953	198.697128
2408.534668	174.267685
2407.817383	149.846085
2407.099854	121.948120
2406.382080	177.667236
2405.664307	139.324417
2404.946533	181.092590
2404.228516	156.689514
2403.510498	174.071442
2402.792236	167.081680
2402.073975	163.574478
2401.355469	149.629150
2400.636963	167.000992
2399.918213	146.102341
2399.199463	163.469147
2398.480469	86.937668
2397.761475	166.893448
2397.042480	173.819336
2396.323242	135.557251
2395.603760	163.337540
2394.884277	138.988281
2394.164795	159.810776
2393.445068	138.943512
2392.725098	152.813232
2392.005127	152.788605
2391.285156	204.842621
2390.564941	166.624771
2389.844727	142.302383
2389.124268	149.219925
2388.403809	142.256531
2387.683105	104.073364
2386.962402	169.959091
2386.241455	121.379784
2385.520508	183.774048
2384.799316	149.075653
2384.078125	155.984253
2383.356689	142.096069
2382.635254	166.329559
2381.913818	131.656326
2381.192139	166.275909
2380.470215	183.566711
2379.748291	145.444504
2379.026367	162.733078
2378.304199	155.783127
2377.581787	141.912842
2376.859375	173.036530
2376.136963	124.566200
2375.414307	148.763397
2374.691650	179.870895
2373.968750	159.090897
2373.245850	186.728729
2372.522705	159.039551
2371.799316	152.100235
2371.076172	127.881828
2370.352783	148.595428
2369.629150	176.212646
2368.905518	183.093399
2368.181641	162.339630
2367.457764	134.685608
2366.733643	117.399261
2366.009521	186.427551
2365.285400	165.686615
2364.561035	162.208618
2363.836426	148.379669
2363.111816	175.956757
2362.387207	179.377914
2361.662354	172.450912
2360.937256	186.216904
2360.212158	148.259872
2359.487061	144.788574
2358.761719	182.679886
2358.036377	168.865433
2357.310791	130.935715
2356.584961	165.365753
2355.859375	161.894470
2355.133301	158.424301
2354.407471	161.842148
2353.681152	158.373093
2352.955078	168.674515
2352.228516	172.089035
2351.502197	147.972641
2350.775635	168.592728
2350.048828	199.526474
2349.322021	154.779999
2348.594971	168.510971
2347.867920	165.045288
2347.140869	151.267044
2346.413330	140.930588
2345.686035	161.528458
2344.958496	130.576355
2344.230713	158.040543
2343.502930	140.839447
2342.775146	161.423981
2342.047119	164.831863
2341.319092	144.204544
2340.590820	161.345642
2339.862305	181.913528
2339.133789	137.271011
2338.405273	140.680023
2337.676514	157.810577
2336.947754	161.215149
2336.218750	133.752625
2335.489746	150.875977
2334.760498	161.136887
2334.031250	154.255035
2333.301758	130.238724
2332.572266	147.351532
2331.842529	137.048996
2331.112793	188.411865
2330.382813	150.705093
2329.652832	164.378937
2328.922607	191.744370
2328.192383	143.784988
2327.462158	147.184601
2326.731689	147.160751
2326.000977	167.667664
2325.270264	198.431610
2324.539307	157.351303
2323.808350	174.426437
2323.077393	153.880753
2322.346191	184.626984
2321.614746	174.341675
2320.883301	140.134323
2320.151855	150.363678
2319.420166	174.256943
2318.688232	198.142441
2317.956299	174.200455
2317.224365	181.002502
2316.492188	187.802353
2315.760010	177.529800
2315.027588	180.914505
2314.295166	170.646393
2313.562500	174.031097
2312.829590	191.061981
2312.096924	170.563400
2311.363770	201.232178
2310.630615	153.457275
2309.897461	184.118866
2309.164063	153.407501
2308.430664	139.748611
2307.697021	163.581589
2306.963379	163.555054
2306.229492	166.935364
2305.495605	136.251663
2304.761719	180.504166
2304.027344	177.069687
2303.293213	183.850220
2302.558838	194.032639
2301.824219	183.790558
2301.089600	183.760742
2300.354736	217.755157
2299.619873	170.093597
2298.885010	173.467316
2298.149658	146.233017
2297.414551	166.610565
2296.679199	183.581833
2295.943604	156.359146
2295.208008	183.522232
2294.472412	176.696411
2293.736572	186.860092
2293.000488	180.035934
2292.264404	152.835876
2291.528320	173.185867
2290.791992	156.181488
2290.055420	173.129608
2289.318848	186.678070
2288.582275	169.679764
2287.845459	190.010468
2287.108398	183.194611
2286.371582	172.989014
2285.634277	189.917862
2284.896973	186.496170
2284.159668	196.636719
2283.422119	203.384247
2282.684570	183.016068
2281.946777	186.374954
2281.208740	189.732742
2280.470703	176.151764
2279.732666	193.058044
2278.994385	189.640228
2278.256104	182.837631
2277.517578	172.651917
2276.779053	192.932526
2276.040283	203.053848
2275.301514	175.951385
2274.562500	159.007111
2273.823486	186.041901
2273.084229	186.011627
2272.344971	169.073975
2271.605469	196.093918
2270.865967	202.822769
2270.126221	172.371307
2269.386475	179.101822
2268.646484	182.451416
2267.906494	152.018112
2267.166260	162.126266
2266.426025	189.116516
2265.685547	178.956146
2264.945068	202.558899
2264.204346	199.150497
2263.463623	175.493896
2262.722656	182.214005
2261.981689	212.548386
2261.240723	226.006729
2260.499268	219.224564
2259.758057	222.561005
2259.016602	192.180481
2258.274902	182.036072
2257.533203	208.970337
2256.791260	192.086609
2256.049316	168.469574
2255.307129	168.442139
2254.564941	181.887878
2253.822754	175.122757
2253.080322	202.031799
2252.337646	218.832138
2251.594971	205.332077
2250.852051	208.664169
2250.109131	222.090179
2249.366211	222.054001
2248.623047	178.287033
2247.879639	205.164841
2247.136230	225.308258
2246.392578	201.735703
2245.648926	174.809113
2244.905273	191.586441
2244.161377	161.309647
2243.417236	164.643417
2242.673096	184.773712
2241.928955	208.256393
2241.184570	214.939301
2240.439941	201.472733
2239.695313	188.010544
2238.950439	194.693451
2238.205566	171.168045
2237.460693	204.697021
2236.715576	201.308487
2235.970215	214.694016
2235.224854	214.658997
2234.479492	214.623978
2233.733887	181.059433
2232.988037	217.906357
2232.242188	201.111511
2231.496338	211.132614
2230.750244	174.239761
2230.003906	194.312622
2229.257568	200.980255
2228.511230	234.438690
2227.764648	231.051849
2227.017822	231.014130
2226.270996	207.544022
2225.523926	220.897888
2224.776855	210.822647
2224.029785	200.750687
2223.282471	204.063217
2222.534912	187.306122
2221.787354	214.029190
2221.039795	213.994232
2220.291992	193.900589
2219.543945	203.896622
2218.795898	200.521301
2218.047852	187.122635
2217.299561	200.455795
2216.551025	203.763428
2215.802490	200.390289
2215.053955	223.732605
2214.305176	186.969818
2213.556152	176.924667
2212.807129	186.908722
2212.058105	223.586380
2211.308838	193.520752
2210.559326	206.833206
2209.809814	166.773697
2209.060303	193.425873
2208.310547	203.397400
2207.560547	223.367172
2206.810547	196.664307
2206.060303	186.633911
2205.310059	173.274582
2204.559814	223.221115
2203.809326	196.535706
2203.058594	236.470383
2202.307861	193.141388
2201.557129	243.051987
2200.806152	213.051819
2200.054932	213.016968
2199.303711	193.015045
2198.552246	209.619965
2197.800781	182.971619
2197.049316	209.551376
2196.297607	236.122437
2195.545654	196.182312
2194.793701	226.071411
2194.041504	226.034409
2193.289307	249.261856
2192.537109	239.252213
2191.784668	249.180267
2191.031982	282.358063
2190.279297	252.419998
2189.526367	219.170944
2188.773438	192.573242
2188.020508	209.140121
2187.267090	258.893005
2186.513916	202.434433
2185.760498	212.355453
2185.006836	288.623413
2184.253174	252.089493
2183.499268	215.567535
2182.745361	242.059265
2181.991211	225.442932
2181.237061	202.202438
2180.482666	212.112061
2179.728271	212.077301
2178.973877	238.547867
2178.218994	284.885498
2177.464355	261.654236
2176.709229	311.284424
2175.954346	274.812469
2175.198975	264.836060
2174.443848	195.284576
2173.688232	228.346222
2172.932861	238.235260
2172.177002	201.805115
2171.421387	251.388092
2170.665283	228.196503
2169.909424	234.772400
2169.153076	241.346115
2168.396729	198.334137
2167.640381	224.741821
2166.883789	257.749817
2166.127197	218.060211
2165.370361	234.541458
2164.613525	241.108688
2163.856445	254.278412
2163.099365	234.426041
2162.342041	204.676468
2161.584473	214.544968
2160.826904	198.009003
2160.069336	204.575729
2159.311523	244.130951
2158.553711	201.210052
2157.795654	174.793152
2157.037354	197.846573
2156.279053	217.595490
2155.520752	210.967056
2154.762207	217.524063
2154.003662	289.984467
2153.244873	253.694733
2152.485840	230.593704
2151.726807	270.079712
2150.967773	223.931747
2150.208252	210.724686
2149.448975	237.026337
2148.689453	223.821426
2147.929688	207.329910
2147.169922	236.909546
2146.410156	203.971924
2145.650146	200.649078
2144.889893	207.193695
2144.129639	246.618637
2143.369141	193.974777
2142.608643	200.517242
2141.847900	253.070328
2141.087158	180.734802
2140.326416	190.561737
2139.565186	223.380493
2138.804199	216.774841
2138.042725	183.899933
2137.281494	216.703568
2136.519775	200.253708
2135.758301	216.632324
2134.996338	242.850845
2134.234619	255.935822
2133.472412	229.648224
2132.710449	239.450897
2131.947998	242.691132
2131.185547	222.976791
2130.423096	199.990387
2129.660400	232.737411
2128.897705	242.531479
2128.134766	255.599228
2127.371826	235.898926
2126.608643	229.308441
2125.845215	242.371902
2125.081787	239.057251
2124.318359	206.275742
2123.554688	242.252258
2122.790771	281.490082
2122.026855	183.265686
2121.262939	248.676773
2120.498779	274.808044
2119.734375	291.117737
2118.969971	251.824432
2118.205322	215.813965
2117.440674	245.202759
2116.676025	215.742905
2115.911133	261.463470
2115.145996	271.223694
2114.380859	241.774063
2113.615479	248.267593
2112.850098	241.694427
2112.084473	251.451416
2111.318848	251.409988
2110.552979	261.162170
2109.787109	235.007217
2109.020996	234.968491
2108.254883	287.136383
2107.488525	241.415817
2106.722168	241.376022
2105.955566	241.336243
2105.188965	224.992661
2104.422119	247.777145
2103.655029	260.775055
2102.887939	247.695465
2102.120850	306.309692
2101.353516	260.646118
2100.585938	273.633301
2099.818359	273.588165
2099.050781	276.799530
2098.282959	253.962387
2097.514893	250.665100
2096.746826	253.878616
2095.978760	218.039261
2095.210449	214.749512
2094.441895	257.006256
2093.673340	224.436783
2092.904541	276.434479
2092.135742	273.137238
2091.366699	247.083405
2090.597656	250.293182
2089.828369	240.501816
2089.059082	243.711609
2088.289551	230.675583
2087.520020	237.134338
2086.750244	217.607925
2085.980469	263.034821
2085.210449	266.238190
2084.440186	246.716614
2083.670166	240.184418
2082.899658	272.596741
2082.129150	266.062408
2081.358643	249.797836
2080.587891	262.730957
2079.816895	233.500061
2079.045898	249.674103
2078.274902	249.632858
2077.503662	249.591629
2076.732178	268.995880
2075.960693	220.345764
2075.188965	275.386688
2074.417236	233.230194
2073.645264	207.281479
2072.873291	252.582550
2072.101074	278.442444
2071.328857	281.633575
2070.556396	255.693985
2069.783936	242.707336
2069.011230	252.373901
2068.238525	232.922012
2067.465576	265.228455
2066.692627	242.546890
2065.919434	271.607605
2065.145996	258.631134
2064.372559	223.032471
2063.599121	258.545624
2062.825439	303.740875
2062.051514	222.921844
2061.277588	271.338226
2060.503662	293.901123
2059.729248	251.873581
2058.955078	232.460236
2058.180664	242.106018
2057.406006	229.155777
2056.631348	303.339142
2055.856445	271.024170
2055.081543	325.820374
2054.306396	280.610718
2053.531250	274.114532
2052.755859	286.966522
2051.980225	257.904755
2051.204590	280.424988
2050.428955	283.601318
2049.653076	286.776581
2048.877197	257.734039
2048.101074	251.249069
2047.324707	260.869293
2046.548340	273.706421
2045.771851	238.246124
2044.995239	263.958740
2044.218506	267.133514
2043.441528	260.653381
2042.664551	273.479828
2041.887329	279.868286
2041.110107	283.038269
2040.332642	263.696533
2039.555176	260.437561
2038.777466	228.246948
2037.999634	257.137054
2037.221802	289.231232
2036.443726	279.543884
2035.665527	257.009247
2034.887207	234.482056
2034.108765	263.347137
2033.330200	266.514526
2032.551514	282.522766
2031.772705	272.846069
2030.993774	240.706619
2030.214600	272.755615
2029.435425	253.460251
2028.656128	230.963440
2027.876587	269.412659
2027.097046	275.781525
2026.317261	282.148224
2025.537476	310.952728
2024.757446	307.695984
2023.977295	288.417145
2023.197021	326.818512
2022.416626	304.339294
2021.636230	301.085785
2020.855591	307.440826
2020.074707	246.552261
2019.293823	262.518585
2018.512817	272.077759
2017.731689	297.635681
2016.950439	268.787598
2016.168945	255.945709
2015.387451	307.083862
2014.605713	339.015472
2013.823975	335.761475
2013.041992	287.747772
2012.260010	294.093323
2011.477783	265.279266
2010.695435	265.235229
2009.912964	297.141937
2009.130371	300.287140
2008.347656	293.849243
2007.564819	309.767853
2006.781860	293.751617
2005.998779	261.778595
2005.215576	264.927002
2004.432129	280.839813
2003.648682	248.884842
2002.864990	274.365906
2002.081299	280.699860
2001.297363	264.707001
2000.513428	290.172699
1999.729248	258.242676
1998.944946	299.639221
1998.160522	242.221222
1997.375977	270.860291
1996.591309	309.048004
1995.806519	293.068970
1995.021606	324.870270
1994.236572	280.233643
1993.451416	318.394348
1992.666016	369.276031
1991.880615	267.362335
1991.094971	270.500214
1990.309326	257.727905
1989.523438	289.498016
1988.737549	295.811401
1987.951416	289.401733
1987.165161	340.228943
1986.378784	298.842987
1985.592285	301.971924
1984.805664	276.496674
1984.018921	298.693848
1983.232056	254.165222
1982.444946	285.888275
1981.657837	346.184845
1980.870605	304.846008
1980.083130	295.270416
1979.295654	317.442230
1978.507935	301.519897
1977.720093	260.215973
1976.932129	298.246674
1976.144165	288.680115
1975.355957	314.006287
1974.567627	307.611481
1973.779053	269.511566
1972.990479	329.700409
1972.201782	294.779144
1971.412964	294.730042
1970.623901	278.837891
1969.834839	326.312714
1969.045532	332.593475
1968.256226	300.867767
1967.466675	275.485626
1966.677002	284.937653
1965.887207	281.724731
1965.097290	319.656799
1964.307251	300.617188
1963.517090	341.697296
1962.726807	275.210297
1961.936401	287.815643
1961.145874	328.877350
1960.355103	303.528473
1959.564331	268.704376
1958.773315	322.391479
1957.982178	293.896179
1957.191040	303.326111
1956.399658	372.776154
1955.608154	337.969452
1954.816528	296.858246
1954.024780	322.069031
1953.232910	325.172333
1952.440918	315.648651
1951.648682	315.595978
1950.856445	325.009644
1950.063965	312.335785
1949.271484	321.746796
1948.478760	318.539276
1947.685913	331.099426
1946.893066	324.738556
1946.099976	308.923004
1945.306763	359.299408
1944.513428	302.517426
1943.719971	308.768341
1942.926270	365.419861
1942.132568	324.413483
1941.338745	352.701385
1940.544678	374.682648
1939.750610	333.695221
1938.956299	302.164063
1938.161865	327.289734
1937.367310	327.235077
1936.572632	346.056213
1935.777832	323.980347
1934.982910	333.360962
1934.187866	320.727722
1933.392700	317.530273
1932.597290	286.043854
1931.801880	329.995453
1931.006226	377.074646
1930.210571	304.751068
1929.414673	314.123840
1928.618652	339.197052
1927.822510	317.159058
1927.026245	351.642334
1926.229858	379.835815
1925.433350	326.415894
1924.636719	357.742218
1923.839844	382.782928
1923.042969	345.074432
1922.245850	323.061127
1921.448730	341.823059
1920.651367	322.953094
1919.853882	363.653351
1919.056274	357.323700
1918.258545	313.389404
1917.460693	338.403931
1916.662720	310.151733
1915.864624	316.364471
1915.066284	338.234131
1914.267944	366.359009
1913.469360	322.467224
1912.670776	322.413269
1911.871948	359.915741
1911.072998	347.338776
1910.273926	353.537964
1909.474731	344.094391
1908.675415	365.930054
1907.875977	365.868805
1907.076294	375.187256
1906.276611	290.721436
1905.476807	381.312653
1904.676758	324.998993
1903.876587	334.317963
1903.076294	377.997192
1902.275879	352.946533
1901.475342	377.870605
1900.674683	377.807312
1899.873901	355.891083
1899.072998	358.952789
1898.271851	390.100708
1897.470703	386.915070
1896.669312	402.449066
1895.867920	361.831543
1895.066284	336.821198
1894.264526	396.010406
1893.462646	364.767334
1892.660645	333.534729
1891.858521	411.394470
1891.056152	358.351776
1890.253784	364.522858
1889.451172	317.735870
1888.648560	383.087860
1887.845703	354.997528
1887.042725	364.278473
1886.239624	326.861755
1885.436401	361.043884
1884.633057	360.983337
1883.829590	392.036804
1883.025879	360.862244
1882.222168	363.912079
1881.418213	348.301849
1880.614258	373.117950
1879.810059	376.164154
1879.005737	351.234863
1878.201294	366.714691
1877.396729	366.653168
1876.592041	385.231903
1875.787231	369.636292
1874.982178	391.313934
1874.177124	357.091675
1873.371826	360.136353
1872.566406	384.908722
1871.760986	387.947693
1870.955322	415.810120
1870.149536	421.945374
1869.343506	406.364441
1868.537476	400.093231
1867.731323	372.117249
1866.924927	337.949738
1866.118530	371.992279
1865.311890	334.736816
1864.505127	368.768433
1863.698242	365.608124
1862.891235	396.525238
1862.084106	418.139954
1861.276855	411.876068
1860.469482	356.073608
1859.661865	380.779968
1858.854126	386.906494
1858.046387	365.178345
1857.238403	331.080658
1856.430298	386.711456
1855.622070	433.044037
1854.813721	361.840240
1854.005249	386.516479
1853.196533	398.817963
1852.387817	389.477631
1851.578857	343.053558
1850.769775	432.607422
1849.960693	370.744019
1849.151367	429.372925
1848.341919	407.681244
1847.532227	429.228516
1846.722534	407.544128
1845.912720	413.649445
1845.102661	385.802124
1844.292603	388.823120
1843.482300	373.330811
1842.671875	416.456024
1841.861328	404.048584
1841.050659	407.064423
1840.239868	391.579407
1839.428833	400.761871
1838.617798	450.010651
1837.806519	468.425385
1836.995117	412.884460
1836.183716	375.846466
1835.372070	403.504883
1834.560303	375.719910
1833.748291	400.289886
1832.936279	375.593414
1832.124146	366.295807
1831.311768	421.630890
1830.499390	360.018311
1829.686768	396.876404
1828.874023	421.417908
1828.061157	372.138519
1827.248169	399.750885
1826.434937	411.981506
1825.621704	362.728577
1824.808228	436.430328
1823.994751	430.210907
1823.181030	433.210846
1822.367188	470.000641
1821.553223	522.134949
1820.739136	429.920990
1819.924927	411.426453
1819.110474	414.426941
1818.296021	432.772949
1817.481323	395.874451
1816.666626	405.012543
1815.851685	383.469940
1815.036621	420.212219
1814.221436	429.341522
1813.406006	462.997406
1812.590576	423.065338
1811.774902	413.798462
1810.959229	404.534698
1810.143311	419.787170
1809.327271	410.525513
1808.511108	364.509644
1807.694824	398.136627
1806.878418	416.441895
1806.061768	413.310089
1805.245117	443.850739
1804.428223	437.654785
1803.611206	379.440796
1802.794067	403.852692
1801.976807	425.197357
1801.159424	431.242493
1800.341919	385.300568
1799.524170	455.556305
1798.706421	473.820862
1797.888428	449.289703
1797.070313	449.213867
1796.252075	446.082642
1795.433716	461.281525
1794.615234	467.312286
1793.796509	375.618988
1792.977783	436.621490
1792.158813	430.442169
1791.339844	451.735321
1790.520630	430.296753
1789.701294	418.019135
1788.881714	408.796326
1788.062134	387.375854
1787.242432	399.509125
1786.422485	420.785828
1785.602417	448.152649
1784.782349	466.365753
1783.962036	441.905914
1783.141479	429.642761
1782.320923	420.430359
1781.500244	435.589691
1780.679321	386.786987
1779.858398	408.036957
1779.037231	404.923431
1778.215942	398.766907
1777.394531	398.699463
1776.572998	438.190948
1775.751221	453.329224
1774.929443	419.790955
1774.107422	428.844299
1773.285278	434.853638
1772.463013	465.184265
1771.640625	434.706512
1770.818115	401.199646
1769.995483	398.092896
1769.172607	446.639343
1768.349731	416.185272
1767.526611	449.525513
1766.703369	440.338959
1765.880005	476.700104
1765.056519	425.010956
1764.232910	443.150696
1763.409058	424.867065
1762.585083	452.103394
1761.761108	464.161804
1760.936890	433.750977
1760.112549	464.004639
1759.288086	469.990448
1758.463379	424.435608
1757.638672	469.831268
1756.813721	451.567749
1755.988647	448.461121
1755.163574	469.592560
1754.338257	445.280060
1753.512695	484.576477
1752.687134	457.241577
1751.861328	420.833160
1751.035522	420.761841
1750.209473	441.876404
1749.383301	441.801514
1748.557007	459.879791
1747.730591	426.526703
1746.903931	462.748413
1746.077271	511.053741
1745.250366	453.521088
1744.423340	432.283478
1743.596313	468.479584
1742.768921	432.136902
1741.941528	486.449249
1741.114014	483.345856
1740.286255	477.223083
1739.458374	449.963165
1738.630493	440.828705
1737.802368	416.603027
1736.973999	446.715881
1736.145630	425.515228
1735.317139	461.650940
1734.488403	494.757568
1733.659546	455.461700
1732.830566	506.652832
1732.001465	446.261292
1731.172241	500.451355
1730.342896	500.366425
1729.513306	497.267731
1728.683594	494.170105
1727.853882	512.162537
1727.023926	497.014557
1726.193726	469.824890
1725.363525	469.745117
1724.533203	445.579956
1723.702637	454.534760
1722.871948	451.447937
1722.041138	451.371246
1721.210205	487.398163
1720.379150	487.315369
1719.547974	421.065216
1718.716553	411.972382
1717.885010	490.073639
1717.053467	447.905334
1716.221558	441.818085
1715.389648	489.823883
1714.557617	450.681580
1713.725342	435.584808
1712.893066	564.662292
1712.060547	525.527161
1711.227905	486.405273
1710.395142	498.330566
1709.562256	474.234009
1708.729126	498.161133
1707.895874	510.078278
1707.062622	494.991791
1706.229126	476.910980
1705.395508	509.818115
1704.561646	509.731415
1703.727783	434.696991
1702.893677	512.555420
1702.059570	473.508698
1701.225220	446.460724
1700.390747	449.380646
1699.556030	470.271698
1698.721313	434.253479
1697.886353	494.066437
1697.051392	485.000854
1696.216187	496.891602
1695.380859	544.692078
1694.545410	505.699402
1693.709717	457.744629
1692.874023	478.605682
1692.038086	436.653351
1691.202026	481.433014
1690.365845	460.422760
1689.529541	472.301361
1688.692993	475.209686
1687.856445	466.164063
1687.019653	481.023285
1686.182739	483.928589
1685.345703	498.779694
1684.508545	486.749939
1683.671143	501.595459
1682.833740	510.465546
1681.996094	522.317261
1681.158325	519.244141
1680.320435	498.270081
1679.482422	480.286285
1678.644287	495.117645
1677.805908	435.390686
1676.967407	477.059174
1676.128784	512.751221
1675.290039	500.741394
1674.451172	464.894897
1673.612183	503.550262
1672.772949	479.631775
1671.933594	521.250000
1671.094116	476.490173
1670.254517	527.027405
1669.414795	515.029297
1668.574829	508.988403
1667.734863	541.637939
1666.894653	479.059540
1666.054321	496.827942
1665.213867	520.539246
1664.373169	505.580444
1663.532471	517.388184
1662.691528	490.542999
1661.850464	499.376740
1661.009277	529.011292
1660.167969	549.721252
1659.326538	558.540344
1658.484863	561.415466
1657.643066	501.920715
1656.801147	552.315491
1655.959106	543.314392
1655.116943	522.442688
1654.274658	486.738464
1653.432129	540.068787
1652.589478	522.175110
1651.746704	554.716309
1650.903809	536.826233
1650.060791	504.115326
1649.217529	509.958984
1648.374146	533.586853
1647.530640	500.893188
1646.687012	494.880920
1645.843262	533.313477
1644.999390	500.636536
1644.155273	506.474670
1643.311035	476.774780
1642.466675	527.027405
1641.622192	500.294403
1640.777588	512.048157
1639.932739	494.204803
1639.087769	497.079132
1638.242798	496.994141
1637.397461	523.529297
1636.552124	473.165955
1635.706665	514.479980
1634.860962	532.129639
1634.015137	514.304077
1633.169189	531.947693
1632.323120	552.540039
1631.476929	552.445557
1630.630493	537.582275
1629.783936	522.724121
1628.937256	555.114807
1628.090454	552.067627
1627.243530	510.648987
1626.396484	495.805481
1625.549194	537.030701
1624.701782	483.834991
1623.854248	516.198975
1623.006592	513.161438
1622.158691	572.047546
1621.310791	515.933960
1620.462646	495.211823
1619.614380	536.387634
1618.765991	518.615723
1617.917358	524.419312
1617.068726	550.840515
1616.219849	547.801025
1615.370850	532.983948
1614.521729	535.836792
1613.672363	521.026794
1612.822998	529.766968
1611.973389	603.242371
1611.123657	564.891174
1610.273804	603.035706
1609.423828	579.403320
1608.573608	611.651001
1607.723389	552.743652
1606.872925	573.226318
1606.022339	502.589233
1605.171509	517.196167
1604.320679	540.612427
1603.469604	537.582153
1602.618408	537.489990
1601.767090	528.588074
1600.915649	554.922302
1600.064087	537.213623
1599.212280	534.186401
1598.360352	569.309875
1597.508301	536.937317
1596.656128	522.177307
1595.803833	519.154663
1594.951294	560.121704
1594.098633	580.550110
1593.245850	530.613892
1592.392944	515.867493
1591.539795	530.431824
1590.686646	539.130981
1589.833252	536.108948
1588.979736	521.371643
1588.126099	553.496277
1587.272217	559.257385
1586.418335	565.016479
1585.564209	559.065430
1584.709961	591.161438
1583.855591	553.021423
1583.000977	582.181824
1582.146362	587.931946
1581.291504	567.359314
1580.436523	573.109924
1579.581421	529.158630
1578.726074	567.067078
1577.870605	564.047180
1577.015137	523.041992
1576.159424	520.030579
1575.303467	554.993530
1574.447510	572.421265
1573.591309	560.642883
1572.734985	566.385559
1571.878540	601.316406
1571.021973	516.576294
1570.165161	577.765686
1569.308350	633.098999
1568.451294	586.318115
1567.594116	621.215393
1566.736694	594.864563
1565.879272	551.029785
1565.021606	574.255066
1564.163818	518.780884
1563.305908	562.401672
1562.447876	530.256470
1561.589600	570.947266
1560.731201	556.286560
1559.872681	596.958801
1559.014038	561.918213
1558.155273	561.821594
1557.296265	561.724915
1556.437134	581.998230
1555.577881	593.536072
1554.718506	555.617126
1553.859009	587.514893
1552.999268	596.137756
1552.139404	622.202576
1551.279419	578.490662
1550.419312	575.484619
1549.558960	592.821472
1548.698608	601.435913
1547.838013	607.142334
1546.977173	560.566040
1546.116333	618.549255
1545.255249	606.828857
1544.394165	592.209412
1543.532837	595.009888
1542.671265	609.417419
1541.809692	580.297546
1540.947876	600.504517
1540.085938	594.600098
1539.223877	565.497803
1538.361694	579.897827
1537.499268	594.292908
1536.636841	605.784485
1535.774170	594.088135
1534.911377	588.190735
1534.048340	593.883362
1533.185303	608.263489
1532.322021	648.702576
1531.458618	599.367371
1530.594971	578.999084
1529.731323	642.578186
1528.867432	630.891418
1528.003418	642.356689
1527.139282	546.776917
1526.275024	558.252625
1525.410522	584.184387
1524.545898	581.192139
1523.681152	583.982910
1522.816284	595.444214
1521.951172	560.661438
1521.086060	664.587036
1520.220703	603.803162
1519.355225	589.256470
1518.489502	554.498657
1517.623779	603.490723
1516.757813	583.177490
1515.891724	574.417297
1515.025513	571.432129
1514.159058	582.875610
1513.292480	594.315063
1512.425781	588.443420
1511.558960	547.965454
1510.692017	576.706177
1509.824829	628.501221
1508.957520	631.275208
1508.090088	556.233276
1507.222534	648.346497
1506.354736	607.899902
1505.486938	604.914368
1504.618896	616.330078
1503.750610	630.621399
1502.882324	572.931396
1502.013794	581.468140
1501.145142	601.514038
1500.276367	589.899902
1499.407471	647.339233
1498.538330	601.202332
1497.669067	578.089905
1496.799683	609.621277
1495.930176	577.890076
1495.060547	572.041016
1494.190674	617.927429
1493.320679	591.958374
1492.450562	614.840759
1491.580200	620.479614
1490.709717	623.244446
1489.839233	577.191101
1488.968384	637.384399
1488.097534	660.239014
1487.226440	637.164001
1486.355347	571.052734
1485.483887	602.514221
1484.612427	633.964783
1483.740845	610.910156
1482.869019	708.303772
1481.997070	679.509888
1481.124878	624.926270
1480.252686	664.944092
1479.380249	684.888489
1478.507690	719.151733
1477.635010	627.358459
1476.762207	716.038696
1475.889160	727.369385
1475.015991	773.054077
1474.142700	827.310913
1473.269165	749.889038
1472.395630	821.301086
1471.521851	841.187134
1470.647949	858.205627
1469.773804	903.820007
1468.899658	906.523193
1468.025269	1000.719727
1467.150757	1026.274780
1466.276001	1031.813354
1465.401245	1037.350098
1464.526245	1160.030762
1463.651123	1039.847412
1462.775879	1068.229492
1461.900391	1130.870483
1461.024780	1210.621216
1460.149048	1119.059570
1459.273193	1155.970947
1458.397217	1184.308105
1457.520996	1101.358276
1456.644653	1049.817627
1455.768188	1092.419678
1454.891479	1060.860718
1454.014648	1100.594727
1453.137695	1117.508545
1452.260620	1071.710083
1451.383423	1031.627075
1450.505981	1037.146729
1449.628418	1017.025208
1448.750732	1056.725220
1447.872803	1139.128784
1446.994873	1144.625732
1446.116699	1093.184204
1445.238403	1055.992065
1444.359863	1169.642700
1443.481201	1195.047852
1442.602417	1348.462891
1441.723511	1433.559814
1440.844482	1530.002563
1439.965210	1669.062500
1439.085815	1739.844849
1438.206299	1773.651489
1437.326538	1713.663818
1436.446777	1605.392944
1435.566772	1534.091431
1434.686646	1369.080811
1433.806274	1249.566284
1432.925781	1169.845215
1432.045166	1129.896973
1431.164429	1081.447144
1430.283569	990.444885
1429.402466	959.060791
1428.521240	941.872375
1427.639893	921.853455
1426.758301	836.613892
1425.876709	808.113647
1424.994873	773.953308
1424.112793	765.315308
1423.230713	787.854370
1422.348389	796.217957
1421.465942	830.075867
1420.583374	795.941162
1419.700562	877.931946
1418.817627	877.779297
1417.934570	996.530945
1417.051392	1016.171570
1416.167969	1149.008179
1415.284546	1182.763306
1414.400757	1208.019287
1413.516968	1142.751587
1412.633057	998.319641
1411.748901	902.007263
1410.864624	794.419922
1409.980103	740.575806
1409.095459	647.184570
1408.210815	700.759155
1407.325806	706.287537
1406.440796	624.249512
1405.555542	607.195862
1404.670166	669.211060
1403.784668	680.387329
1402.899048	606.878845
1402.013184	620.884216
1401.127197	643.349792
1400.241089	637.595398
1399.354736	620.559998
1398.468262	572.507935
1397.581665	600.605652
1396.694946	634.332153
1395.807983	637.040405
1394.920898	600.291931
1394.033691	628.365173
1393.146362	642.342163
1392.258789	546.459106
1391.371094	613.955261
1390.483276	616.664124
1389.595337	608.110718
1388.707153	602.375061
1387.818848	624.784851
1386.930420	624.675964
1386.041748	675.207642
1385.152954	700.405823
1384.264038	629.974121
1383.375000	604.557251
1382.485718	641.000122
1381.596313	657.753845
1380.706787	578.947266
1379.817139	592.895996
1378.927246	671.457031
1378.037231	620.778748
1377.147095	629.095886
1376.256714	673.913757
1375.366333	707.485962
1374.475586	682.099609
1373.584839	665.141602
1372.693970	645.383423
1371.802856	645.270813
1370.911499	715.284119
1370.020142	726.377502
1369.128540	675.777710
1368.236816	681.266907
1367.344971	737.209534
1366.453003	669.818726
1365.560791	624.868225
1364.668457	649.973633
1363.775879	627.451172
1362.883301	641.344788
1361.990479	683.234924
1361.097534	604.725281
1360.204346	649.406311
1359.311035	624.104797
1358.417603	615.601257
1357.524048	643.470703
1356.630249	612.588989
1355.736450	651.636108
1354.842285	615.171204
1353.948120	587.106262
1353.053711	628.932556
1352.159180	634.412170
1351.264526	634.301270
1350.369751	617.427673
1349.474731	678.772400
1348.579590	620.004700
1347.684204	625.480957
1346.788818	681.208374
1345.893188	642.010376
1344.997314	625.152954
1344.101440	594.349548
1343.205322	686.311829
1342.309082	647.140259
1341.412720	644.238159
1340.516113	694.317078
1339.619385	699.771484
1338.722534	694.074219
1337.825439	671.657104
1336.928223	646.461365
1336.030884	663.064148
1335.133423	685.232117
1334.235718	612.701965
1333.337891	648.793518
1332.439941	651.464050
1331.541870	648.566467
1330.643555	617.839294
1329.745117	645.556824
1328.846436	673.264709
1327.947754	684.273193
1327.048828	684.153442
1326.149780	684.033630
1325.250488	650.552185
1324.351074	717.149902
1323.451538	703.128479
1322.551880	644.653137
1321.651978	738.998657
1320.751953	661.093506
1319.851807	641.537170
1318.951416	666.415405
1318.050903	666.298645
1317.150269	705.042480
1316.249512	738.222229
1315.348511	685.371948
1314.447388	712.994812
1313.546021	704.548401
1312.644653	762.664795
1311.743042	720.938477
1310.841309	759.625061
1309.939331	748.404419
1309.037231	775.987000
1308.135010	742.600220
1307.232666	761.862854
1306.330078	731.260132
1305.427368	794.828979
1304.524536	772.537964
1303.621460	830.540283
1302.718262	844.234497
1301.814941	902.203796
1300.911499	929.715637
1300.007813	946.151672
1299.104004	984.710266
1298.199951	1081.331909
1297.295898	1230.455811
1296.391602	1437.583740
1295.487061	1973.566650
1294.582520	2293.799316
1293.677734	2519.973389
1292.772827	2323.383301
1291.867676	1864.457031
1290.962402	1364.266846
1290.057007	1038.207031
1289.151489	905.510925
1288.245728	794.943115
1287.339844	723.050415
1286.433838	775.349182
1285.527588	725.555237
1284.621216	761.285461
1283.714722	656.355469
1282.808105	661.754822
1281.901245	653.368042
1280.994263	642.227905
1280.087036	628.335754
1279.179810	611.693115
1278.272217	655.663818
1277.364624	633.513367
1276.456787	611.370667
1275.548828	680.099121
1274.640747	644.191162
1273.732544	668.850159
1272.824097	693.500427
1271.915405	679.620972
1271.006714	643.738281
1270.097778	605.117615
1269.188721	638.011780
1268.279541	610.403931
1267.370117	643.285522
1266.460571	607.440613
1265.550781	634.814941
1264.640991	582.498230
1263.730957	609.867249
1262.820679	634.479919
1261.910400	557.475159
1260.999878	595.816895
1260.089233	601.202454
1259.178345	631.288696
1258.267334	554.338562
1257.356201	578.934937
1256.444824	567.859863
1255.533447	603.416321
1254.621704	573.144592
1253.709961	548.367188
1252.797974	570.201416
1251.885864	561.878418
1250.973633	517.933289
1250.061157	564.420471
1249.148560	583.497009
1248.235840	575.177429
1247.322876	566.860718
1246.409790	618.782410
1245.496582	585.823486
1244.583130	541.928101
1243.669556	563.724792
1242.755859	560.889465
1241.841919	610.030762
1240.927856	590.777649
1240.013672	596.142761
1239.099365	546.823547
1238.184814	565.862610
1237.270142	579.428650
1236.355225	551.999756
1235.440186	579.224365
1234.525024	527.219727
1233.609741	548.976624
1232.694214	529.764587
1231.778564	573.355347
1230.862671	573.254211
1229.946777	597.716858
1229.030640	578.509644
1228.114258	570.222595
1227.197876	578.305603
1226.281128	545.475037
1225.364380	605.370483
1224.447388	558.914612
1223.530273	602.430908
1222.613037	602.324585
1221.695557	585.868469
1220.777954	577.591614
1219.860229	572.041626
1218.942261	550.152405
1218.024170	604.516235
1217.105957	582.628967
1216.187500	536.250671
1215.268921	587.866455
1214.350220	585.041504
1213.431274	582.217529
1212.512207	571.234070
1211.593018	568.413513
1210.673706	541.121094
1209.754150	598.118652
1208.834351	576.267029
1207.914551	587.036255
1206.994507	538.021484
1206.074219	559.660828
1205.153931	526.966064
1204.233398	559.463013
1203.312744	572.940979
1202.391846	542.976013
1201.470825	553.737610
1200.549683	597.062500
1199.628296	545.401550
1198.706787	594.138428
1197.785156	547.921204
1196.863281	593.928345
1195.941284	553.150452
1195.019165	574.740967
1194.096802	569.218201
1193.174438	588.088135
1192.251709	579.855286
1191.328979	647.480835
1190.406006	541.729126
1189.482788	560.590454
1188.559570	611.937317
1187.636108	609.121826
1186.712402	568.413086
1185.788696	573.724976
1184.864746	573.623413
1183.940552	578.932495
1183.016357	616.697388
1182.091919	600.362244
1181.167236	548.882690
1180.242554	597.446289
1179.317505	554.094116
1178.392456	594.532288
1177.467163	618.744507
1176.541748	580.814453
1175.616211	699.554871
1174.690430	594.111267
1173.764526	591.305969
1172.838501	604.698975
1171.912231	647.776978
1170.985840	677.346741
1170.059204	733.887146
1169.132446	782.314575
1168.205566	765.992981
1167.278564	730.800354
1166.351318	703.708801
1165.423828	628.103821
1164.496338	646.859192
1163.568604	598.238708
1162.640747	584.661194
1161.712646	592.638977
1160.784424	624.853882
1159.856079	570.885925
1158.927490	573.477112
1157.998779	592.218689
1157.069946	578.656555
1156.140869	653.900452
1155.211670	591.903625
1154.282349	626.768555
1153.352783	618.588806
1152.423096	583.521545
1151.493164	594.172241
1150.563232	661.268982
1149.632935	567.085327
1148.702637	585.794617
1147.772095	583.003967
1146.841431	609.762268
1145.910522	588.168396
1144.979492	585.378784
1144.048340	593.329102
1143.116943	566.381042
1142.185425	590.434631
1141.253784	630.579529
1140.321899	625.101868
1139.389893	665.226318
1138.457764	622.197998
1137.525391	632.813110
1136.592896	630.019775
1135.660278	694.238892
1134.727417	753.075134
1133.794434	857.442078
1132.861206	929.623596
1131.927856	1082.135986
1130.994385	1298.868042
1130.060669	1507.490234
1129.126831	1836.508789
1128.192871	1994.104736
1127.258667	1752.894531
1126.324341	1597.392456
1125.389893	1417.868408
1124.455200	1152.816284
1123.520386	1042.966187
1122.585327	906.417053
1121.650146	852.789490
1120.714844	785.816650
1119.779297	737.574219
1118.843628	745.458740
1117.907837	707.926208
1116.971802	662.394226
1116.035645	691.651550
1115.099365	640.798584
1114.162842	686.066406
1113.226196	632.563416
1112.289307	613.770874
1111.352417	664.355469
1110.415161	661.569580
1109.477905	642.781799
1108.540405	629.334045
1107.602661	602.560059
1106.664917	591.789917
1105.726807	666.311401
1104.788696	615.562134
1103.850342	591.473816
1102.911865	641.981140
1101.973145	607.243286
1101.034302	615.123718
1100.095337	620.338928
1099.156128	596.271118
1098.216797	580.196167
1097.277344	604.041626
1096.337646	569.347473
1095.397827	585.206177
1094.457764	606.378357
1093.517700	651.474609
1092.577271	646.041321
1091.636841	624.661072
1090.696167	629.865051
1089.755249	666.953369
1088.814209	696.058289
1087.873047	685.309265
1086.931763	645.350586
1085.990234	621.337891
1085.048584	706.181213
1084.106689	650.314087
1083.164673	682.044556
1082.222412	692.536499
1081.280151	687.107117
1080.337524	686.984558
1079.394897	668.298157
1078.452026	692.042419
1077.509033	718.429260
1076.565796	726.252747
1075.622437	667.821289
1074.678955	627.957947
1073.735229	699.372559
1072.791382	675.409729
1071.847290	672.640991
1070.903076	714.884460
1069.958740	682.989868
1069.014160	759.624390
1068.069458	722.440491
1067.124512	836.082153
1066.179565	912.648254
1065.234253	1050.019287
1064.288940	1224.362915
1063.343384	1361.629150
1062.397583	1448.620361
1061.451660	1551.438354
1060.505615	1503.595825
1059.559448	1379.150757
1058.613037	1196.635376
1057.666382	1090.777222
1056.719727	942.706726
1055.772827	858.053040
1054.825684	760.231079
1053.878418	683.557800
1052.931030	672.880615
1051.983398	672.760376
1051.035645	672.640076
1050.087769	693.618469
1049.139648	588.020020
1048.191406	585.278442
1047.242920	590.445618
1046.294312	619.329956
1045.345581	595.504395
1044.396606	579.590820
1043.447510	568.951050
1042.498291	592.551331
1041.548828	650.373291
1040.599121	676.583069
1039.649414	642.244080
1038.699341	626.339111
1037.749268	586.758911
1036.798950	539.300659
1035.848511	552.355469
1034.897827	578.554565
1033.947021	575.821655
1032.996094	596.749390
1032.044922	567.730347
1031.093506	546.605408
1030.142090	593.801453
1029.190430	551.663574
1028.238525	611.974304
1027.286499	556.718079
1026.334351	596.001709
1025.381958	535.517944
1024.429443	545.920471
1023.476807	614.050537
1022.523926	587.703735
1021.570923	577.105591
1020.617737	603.229553
1019.664368	579.521057
1018.710815	542.712036
1017.757080	558.342712
1016.803223	571.346924
1015.849121	579.105652
1014.894897	599.961182
1013.940491	500.314575
1012.985962	544.747498
1012.031189	573.453430
1011.076294	523.607849
1010.121216	575.865356
1009.165955	586.230469
1008.210510	573.042175
1007.254944	565.090881
1006.299133	564.989502
1005.343201	572.733826
1004.387085	520.335999
1003.430786	564.685486
1002.474365	504.466400
1001.517700	556.642822
1000.560913	590.510315
999.603943	556.442993
998.646790	543.283447
997.689514	579.746521
996.731995	553.532410
995.774353	529.938232
994.816528	595.094727
993.858521	537.576782
992.900330	571.398865
991.942017	545.209656
990.983459	615.532898
990.024780	542.406128
989.065918	555.344971
988.106873	568.279175
987.147705	562.964417
986.188293	594.133484
985.228760	570.578308
984.269043	560.056152
983.309143	572.977722
982.349060	570.270752
981.388794	557.150696
980.428406	572.668823
979.467834	559.553040
978.507019	598.484009
977.546082	564.555115
976.585022	613.875854
975.623718	577.355652
974.662292	579.852051
973.700623	610.945007
972.738831	538.054749
971.776855	530.161499
970.814758	553.451416
969.852417	540.362366
968.889954	581.824036
967.927246	540.167969
966.964417	527.088318
966.001404	555.549805
965.038208	563.236511
964.074890	537.184204
963.111328	630.494080
962.147644	630.380615
961.183777	580.987000
960.219727	562.729797
959.255493	570.406799
958.291077	616.965332
957.326538	603.895142
956.361755	567.507385
955.396851	572.586975
954.431763	543.989197
953.466492	567.200867
952.501038	595.583069
951.535461	554.051392
950.569641	569.482971
949.603699	556.439880
948.637573	545.989136
947.671265	535.542114
946.704773	597.526306
945.738098	651.729370
944.771240	576.624817
943.804260	586.862122
942.837097	597.095642
941.869751	550.469482
940.902222	547.786316
939.934509	607.106506
938.966614	612.162964
937.998535	568.150085
937.030334	557.719543
936.061951	598.924072
935.093323	591.072754
934.124573	624.514404
933.155640	549.576782
932.186584	598.492065
931.217285	611.280273
930.247864	613.748779
929.278198	580.119995
928.308411	554.236877
927.338440	644.345215
926.368286	628.767395
925.397949	587.430725
924.427429	577.020752
923.456787	576.916626
922.485901	576.812439
921.514893	566.409973
920.543701	594.623108
919.572327	581.647400
918.600769	612.420776
917.629028	602.019226
916.657104	558.181946
915.685059	630.091614
914.712769	660.833862
913.740356	678.710632
912.767761	632.320679
911.794983	614.216797
910.822021	590.980530
909.848877	601.149780
908.875549	580.492737
907.902039	616.341064
906.928406	641.905884
905.954590	551.939331
904.980530	610.873535
904.006348	595.365723
903.031982	595.258118
902.057434	610.542297
901.082703	638.645142
900.107849	605.192810
899.132751	579.444214
898.157532	589.593201
897.182068	586.923584
896.206482	607.317627
895.230713	612.331909
894.254761	622.467468
893.278625	576.254517
892.302307	647.848938
891.325806	629.810303
890.349182	632.256104
889.372314	632.141663
888.395325	644.821350
887.418091	606.329346
886.440735	642.030029
885.463196	585.650452
884.485474	585.544434
883.507568	611.003418
882.529480	580.220337
881.551270	661.893677
880.572815	597.896057
879.594238	597.787781
878.615417	615.558777
877.636475	620.554749
876.657349	633.208618
875.677979	594.801941
874.698486	615.112915
873.718811	653.279541
872.739014	614.890015
871.758972	716.816528
870.778748	734.540039
869.798401	729.306885
868.817810	594.047913
867.837097	637.274963
866.856140	611.673035
865.875061	593.724915
864.893799	593.617310
863.912354	624.076660
862.930725	606.135986
861.948914	580.562805
860.966919	672.108704
859.984741	646.532776
859.002441	674.409851
858.019897	605.586548
857.037231	625.828857
856.054321	663.868713
855.071289	602.713928
854.088074	554.294495
853.104614	650.796509
852.121033	627.803040
851.137268	625.147827
850.153320	614.871216
849.169189	685.888794
848.184937	678.144714
847.200439	637.391113
846.215759	637.275391
845.230896	619.390259
844.245911	598.973633
843.260681	593.789734
842.275330	634.275513
841.289795	677.283264
840.304016	667.015503
839.318115	644.072876
838.332031	590.715393
837.345764	600.747314
836.359314	577.829102
835.372681	592.927368
834.385864	618.153809
833.398865	618.041504
832.411743	577.409241
831.424377	645.669250
830.436829	658.209778
829.449158	675.807922
828.461243	647.847900
827.473206	657.850891
826.484924	619.785217
825.496521	629.789673
824.507935	758.644714
823.519104	718.053101
822.530151	609.222961
821.541016	634.386536
820.551697	697.445557
819.562195	621.523132
818.572510	611.305847
817.582642	649.078613
816.592590	598.457764
815.602356	618.546265
814.611938	679.014954
813.621399	651.130066
812.630615	645.964966
811.639648	615.573242
810.648560	645.729797
809.657227	653.178040
808.665771	650.537659
807.674072	605.041138
806.682251	587.287109
805.690186	622.461365
804.697998	609.749878
803.705566	622.234680
802.713013	629.677490
801.720276	566.606506
800.727356	589.163452
799.734253	604.160095
798.740906	624.185059
797.747437	651.751892
796.753784	669.244812
795.759949	603.719910
794.765930	618.700134
793.771729	661.335266
792.777344	648.644104
791.782776	643.498535
790.788025	655.947266
789.793091	658.340393
788.798035	678.318726
787.802734	680.706848
786.807251	720.764771
785.811584	700.545959
784.815796	670.292664
783.819763	614.950378
782.823547	619.857300
781.827148	629.780579
780.830627	642.208801
779.833862	601.960938
778.836975	569.250854
777.839844	641.857361
776.842529	584.083862
775.845093	629.091431
774.847412	628.976563
773.849609	626.356384
772.851563	641.271851
771.853394	653.677307
770.854980	636.029602
769.856445	583.337952
768.857666	628.287964
767.858765	673.221497
766.859680	693.116333
765.860352	620.438477
764.860901	662.847473
763.861206	670.228943
762.861389	630.100159
761.861389	577.486267
760.861145	589.878174
759.860779	634.752869
758.860168	587.164063
757.859436	589.554871
756.858521	624.414368
755.857361	629.294617
754.856079	659.140503
753.854614	614.086853
752.852905	633.941223
751.851074	658.779114
750.848999	641.194214
749.846802	705.932983
748.844421	780.624084
747.841797	770.507141
746.839050	718.011230
745.836121	620.666992
744.832947	695.318970
743.829651	685.224854
742.826111	707.520935
741.822449	692.446594
740.818604	687.339172
739.814514	744.481201
738.810303	637.298645
737.805847	669.538940
736.801270	664.439331
735.796448	674.270020
734.791504	646.782715
733.786316	659.100159
732.781006	666.439636
731.775452	683.721436
730.769775	715.911682
729.763855	738.148743
728.757751	700.740112
727.751526	628.563049
726.745056	603.608093
725.738403	712.772766
724.731628	722.574524
723.724609	712.511658
722.717407	657.773499
721.710083	694.878601
720.702515	650.088684
719.694763	649.969543
718.686829	719.300110
717.678711	724.128052
716.670410	674.406555
715.661987	629.661316
714.653320	644.416992
713.644470	691.382263
712.635437	688.777832
711.626221	686.174377
710.616821	703.385498
709.607178	718.114075
708.597412	698.175964
707.587463	712.899963
706.577332	640.997314
705.567017	670.572937
704.556458	692.715820
703.545776	660.432800
702.534912	647.946228
701.523804	647.827332
700.512573	662.541443
699.501099	652.532959
698.489502	677.125854
697.477661	667.118286
696.465698	632.410889
695.453491	652.053955
694.441101	688.975952
693.428589	646.876587
692.415833	710.939819
691.402893	678.724121
690.389771	666.261292
689.376465	621.729675
688.362976	611.748535
687.349304	660.961670
686.335449	678.101013
685.321411	710.026245
684.307190	633.483337
683.292725	685.120667
682.278137	684.994751
681.263367	679.941772
680.248352	660.111938
679.233215	741.258118
678.217834	787.903625
677.202332	706.521179
676.186584	662.088013
675.170654	674.270447
674.154541	637.240662
673.138306	646.963196
672.121826	710.790833
671.105164	656.561401
670.088318	651.523499
669.071289	703.024292
668.054016	604.587952
667.036621	690.479553
666.019043	633.846741
665.001282	643.555420
663.983276	667.995667
662.965149	643.318604
661.946777	657.929932
660.928223	679.899475
659.909546	679.774292
658.890625	662.473938
657.871521	704.055603
656.852234	662.229980
655.832764	632.681030
654.813110	664.437927
653.793274	654.510193
652.773254	681.349548
651.752991	700.827576
650.732605	641.898621
649.711975	744.661194
648.691223	749.422180
647.670227	685.619446
646.649048	732.008728
645.627747	731.873840
644.606201	707.266113
643.584473	743.838318
642.562561	741.254822
641.540466	748.455994
640.518127	682.289978
639.495667	760.405273
638.473022	799.378418
637.450134	733.239441
636.427063	723.329529
635.403870	688.990906
634.380432	735.276672
633.356812	715.602417
632.333008	761.866150
631.309021	722.662720
630.284851	742.057251
629.260498	741.920349
628.235901	744.223511
627.211182	773.361755
626.186218	724.435486
625.161133	724.301819
624.135803	750.989197
623.110291	733.785767
622.084595	765.336243
621.058716	750.573364
620.032654	738.252441
619.006409	738.116150
617.979919	728.237549
616.953308	742.713806
615.926453	749.880676
614.899414	795.992554
613.872253	783.676636
612.844849	798.131836
611.817261	824.746094
610.789490	758.918091
609.761475	719.866211
608.733337	710.007080
607.705017	753.635376
606.676453	746.204224
605.647705	731.485168
604.618774	733.779724
603.589722	753.078369
602.560425	738.366150
601.530884	713.945801
600.501221	691.962341
599.471375	793.788940
598.441284	762.090637
597.411011	803.201782
596.380615	698.729126
595.349976	756.816528
594.319153	691.194946
593.288147	717.739807
592.256897	775.791443
591.225525	761.104492
590.193970	727.035339
589.162170	717.208801
588.130188	714.653564
587.098022	707.254944
586.065674	707.124084
585.033142	731.205261
584.000427	692.337769
582.967468	704.311157
581.934387	757.417786
580.901062	687.114502
579.867554	711.176941
578.833862	766.671265
577.799988	735.094299
576.765930	676.935181
575.731628	696.147217
574.697205	725.018982
573.662537	705.554443
572.627747	707.839539
571.592712	722.200745
570.557434	743.801392
569.522034	712.275146
568.486450	704.901062
567.450623	714.424805
566.414673	673.268799
565.378479	752.763245
564.342102	701.966309
563.305542	728.366089
562.268799	778.869629
561.231812	732.917847
560.194702	771.349426
559.157349	816.996765
558.119812	838.531372
557.082092	768.511230
556.044189	826.176941
555.006042	840.473083
553.967773	837.909363
552.929260	758.311768
551.890625	743.729675
550.851746	750.811035
549.812683	762.701721
548.773376	779.399048
547.733948	752.798218
546.694275	824.798279
545.654419	771.752502
544.614441	742.763977
543.574158	800.305786
542.533752	816.977356
541.493164	780.789185
540.452332	747.016479
539.411316	799.711548
538.370178	806.766296
537.328735	804.215820
536.287170	748.861877
535.245422	746.322998
534.203430	794.170471
533.161255	753.242249
532.118896	755.500732
531.076355	707.400940
530.033630	774.400146
528.990723	781.447449
527.947571	836.424744
526.904236	781.156982
525.860718	819.343628
524.817017	871.887817
523.773132	866.936035
522.729004	917.057373
521.684692	933.644531
520.640198	847.304382
519.595520	804.071533
518.550659	803.921997
517.505615	796.595886
516.460327	815.581604
515.414856	746.082458
514.369202	755.507019
513.323364	762.537659
512.277283	793.465210
511.231079	795.707031
510.184631	788.391785
509.138000	759.581543
508.091187	768.992859
507.044159	682.891357
505.996948	709.024414
504.949554	801.979309
503.901947	808.989136
502.854126	744.417786
501.806152	851.627075
500.757965	872.934082
499.709564	870.386841
