#Wave		#Intensity
3200.600830	4.209852
3200.007080	25.259113
3199.413086	42.092159
3198.819092	16.834320
3198.224854	4.207944
3197.630615	12.621923
3197.036377	8.413343
3196.442139	16.824142
3195.847656	33.643200
3195.252930	12.614292
3194.658447	25.224771
3194.063721	37.831436
3193.468750	4.202857
3192.873779	8.404444
3192.278809	42.015862
3191.683838	46.210461
3191.088623	12.600946
3190.493164	20.998402
3189.897949	25.194271
3189.302490	20.992050
3188.706787	25.186649
3188.111328	25.182840
3187.515381	46.161556
3186.919678	8.391741
3186.323730	16.780941
3185.727783	0.000000
3185.131592	8.387932
3184.535400	16.773325
3183.939209	37.734272
3183.342773	8.384125
3182.746338	0.000000
3182.149902	20.953968
3181.553223	12.570478
3180.956543	50.274303
3180.359619	20.944456
3179.762695	25.129543
3179.165771	29.313362
3178.568604	16.747957
3177.971436	16.745420
3177.374268	29.300051
3176.776855	4.185088
3176.179443	29.291180
3175.581787	16.735283
3174.984131	16.732748
3174.386475	46.008091
3173.788574	8.363840
3173.190674	29.269009
3172.592773	4.180654
3171.994629	33.440163
3171.396484	37.614487
3170.798340	25.072525
3170.199951	50.137455
3169.601563	0.000000
3169.002930	29.237988
3168.404297	29.233559
3167.805664	41.755898
3167.206787	58.449402
3166.607910	29.220272
3166.008789	29.215845
3165.409912	12.519178
3164.810547	33.379417
3164.211426	25.030769
3163.612061	20.855812
3163.012695	4.170530
3162.413086	29.189287
3161.813477	4.169266
3161.213623	29.180439
3160.614014	0.000000
3160.013916	25.004221
3159.414063	8.333477
3158.813965	16.664427
3158.213867	16.661900
3157.613525	24.989061
3157.013184	33.313694
3156.412598	8.327161
3155.812256	24.977694
3155.211426	37.460857
3154.610840	12.485059
3154.010010	20.805275
3153.409180	45.764664
3152.808105	54.077309
3152.207031	41.591618
3151.605957	20.792654
3151.004639	12.473701
3150.403320	29.100885
3149.801758	62.349579
3149.200195	33.248062
3148.598633	12.466131
3147.996826	37.392719
3147.395020	58.157627
3146.793213	16.613943
3146.191162	12.458566
3145.589111	8.304450
3144.986816	16.606379
3144.384766	20.754824
3143.782227	41.503345
3143.179932	24.898228
3142.577393	41.490746
3141.974609	37.336002
3141.371826	37.330334
3140.769043	37.324665
3140.166260	8.293111
3139.563232	20.729628
3138.960205	24.871777
3138.356934	24.868000
3137.753662	62.160557
3137.150391	8.286816
3136.546875	24.856670
3135.943359	45.563641
3135.339600	16.566080
3134.735840	49.690693
3134.132080	16.561049
3133.528076	57.954861
3132.924072	8.278008
3132.320068	33.107002
3131.715820	16.550985
3131.111572	41.371178
3130.507080	41.364891
3129.902588	37.222744
3129.298096	20.676159
3128.693604	4.134604
3128.088867	33.071800
3127.483887	37.200119
3126.878906	24.796310
3126.273926	24.792542
3125.668945	53.709007
3125.063721	28.915838
3124.458252	24.781237
3123.853027	37.166203
3123.247559	49.547401
3122.641846	12.384968
3122.036133	37.149254
3121.430420	24.762402
3120.824707	16.505758
3120.218750	20.629059
3119.612549	20.625921
3119.006592	24.747341
3118.400391	12.371789
3117.793945	24.739815
3117.187500	4.122675
3116.581055	37.098431
3115.974609	24.728525
3115.367920	28.845558
3114.760986	45.321838
3114.154297	53.554020
3113.547363	20.594566
3112.940186	24.709719
3112.333008	8.235320
3111.725830	8.234066
3111.118408	0.000000
3110.510986	57.620922
3109.903564	8.230308
3109.295898	-8.229054
3108.688232	24.683407
3108.080566	20.566374
3107.472656	16.450594
3106.864746	12.336067
3106.256592	32.891171
3105.648438	45.218475
3105.040039	16.440578
3104.431885	20.547594
3103.823486	41.088932
3103.214844	-16.433069
3102.606201	0.000000
3101.997559	28.749113
3101.388672	20.531952
3100.779785	49.269180
3100.170898	16.420559
3099.561768	0.000000
3098.952637	4.103889
3098.343262	12.309792
3097.733887	36.923748
3097.124512	65.632217
3096.514893	32.811111
3095.905273	32.806110
3095.295410	28.700974
3094.685791	24.597086
3094.075684	49.186672
3093.465820	24.589588
3092.855713	24.585842
3092.245361	-4.097016
3091.635254	32.771130
3091.024658	8.191534
3090.414307	-4.095142
3089.803711	32.756145
3089.193115	20.469469
3088.582275	12.279809
3087.971436	24.555874
3087.360596	28.644152
3086.749512	36.822578
3086.138428	28.635418
3085.527100	4.090150
3084.915771	32.716209
3084.304443	12.266707
3083.692871	40.882790
3083.081299	36.788898
3082.469482	16.348127
3081.857910	24.518452
3081.245850	49.029423
3080.634033	32.681293
3080.021973	24.507231
3079.409668	16.335661
3078.797607	28.583046
3078.185059	32.661354
3077.572754	48.984554
3076.960205	20.407116
3076.347656	28.565603
3075.734863	12.240533
3075.122070	32.636440
3074.509033	12.236797
3073.895996	-4.078310
3073.282959	12.233062
3072.669922	8.154130
3072.056641	16.305769
3071.443115	12.227460
3070.829834	20.375990
3070.216064	24.447454
3069.602539	0.000000
3068.988770	24.439989
3068.375000	36.654385
3067.760986	28.504612
3067.146973	40.714657
3066.532715	8.141687
3065.918701	32.561775
3065.304199	24.417603
3064.689941	44.758766
3064.075439	40.683571
3063.460693	12.203207
3062.846191	12.201343
3062.231445	52.864407
3061.616455	20.329359
3061.001465	32.522003
3060.386475	36.581665
3059.771240	8.128016
3059.156006	81.267746
3058.540771	36.564896
3057.925293	44.683598
3057.309814	24.369146
3056.694092	0.000000
3056.078369	48.723396
3055.462646	12.178987
3054.846680	24.354250
3054.230713	4.058421
3053.614502	20.289003
3052.998291	20.285902
3052.382080	52.735279
3051.765625	36.503456
3051.149170	8.110640
3050.532715	24.328197
3049.916016	8.108159
3049.299316	8.106918
3048.682373	24.317038
3048.065430	32.417755
3047.448486	-8.103200
3046.831299	36.458820
3046.214111	28.352522
3045.596680	8.099482
3044.979248	40.491211
3044.361816	-12.145505
3043.744141	0.000000
3043.126465	40.472630
3042.508545	44.513081
3041.890869	4.046024
3041.272705	40.454052
3040.654785	12.134358
3040.036621	16.176668
3039.418213	8.087096
3038.799805	68.729797
3038.181396	32.338482
3037.562988	32.333534
3036.944336	8.082146
3036.325439	36.364090
3035.706543	44.438194
3035.087646	-4.039217
3034.468750	16.154396
3033.849609	28.265863
3033.230469	8.074724
3032.611084	4.036744
3031.991699	0.000000
3031.372070	28.248552
3030.752441	24.209337
3030.132813	32.274170
3029.513184	12.100961
3028.893066	40.330357
3028.273193	4.032418
3027.653076	36.286201
3027.032959	28.218277
3026.412598	4.030565
3025.792480	36.269524
3025.171875	-4.029330
3024.551270	32.229698
3023.930664	28.196665
3023.310059	16.109911
3022.689209	24.161163
3022.068115	24.157459
3021.447266	20.128132
3020.826172	32.200073
3020.204834	48.292706
3019.583496	32.190201
3018.962158	16.092634
3018.340576	8.045083
3017.718994	40.219250
3017.097412	20.106541
3016.475586	20.103458
3015.853760	44.220829
3015.231689	20.097294
3014.609619	-16.075369
3013.987549	16.072905
3013.365234	24.105658
3012.742920	24.101961
3012.120361	28.114641
3011.497803	20.078806
3010.875244	12.045436
3010.252441	20.072647
3009.629639	36.125221
3009.006836	16.053190
3008.383789	4.012682
3007.760498	16.048265
3007.137451	0.000000
3006.514160	28.075846
3005.890625	28.071537
3005.267090	40.096043
3004.643555	52.116856
3004.019775	20.041868
3003.395996	28.054308
3002.772217	16.028572
3002.148193	48.078335
3001.524170	44.065041
3000.899902	4.005298
3000.275635	28.032782
2999.651367	32.032547
2999.026855	52.044895
2998.402344	28.019871
2997.777588	36.020016
2997.152832	8.003219
2996.528076	4.000995
2995.903076	28.002663
2995.278076	7.999532
2994.653076	47.989819
2994.027832	51.980984
2993.402344	31.983385
2992.777100	15.989236
2992.151367	31.973558
2991.525879	7.992162
2990.900146	55.936535
2990.274414	43.943382
2989.648438	51.925110
2989.022461	39.936253
2988.396240	15.972047
2987.770264	35.931583
2987.143799	35.926060
2986.517578	23.947025
2985.891113	23.943346
2985.264404	35.909496
2984.637695	27.925316
2984.010986	23.932306
2983.384033	23.928627
2982.757080	11.962474
2982.130127	43.855659
2981.502930	31.890121
2980.875732	15.942609
2980.248291	43.835434
2979.620850	19.922132
2978.993408	43.821953
2978.365723	3.983201
2977.738037	15.930354
2977.110107	27.873831
2976.482178	-7.962727
2975.854248	19.903755
2975.226074	35.821247
2974.597900	-3.979526
2973.969482	31.831312
2973.341309	23.869812
2972.712646	27.843828
2972.083984	39.770779
2971.455322	51.694057
2970.826660	51.686100
2970.197754	15.900969
2969.568604	43.720932
2968.939697	47.688221
2968.310547	19.867035
2967.681152	19.863976
2967.051758	27.805286
2966.422363	27.801006
2965.792725	47.651531
2965.163086	3.970350
2964.533203	31.757906
2963.903564	59.536903
2963.273438	43.653675
2962.643311	39.679047
2962.013184	67.443993
2961.383057	43.633511
2960.752686	15.864287
2960.122314	35.689148
2959.491699	47.578205
2958.861084	31.713917
2958.230225	31.709032
2957.599609	31.704147
2956.968506	39.624077
2956.337646	51.503365
2955.706299	3.961187
2955.075195	39.605766
2954.443848	11.879899
2953.812500	39.593563
2953.180908	31.669968
2952.549316	35.623222
2951.917725	31.660208
2951.285889	43.526077
2950.653809	15.825225
2950.021973	11.867089
2949.389893	39.550865
2948.757568	43.499245
2948.125244	15.815469
2947.492920	7.906515
2946.860352	31.621185
2946.227783	43.472427
2945.595215	47.417152
2944.962402	27.655741
2944.329590	23.701265
2943.696533	35.546413
2943.063477	51.336903
2942.430420	59.225750
2941.797119	75.007713
2941.163574	51.313152
2940.530273	43.412121
2939.896729	63.135166
2939.262939	59.180084
2938.629150	51.281494
2937.995361	39.441219
2937.361328	55.209187
2936.727295	63.086475
2936.093262	47.307556
2935.458984	94.600510
2934.824707	47.292957
2934.190186	82.749901
2933.555664	82.737129
2932.921143	55.149570
2932.286377	90.588882
2931.651367	66.946663
2931.016602	47.249172
2930.381592	59.052349
2929.746338	66.915665
2929.111084	47.227295
2928.475830	70.830002
2927.840332	62.950279
2927.204834	74.741913
2926.569336	78.663551
2925.933594	51.123409
2925.297607	62.911404
2924.661865	78.627106
2924.025879	74.684219
2923.389648	62.882256
2922.753418	94.308815
2922.117188	62.862831
2921.480713	70.709763
2920.844238	106.048248
2920.207764	90.323441
2919.571045	70.676987
2918.934082	70.666069
2918.297363	62.804577
2917.660156	58.870190
2917.023193	62.785168
2916.385986	70.622398
2915.748779	70.611481
2915.111328	62.756058
2914.473877	82.354599
2913.836182	47.052494
2913.198486	58.806526
2912.560791	105.835381
2911.922852	74.465233
2911.284912	97.965424
2910.646729	94.032265
2910.008545	97.935127
2909.370361	47.001595
2908.731934	74.407684
2908.093506	54.818233
2907.455078	93.959579
2906.816406	82.201920
2906.177490	90.016747
2905.538574	78.263321
2904.899658	66.513535
2904.260498	70.415199
2903.621338	113.429161
2902.982178	97.768631
2902.342773	93.843361
2901.703369	82.100235
2901.063721	46.907162
2900.424072	109.433105
2899.784424	105.508453
2899.144531	93.770775
2898.504639	117.195328
2897.864502	124.988998
2897.224365	132.780258
2896.583984	101.522125
2895.943848	89.794136
2895.303223	144.429062
2894.662842	101.474983
2894.021973	132.677505
2893.381348	109.246918
2892.740479	148.240707
2892.099609	101.412148
2891.458496	101.396446
2890.817383	105.280006
2890.176025	93.567734
2889.534668	136.431808
2888.893311	113.025986
2888.251709	109.111641
2887.610107	109.094734
2886.968262	124.660385
2886.326416	105.165901
2885.684570	124.621758
2885.042480	144.071579
2884.400391	151.835709
2883.758057	182.953140
2883.115723	116.760506
2882.473389	179.005035
2881.830811	186.758911
2881.188232	186.729965
2880.545410	178.921814
2879.902588	217.784103
2879.259766	244.969131
2878.616699	198.277603
2877.973633	186.585297
2877.330322	225.422272
2876.687012	167.097504
2876.043457	194.269287
2875.399902	139.852203
2874.756348	155.367233
2874.112549	166.993881
2873.468750	135.904175
2872.824707	124.235977
2872.180664	131.980255
2871.536621	128.078613
2870.892334	112.536476
2870.248047	139.678772
2869.603760	128.019012
2868.958984	104.726585
2868.314453	120.222977
2867.669678	108.571648
2867.024902	96.923935
2866.379883	112.414314
2865.734863	104.645363
2865.089844	69.752747
2864.444580	127.860199
2863.799316	108.470604
2863.153809	112.327118
2862.508301	139.418915
2861.862549	131.652985
2861.216797	116.146362
2860.571045	108.386444
2859.925049	131.591675
2859.279053	89.004082
2858.632813	92.859406
2857.986572	135.398941
2857.340332	162.453491
2856.693848	146.958908
2856.047363	119.868912
2855.400635	131.448715
2854.753906	162.352600
2854.107178	143.002701
2853.460205	142.980484
2852.813232	158.413223
2852.166016	181.567444
2851.518799	150.638947
2850.871338	154.477478
2850.223877	185.344162
2849.576416	154.429474
2848.928711	212.307541
2848.281006	146.662415
2847.633301	192.946869
2846.985352	181.341873
2846.337158	254.610718
2845.688965	250.714005
2845.040771	192.826950
2844.392578	215.932617
2843.743896	185.056335
2843.095459	188.882309
2842.446777	219.686066
2841.798096	169.555862
2841.149170	192.647171
2840.500244	150.241425
2839.851074	165.625046
2839.202148	138.641266
2838.552734	146.320801
2837.903320	146.298050
2837.253906	88.535042
2836.604492	88.521278
2835.954834	111.596420
2835.304932	100.036400
2834.655029	69.245193
2834.005127	107.697990
2833.354980	80.760925
2832.704834	42.296761
2832.054688	69.202118
2831.404297	69.191345
2830.753906	49.963753
2830.103271	73.012581
2829.452637	38.421696
2828.801758	65.306717
2828.150879	72.978500
2827.500000	65.286392
2826.848877	42.237560
2826.197754	61.426888
2825.546387	42.224411
2824.895020	38.379852
2824.243408	61.398201
2823.591797	57.551853
2822.940186	53.706699
2822.288330	26.849169
2821.636475	30.679985
2820.984619	26.840807
2820.332520	34.504234
2819.680176	15.332827
2819.028076	45.991318
2818.375488	42.152142
2817.723145	42.145573
2817.070557	61.293106
2816.417725	53.623112
2815.764893	42.125881
2815.112061	61.264462
2814.458984	30.627459
2813.805908	38.278358
2813.152832	34.445152
2812.499512	49.746357
2811.845947	26.782326
2811.192383	22.952702
2810.538818	65.022522
2809.885010	53.539612
2809.231201	26.765633
2808.577393	45.876789
2807.923340	26.757288
2807.269287	30.574991
2806.614990	30.570225
2805.960693	30.565458
2805.306152	19.100433
2804.651611	38.194908
2803.997070	42.007847
2803.342285	19.091499
2802.687500	41.994747
2802.032471	30.536871
2801.377441	41.981647
2800.722412	61.054691
2800.067139	26.707262
2799.411621	30.517822
2798.756348	15.256531
2798.100586	38.135376
2797.445068	0.000000
2796.789307	30.498783
2796.133301	53.364544
2795.477539	45.733898
2794.821289	26.673944
2794.165283	53.339565
2793.509033	38.093742
2792.852539	41.896576
2792.196045	30.465481
2791.539551	49.498680
2790.882813	41.876961
2790.226074	57.096031
2789.569092	26.640656
2788.912109	38.052135
2788.255127	38.046196
2787.597900	38.040257
2786.940430	45.641178
2786.283203	45.634052
2785.625488	53.231411
2784.968018	45.619801
2784.310303	53.214787
2783.652588	41.805088
2782.994629	45.598427
2782.336426	30.394203
2781.678467	30.389456
2781.020264	30.384706
2780.361816	56.962425
2779.703369	45.562820
2779.044922	49.352009
2778.386230	41.752869
2777.727539	41.746346
2777.068604	72.096054
2776.409668	53.115105
2775.750732	56.900146
2775.091553	26.549252
2774.432373	22.752945
2773.772949	53.081905
2773.113525	53.073608
2772.453857	37.903793
2771.794189	49.267227
2771.134521	37.891945
2770.474609	56.829029
2769.814697	22.728058
2769.154541	53.023842
2768.494385	68.162849
2767.833984	41.648560
2767.173584	60.570248
2766.513184	30.280388
2765.852539	45.413479
2765.191895	41.622509
2764.531006	37.832726
2763.870117	64.305573
2763.209229	37.820889
2762.548096	41.596470
2761.886719	37.809055
2761.225586	26.462198
2760.563965	60.475559
2759.902588	34.012180
2759.240967	15.114159
2758.579102	45.335381
2757.917236	30.218857
2757.255371	45.321190
2756.593262	64.194969
2755.931152	15.102334
2755.269043	26.424948
2754.606689	41.518417
2753.944092	45.285728
2753.281494	7.546440
2752.618896	49.044178
2751.956055	37.720383
2751.293213	49.028820
2750.630371	37.708572
2749.967285	60.324265
2749.303955	30.157408
2748.640625	71.612625
2747.977295	48.990437
2747.313721	71.590195
2746.650146	52.742405
2745.986572	48.967419
2745.322754	56.492016
2744.658691	48.952076
2743.994873	37.649544
2743.330566	52.701103
2742.666504	45.165295
2742.002197	45.158218
2741.337646	67.726707
2740.673096	41.382057
2740.008545	48.898403
2739.343750	48.890739
2738.678955	41.362602
2738.013916	11.278942
2737.348877	45.108696
2736.683594	67.652435
2736.018311	48.852432
2735.353027	56.359352
2734.687500	48.837112
2734.021973	52.585567
2733.356201	56.332844
2732.690430	41.304272
2732.024658	63.823864
2731.358643	33.783806
2730.692383	60.050678
2730.026367	71.298996
2729.359863	52.527863
2728.693604	30.011211
2728.027100	48.760571
2727.360352	63.753819
2726.693604	52.494907
2726.026855	63.733814
2725.359863	59.975353
2724.692871	56.218071
2724.025635	63.703815
2723.358398	44.960342
2722.691162	48.699390
2722.023682	56.182785
2721.355957	29.959450
2720.688477	67.398178
2720.020508	86.106377
2719.352783	63.633854
2718.684814	78.594185
2718.016602	59.871880
2717.348389	67.345291
2716.680176	59.853081
2716.011719	56.103451
2715.343262	59.834282
2714.674561	63.563942
2714.005859	67.292427
2713.337158	59.806095
2712.668213	59.796703
2711.999023	33.630360
2711.329834	56.041798
2710.660645	70.975128
2709.991455	56.024189
2709.321777	63.484108
2708.652344	82.142998
2707.982666	48.531414
2707.312988	59.721588
2706.643066	37.320126
2705.972900	74.628525
2705.302979	52.231754
2704.632813	67.144562
2703.962402	48.485668
2703.291992	44.748966
2702.621582	44.741932
2701.950928	44.734901
2701.280273	74.546448
2700.609375	37.267361
2699.938477	40.987652
2699.267334	55.883465
2698.596191	63.324635
2697.925049	78.212250
2697.253662	55.857105
2696.582031	40.955437
2695.910645	63.284809
2695.239014	81.885109
2694.567139	11.164394
2693.895264	48.371433
2693.223145	52.084118
2692.551270	33.477379
2691.878906	66.944221
2691.206543	55.778076
2690.534180	33.461578
2689.861816	70.629997
2689.189209	48.318180
2688.516357	66.891571
2687.843506	63.165428
2687.170654	48.295372
2686.497559	44.573326
2685.824463	37.138592
2685.151123	59.412392
2684.477783	51.977661
2683.804199	66.817902
2683.130615	40.826733
2682.457031	48.242176
2681.783203	74.207047
2681.109375	37.097683
2680.435303	51.928574
2679.761230	63.046196
2679.086914	40.788174
2678.412598	70.441200
2677.738281	55.602715
2677.063721	63.006485
2676.389160	44.468159
2675.714355	55.576443
2675.039551	37.045124
2674.364502	40.743217
2673.689453	40.736797
2673.014404	66.649712
2672.339111	74.043564
2671.663574	55.523922
2670.988037	62.917198
2670.312500	33.303856
2669.636719	59.197521
2668.960938	51.789665
2668.285156	29.589430
2667.609131	36.980957
2666.932861	33.277615
2666.256592	48.060089
2665.580322	18.481735
2664.903809	55.436462
2664.227295	77.598808
2663.550781	59.113579
2662.874023	25.858112
2662.197021	40.627769
2661.520020	70.164169
2660.843018	70.153107
2660.165771	51.683609
2659.488525	62.748768
2658.811035	59.048347
2658.133545	44.279274
2657.455811	18.446787
2656.778076	40.576527
2656.100342	55.322899
2655.422363	40.563725
2654.744385	40.557323
2654.066162	36.864475
2653.387939	29.486927
2652.709473	29.482273
2652.031006	51.585835
2651.352539	40.525330
2650.673828	58.936630
2649.994873	40.512535
2649.316162	51.553268
2648.636963	33.136154
2647.958008	36.812138
2647.278809	44.167591
2646.599365	58.880821
2645.919922	66.230469
2645.240479	44.146671
2644.560791	40.461391
2643.880859	62.521366
2643.201172	40.448612
2642.520996	47.795353
2641.841064	18.379925
2641.160889	44.104851
2640.480469	58.797176
2639.800049	29.393944
2639.119629	73.473251
2638.438965	51.423149
2637.758301	69.777534
2637.077393	47.734978
2636.396484	40.384754
2635.715332	22.024565
2635.034180	73.403618
2634.353027	51.374409
2633.671631	29.352165
2632.989990	69.700371
2632.308350	66.021492
2631.626709	80.680183
2630.944824	40.333714
2630.262939	29.328972
2629.581055	51.317585
2628.898926	65.969322
2628.216553	54.965740
2627.534180	65.948456
2626.851807	43.958687
2626.169189	73.252892
2625.486572	80.565430
2624.803711	36.614861
2624.120850	21.965441
2623.437988	47.584259
2622.754883	25.618240
2622.071533	43.910034
2621.388184	51.220268
2620.704834	29.264093
2620.021240	32.916897
2619.337646	36.568542
2618.653809	58.500408
2617.969971	25.589878
2617.286133	62.137009
2616.602051	54.818096
2615.917725	58.463379
2615.233398	94.987953
2614.549072	58.444874
2613.864502	36.522263
2613.179932	58.426369
2612.495117	47.463909
2611.810303	7.300983
2611.125488	51.098793
2610.440430	72.986717
2609.755127	36.487579
2609.069824	47.426338
2608.384521	18.238010
2607.698975	40.117268
2607.013428	47.403809
2606.327637	32.812820
2605.641846	69.260544
2604.956055	47.381283
2604.270020	29.153093
2603.583740	58.296947
2602.897461	51.001747
2602.211182	25.496834
2601.524658	29.134621
2600.838135	65.542503
2600.151367	40.047405
2599.464600	58.241539
2598.777832	43.674232
2598.090820	29.111540
2597.403564	58.213848
2596.716309	58.204620
2596.029053	65.469818
2595.341553	40.002991
2594.654053	69.085121
2593.966309	47.261269
2593.278564	43.618870
2592.590820	54.514942
2591.902832	29.070024
2591.214600	61.764004
2590.526367	79.917213
2589.838135	54.480366
2589.149658	61.734619
2588.461182	43.570465
2587.772461	39.933258
2587.083740	72.594406
2586.394775	68.953743
2585.705811	54.428528
2585.016846	43.535912
2584.327637	58.038673
2583.638184	72.536827
2582.948975	29.010126
2582.259277	76.139496
2581.569824	39.876263
2580.879883	68.866249
2580.190186	72.479286
2579.500244	57.974220
2578.810059	47.096577
2578.119873	47.089100
2577.429688	65.189941
2576.739258	47.074150
2576.048584	32.584621
2575.358154	43.439262
2574.667236	86.864723
2573.976563	50.663044
2573.285645	57.891426
2572.594482	39.794033
2571.903320	28.936518
2571.212158	57.863842
2570.520752	61.470566
2569.829102	54.230118
2569.137451	65.065804
2568.445801	54.212887
2567.753906	68.658745
2567.062012	54.195660
2566.370117	50.574577
2565.677979	14.447583
2564.985596	57.781147
2564.293213	68.604210
2563.600830	43.322086
2562.908203	46.924801
2562.215332	86.616631
2561.522705	46.909882
2560.829590	50.510303
2560.136719	79.360718
2559.443604	54.100975
2558.750244	14.424633
2558.056885	46.872601
2557.363525	36.050114
2556.669922	36.044380
2555.976074	54.057972
2555.282227	75.669128
2554.588379	50.438061
2553.894287	79.247200
2553.200195	57.625160
2552.505859	61.216991
2551.811523	54.006397
2551.117188	50.397953
2550.422607	68.386337
2549.727783	64.776749
2549.032959	25.186949
2548.338135	57.561008
2547.643066	57.551849
2546.947998	39.560596
2546.252686	61.129375
2545.557373	79.096008
2544.861816	64.704620
2544.166260	39.535416
2543.470703	50.309792
2542.774902	43.115814
2542.078857	104.179955
2541.382813	68.244965
2540.686768	14.365073
2539.990479	82.586021
2539.294189	57.441994
2538.597656	39.485081
2537.901123	21.533888
2537.204346	50.237736
2536.507568	46.641895
2535.810791	64.570793
2535.113770	53.800426
2534.416504	71.722473
2533.719238	43.026627
2533.021973	71.699615
2532.324463	43.012917
2531.626953	68.092934
2530.929199	78.831886
2530.231445	25.078875
2529.533447	85.971008
2528.835449	75.212646
2528.137451	53.714752
2527.439209	64.447433
2526.740723	85.916206
2526.042236	32.213444
2525.343750	57.259212
2524.645020	78.718864
2523.946289	57.240955
2523.247314	50.077847
2522.548340	71.528374
2521.849121	75.092819
2521.149902	78.656120
2520.450684	46.471203
2519.751221	46.463791
2519.051514	75.044922
2518.351807	42.875973
2517.652100	71.448555
2516.952148	60.721581
2516.252197	57.140606
2515.552002	32.136463
2514.851807	64.262672
2514.151367	32.126205
2513.450928	42.828106
2512.750244	89.210983
2512.049561	74.925270
2511.348877	49.942207
2510.647949	28.533848
2509.946777	64.190910
2509.245605	53.483887
2508.544434	71.300461
2507.843018	57.031265
2507.141602	46.330505
2506.439941	46.323109
2505.738281	57.003952
2505.036377	78.367920
2504.334473	74.793793
2503.632568	42.732483
2502.930420	67.648964
2502.228027	46.278740
2501.525635	81.864693
2500.823242	81.851616
2500.120605	53.372959
2499.417969	85.383095
2498.715088	53.355907
2498.012207	67.573349
2497.309082	64.006630
2496.605957	78.217827
2495.902588	67.540962
2495.199219	63.975948
2494.495605	53.304771
2493.791992	63.955502
2493.088379	56.840248
2492.384521	67.487007
2491.680664	67.476219
2490.976563	81.668678
2490.272461	74.555130
2489.568115	39.046444
2488.863770	49.687531
2488.159180	70.970833
2487.454590	74.507462
2486.749756	102.874802
2486.044922	74.483627
2485.339844	53.194084
2484.634766	53.185577
2483.929688	53.177071
2483.224365	60.257706
2482.519043	60.248066
2481.813477	60.238426
2481.107666	60.228790
2480.402100	85.015274
2479.696045	85.001671
2478.990234	35.411697
2478.284180	46.027840
2477.577881	63.720654
2476.871582	49.552578
2476.165039	88.472580
2475.458496	70.766739
2474.751953	49.528786
2474.045166	67.206879
2473.338379	35.366379
2472.631348	53.041073
2471.924072	81.316628
2471.217041	70.698792
2470.509521	53.015602
2469.802246	70.676147
2469.094482	77.731316
2468.386963	63.588161
2467.679199	63.577976
2466.971191	56.504707
2466.263184	63.557613
2465.554932	67.077843
2464.846680	77.656639
2464.138428	59.997791
2463.429932	35.287163
2462.721436	59.978565
2462.012695	56.441372
2461.303955	45.851265
2460.594971	59.949738
2459.885986	59.940132
2459.176758	91.658447
2458.467529	66.970436
2457.758057	84.580681
2457.048584	49.330822
2456.338867	52.845978
2455.629150	73.972511
2454.919434	91.570328
2454.209473	59.863308
2453.499512	91.540962
2452.789307	63.364353
2452.078857	73.913223
2451.368408	80.939598
2450.657959	31.666937
2449.947266	77.395653
2449.236572	70.348396
2448.525879	52.752834
2447.814697	66.809540
2447.103760	66.798820
2446.392578	87.879089
2445.681152	49.204391
2444.969727	73.794746
2444.258301	35.134716
2443.546631	70.258156
2442.834717	77.271568
2442.122803	77.259171
2441.410889	52.668255
2440.698730	87.766335
2439.986572	77.221977
2439.274170	101.776268
2438.561768	49.125481
2437.849121	84.201591
2437.136475	52.617546
2436.423584	77.160011
2435.710693	77.147621
2434.997803	38.567616
2434.284424	63.100510
2433.571289	105.150627
2432.857910	73.593620
2432.144287	52.558426
2431.430908	70.066650
2430.717041	49.038776
2430.003174	63.039726
2429.289307	87.541107
2428.575195	77.023796
2427.861084	56.008308
2427.146729	55.999310
2426.432373	48.991520
2425.717773	62.978977
2425.003174	55.972317
2424.288330	59.461029
2423.573486	76.937202
2422.858643	73.428253
2422.143555	76.912468
2421.428223	59.422810
2420.712891	69.897949
2419.997559	83.864052
2419.281982	66.381699
2418.566162	83.837090
2417.850586	59.375053
2417.134521	83.810127
2416.418457	73.322067
2415.702393	55.855450
2414.986084	69.808083
2414.269775	90.735909
2413.553223	55.828503
2412.836670	45.353363
2412.120117	66.275017
2411.403076	66.264359
2410.686279	52.305550
2409.969238	76.702461
2409.251953	76.690125
2408.534668	66.221718
2407.817383	87.119820
2407.099854	55.747711
2406.382080	59.222412
2405.664307	38.314217
2404.946533	94.028847
2404.228516	100.977692
2403.510498	52.221432
2402.792236	62.655632
2402.073975	66.125854
2401.355469	76.554443
2400.636963	93.938057
2399.918213	66.093918
2399.199463	66.083275
2398.480469	66.072632
2397.761475	62.585041
2397.042480	69.527733
2396.323242	62.564884
2395.603760	41.703201
2394.884277	76.443558
2394.164795	55.586357
2393.445068	55.577404
2392.725098	65.987534
2392.005127	48.614559
2391.285156	59.022449
2390.564941	65.955635
2389.844727	52.061852
2389.124268	72.874840
2388.403809	76.332771
2387.683105	72.851357
2386.962402	58.965401
2386.241455	55.487900
2385.520508	48.544086
2384.799316	76.271263
2384.078125	58.927383
2383.356689	83.178192
2382.635254	76.234383
2381.913818	79.686729
2381.192139	93.530205
2380.470215	62.343414
2379.748291	83.111145
2379.026367	38.086464
2378.304199	62.313251
2377.581787	69.225777
2376.859375	48.450226
2376.136963	72.663612
2375.414307	58.813438
2374.691650	51.885838
2373.968750	72.628448
2373.245850	79.532608
2372.522705	86.434540
2371.799316	58.765999
2371.076172	48.387718
2370.352783	82.936989
2369.629150	79.468452
2368.905518	55.273476
2368.181641	75.988762
2367.457764	51.802155
2366.733643	75.964226
2366.009521	82.856689
2365.285400	58.680676
2364.561035	75.927437
2363.836426	41.408279
2363.111816	62.102386
2362.387207	58.642780
2361.662354	93.123489
2360.937256	58.623840
2360.212158	65.510178
2359.487061	62.052250
2358.761719	103.403709
2358.036377	62.032200
2357.310791	86.141914
2356.584961	41.341438
2355.859375	82.669518
2355.133301	48.216091
2354.407471	61.982098
2353.681152	79.186546
2352.955078	61.962067
2352.228516	61.952049
2351.502197	48.177139
2350.775635	68.813362
2350.048828	68.802238
2349.322021	79.109779
2348.594971	75.657990
2347.867920	41.261322
2347.140869	55.006199
2346.413330	82.495956
2345.686035	51.551636
2344.958496	72.160614
2344.230713	99.634254
2343.502930	61.831951
2342.775146	54.952843
2342.047119	78.981934
2341.319092	78.969154
2340.590820	51.493294
2339.862305	72.078949
2339.133789	65.203735
2338.405273	51.468300
2337.676514	68.613297
2336.947754	82.322632
2336.218750	54.872871
2335.489746	82.295990
2334.760498	58.283558
2334.031250	82.269348
2333.301758	78.828697
2332.572266	82.242714
2331.842529	78.803177
2331.112793	82.216087
2330.382813	89.053009
2329.652832	58.217537
2328.922607	75.328140
2328.192383	71.892494
2327.462158	75.303749
2326.731689	102.670296
2326.000977	99.231880
2325.270264	65.003456
2324.539307	58.151569
2323.808350	85.503159
2323.077393	64.971870
2322.346191	88.894470
2321.614746	88.880074
2320.883301	78.611938
2320.151855	17.086782
2319.420166	54.668842
2318.688232	61.492481
2317.956299	81.976685
2317.224365	95.623970
2316.492188	81.950111
2315.760010	105.835075
2315.027588	75.096588
2314.295166	85.323196
2313.562500	68.247490
2312.829590	54.589138
2312.096924	64.814087
2311.363770	85.267868
2310.630615	95.484528
2309.897461	75.011391
2309.164063	98.862610
2308.430664	61.353050
2307.697021	95.422592
2306.963379	98.814514
2306.229492	95.391640
2305.495605	74.938416
2304.761719	37.463127
2304.027344	47.672607
2303.293213	81.711212
2302.558838	74.889793
2301.824219	78.281166
2301.089600	85.074417
2300.354736	64.646065
2299.619873	68.037437
2298.885010	81.631676
2298.149658	122.427635
2297.414551	64.604095
2296.679199	91.790916
2295.943604	81.578682
2295.208008	84.963997
2294.472412	74.756172
2293.736572	88.333862
2293.000488	81.525711
2292.264404	71.323410
2291.528320	67.916023
2290.791992	78.090744
2290.055420	95.051552
2289.318848	74.671227
2288.582275	64.478310
2287.845459	71.253922
2287.108398	47.494900
2286.371582	57.663006
2285.634277	81.393372
2284.896973	67.816788
2284.159668	61.025188
2283.422119	94.912643
2282.684570	74.562103
2281.946777	77.938622
2281.208740	101.642540
2280.470703	33.875340
2279.732666	60.965698
2278.994385	77.887955
2278.256104	88.032936
2277.517578	91.403954
2276.779053	64.310844
2276.040283	98.142693
2275.301514	84.592010
2274.562500	77.811996
2273.823486	67.651596
2273.084229	81.168716
2272.344971	87.918472
2271.605469	77.761383
2270.865967	77.748726
2270.126221	87.875572
2269.386475	104.757668
2268.646484	74.332054
2267.906494	74.319962
2267.166260	74.307869
2266.426025	74.295776
2265.685547	94.542870
2264.945068	67.519630
2264.204346	77.634941
2263.463623	80.997185
2262.722656	74.235336
2261.981689	67.475677
2261.240723	84.330872
2260.499268	70.826393
2259.758057	107.908363
2259.016602	47.202221
2258.274902	70.791801
2257.533203	104.485168
2256.791260	94.358330
2256.049316	77.496010
2255.307129	47.163799
2254.564941	104.417114
2253.822754	74.090401
2253.080322	84.179916
2252.337646	94.266151
2251.594971	97.616890
2250.852051	77.407677
2250.109131	80.760071
2249.366211	53.831272
2248.623047	74.005936
2247.879639	110.990814
2247.136230	67.256195
2246.392578	90.781067
2245.648926	73.957703
2244.905273	90.751472
2244.161377	60.491119
2243.417236	80.641678
2242.673096	83.988052
2241.928955	67.179482
2241.184570	70.526955
2240.439941	90.662727
2239.695313	117.506592
2238.950439	80.562805
2238.205566	70.480957
2237.460693	87.247910
2236.715576	57.037403
2235.970215	80.510262
2235.224854	107.329498
2234.479492	93.897987
2233.733887	53.647240
2232.988037	70.400513
2232.242188	67.037170
2231.496338	100.539345
2230.750244	80.418350
2230.003906	110.557182
2229.257568	90.441116
2228.511230	70.331604
2227.764648	90.411591
2227.017822	80.352737
2226.270996	56.907230
2225.523926	63.591816
2224.776855	107.084518
2224.029785	103.721191
2223.282471	73.596565
2222.534912	110.376823
2221.787354	70.228325
2221.039795	83.591499
2220.291992	96.950294
2219.543945	80.221626
2218.795898	100.260651
2218.047852	70.170990
2217.299561	76.841385
2216.551025	76.828835
2215.802490	76.816277
2215.053955	80.143021
2214.305176	96.823662
2213.556152	76.778625
2212.807129	106.804985
2212.058105	66.742203
2211.308838	70.067863
2210.559326	60.048347
2209.809814	90.057800
2209.060303	60.028717
2208.310547	76.690826
2207.560547	86.679802
2206.810547	63.332573
2206.060303	73.320465
2205.310059	106.630508
2204.559814	103.281410
2203.809326	116.588974
2203.058594	89.925354
2202.307861	119.880867
2201.557129	103.213860
2200.806152	106.525909
2200.054932	109.836876
2199.303711	86.523987
2198.552246	123.110138
2197.800781	76.515404
2197.049316	79.829094
2196.297607	116.398384
2195.545654	96.428589
2194.793701	96.412811
2194.041504	96.397026
2193.289307	103.028236
2192.537109	119.626106
2191.784668	79.737686
2191.031982	83.046486
2190.279297	99.639473
2189.526367	106.264702
2188.773438	83.005707
2188.020508	96.270851
2187.267090	92.935944
2186.513916	112.832314
2185.760498	82.951347
2185.006836	69.667717
2184.253174	129.361710
2183.499268	92.859863
2182.745361	116.055817
2181.991211	82.883430
2181.237061	82.869850
2180.482666	119.313034
2179.728271	106.038651
2178.973877	115.960770
2178.218994	72.877686
2177.464355	96.050293
2176.709229	86.099945
2175.954346	99.329803
2175.198975	92.692619
2174.443848	102.607155
2173.688232	82.734138
2172.932861	99.264687
2172.177002	89.323578
2171.421387	92.616669
2170.665283	105.830261
2169.909424	105.812912
2169.153076	102.489449
2168.396729	105.778206
2167.640381	125.591019
2166.883789	82.612122
2166.127197	125.549820
2165.370361	82.585022
2164.613525	115.600060
2163.856445	95.767189
2163.099365	89.147926
2162.342041	92.434532
2161.584473	92.419365
2160.826904	99.004501
2160.069336	102.287865
2159.311523	79.177605
2158.553711	102.254288
2157.795654	125.323395
2157.037354	128.600266
2156.279053	89.016342
2155.520752	95.594444
2154.762207	75.803841
2154.003662	92.267784
2153.244873	112.021049
2152.485840	121.885246
2151.726807	121.865234
2150.967773	79.034737
2150.208252	69.144035
2149.448975	111.929100
2148.689453	115.202209
2147.929688	95.437576
2147.169922	78.969849
2146.410156	101.985962
2145.650146	82.233231
2144.889893	101.952454
2144.129639	95.359207
2143.369141	101.918953
2142.608643	124.912376
2141.847900	105.172081
2141.087158	115.013062
2140.326416	108.423058
2139.565186	88.695198
2138.804199	118.240822
2138.042725	95.233894
2137.281494	108.351784
2136.519775	101.768272
2135.758301	101.751541
2134.996338	105.016579
2134.234619	101.718079
2133.472412	127.946869
2132.710449	121.365524
2131.947998	101.667908
2131.185547	104.930252
2130.423096	121.305649
2129.660400	104.895737
2128.897705	114.710838
2128.134766	131.076523
2127.371826	114.673096
2126.608643	108.102554
2125.845215	104.809471
2125.081787	121.166008
2124.318359	137.517151
2123.554688	111.305092
2122.790771	117.833054
2122.026855	98.178047
2121.262939	98.161888
2120.498779	117.774872
2119.734375	111.213509
2118.969971	94.842964
2118.205322	98.097260
2117.440674	120.966698
2116.676025	120.946777
2115.911133	114.390274
2115.145996	117.639191
2114.380859	137.223114
2113.615479	117.600441
2112.850098	137.177917
2112.084473	97.968086
2111.318848	97.951942
2110.552979	120.787498
2109.787109	137.087540
2109.020996	127.274597
2108.254883	97.887405
2107.488525	120.707909
2106.722168	117.426178
2105.955566	127.190727
2105.188965	127.169762
2104.422119	133.669250
2103.655029	120.608467
2102.887939	120.588585
2102.120850	104.275635
2101.353516	94.484215
2100.585938	123.786491
2099.818359	127.023079
2099.050781	123.745667
2098.282959	126.981194
2097.514893	81.384773
2096.746826	117.174744
2095.978760	130.172684
2095.210449	117.136093
2094.441895	91.090820
2093.673340	100.833916
2092.904541	149.599838
2092.135742	110.555550
2091.366699	152.801575
2090.597656	156.026917
2089.828369	104.000786
2089.059082	139.727997
2088.289551	142.953888
2087.520020	155.923950
2086.750244	139.658813
2085.980469	113.657013
2085.210449	123.378677
2084.440186	116.865768
2083.670166	146.058090
2082.899658	139.543579
2082.129150	152.499191
2081.358643	136.253372
2080.587891	132.987274
2079.816895	136.208374
2079.045898	110.245705
2078.274902	152.373306
2077.503662	123.175087
2076.732178	123.154739
2075.960693	93.970985
2075.188965	100.435150
2074.417236	116.615097
2073.645264	129.550919
2072.873291	145.720703
2072.101074	129.508102
2071.328857	139.198212
2070.556396	129.465302
2069.783936	132.680008
2069.011230	152.071457
2068.238525	126.166092
2067.465576	142.317703
2066.692627	126.124382
2065.919434	122.870110
2065.145996	119.616905
2064.372559	135.758896
2063.599121	132.504623
2062.825439	151.870438
2062.051514	135.691559
2061.277588	145.359772
2060.503662	145.335724
2059.729248	154.999130
2058.955078	138.830414
2058.180664	129.123215
2057.406006	112.964119
2056.631348	141.988541
2055.856445	122.606178
2055.081543	145.167496
2054.306396	138.692657
2053.531250	128.995071
2052.755859	167.665848
2051.980225	135.399994
2051.204590	167.610336
2050.428955	138.577911
2049.653076	164.332642
2048.877197	135.310364
2048.101074	138.509109
2047.324707	109.500694
2046.548340	161.003769
2045.771851	135.220764
2044.995239	170.607483
2044.218506	122.302086
2043.441528	138.371536
2042.664551	167.305313
2041.887329	170.494476
2041.110107	164.033539
2040.332642	167.222183
2039.555176	147.902802
2038.777466	157.522537
2037.999634	154.282227
2037.221802	141.401947
2036.443726	154.231094
2035.665527	154.205536
2034.887207	183.088730
2034.108765	144.519775
2033.330200	150.917862
2032.551514	186.208191
2031.772705	141.237976
2030.993774	154.052246
2030.214600	147.608917
2029.435425	176.459671
2028.656128	195.677353
2027.876587	141.120926
2027.097046	195.612473
2026.317261	176.342651
2025.537476	153.873505
2024.757446	118.591156
2023.977295	144.208572
2023.197021	147.388748
2022.416626	147.364288
2021.636230	179.370255
2020.855591	163.327942
2020.074707	179.310730
2019.293823	137.662186
2018.512817	160.045731
2017.731689	185.622253
2016.950439	179.191727
2016.168945	153.567429
2015.387451	195.126205
2014.605713	198.292068
2013.823975	185.468246
2013.041992	204.620636
2012.260010	179.013336
2011.477783	140.629974
2010.695435	204.518738
2009.912964	166.143875
2009.130371	188.478088
2008.347656	166.088699
2007.564819	188.415497
2006.781860	178.805344
2005.998779	204.315018
2005.215576	201.089188
2004.432129	156.376709
2003.648682	194.640701
2002.864990	197.798676
2002.081299	191.386261
2001.297363	204.111420
2000.513428	188.133942
1999.729248	204.043594
1998.944946	194.446716
1998.160522	200.788651
1997.375977	181.635727
1996.591309	200.721893
1995.806519	184.760864
1995.021606	162.435135
1994.236572	187.883911
1993.451416	200.588440
1992.666016	203.738510
1991.880615	216.436157
1991.094971	219.582520
1990.309326	213.182358
1989.523438	206.784302
1988.737549	178.123001
1987.951416	213.075989
1987.165161	181.243454
1986.378784	190.750839
1985.592285	193.897751
1984.805664	174.796753
1984.018921	203.366013
1983.232056	225.571640
1982.444946	165.179901
1981.657837	222.320557
1980.870605	203.230667
1980.083130	203.196854
1979.295654	244.430511
1978.507935	244.389816
1977.720093	218.962219
1976.932129	231.617111
1976.144165	215.716995
1975.355957	253.742447
1974.567627	241.015182
1973.779053	234.633606
1972.990479	244.105118
1972.201782	193.349762
1971.412964	247.192947
1970.623901	228.140091
1969.834839	218.597839
1969.045532	259.739655
1968.256226	291.366669
1967.466675	243.820618
1966.677002	234.282059
1965.887207	215.250351
1965.097290	272.183014
1964.307251	243.658142
1963.517090	249.945251
1962.726807	249.903595
1961.936401	253.024750
1961.145874	284.605408
1960.355103	205.514069
1959.564331	237.092087
1958.773315	246.534668
1957.982178	221.212173
1957.191040	271.729645
1956.399658	259.047852
1955.608154	271.639008
1954.816528	246.329178
1954.024780	265.233337
1953.232910	236.775970
1952.440918	236.736481
1951.648682	255.632736
1950.856445	255.590103
1950.063965	302.871063
1949.271484	255.504822
1948.478760	271.231445
1947.685913	252.266220
1946.893066	252.224121
1946.099976	280.552521
1945.306763	226.925949
1944.513428	296.214996
1943.719971	258.357178
1942.926270	239.413025
1942.132568	296.066681
1941.338745	261.376923
1940.544678	286.522034
1939.750610	311.658722
1938.956299	280.131256
1938.161865	248.614319
1937.367310	267.451752
1936.572632	330.326385
1935.777832	283.089630
1934.982910	289.332153
1934.187866	260.984314
1933.392700	235.789810
1932.597290	279.757172
1931.801880	317.424194
1931.006226	276.521393
1930.210571	289.042236
1929.414673	260.722809
1928.618652	279.523499
1927.822510	320.299255
1927.026245	282.569733
1926.229858	276.244232
1925.433350	263.643585
1924.636719	301.256592
1923.839844	282.380829
1923.042969	332.526276
1922.245850	263.467316
1921.448730	297.919189
1920.651367	310.411224
1919.853882	297.819550
1919.056274	288.366486
1918.258545	294.586029
1917.460693	354.070801
1916.662720	307.018890
1915.864624	328.893768
1915.066284	291.257172
1914.267944	316.258636
1913.469360	291.159729
1912.670776	297.371460
1911.871948	300.451385
1911.072998	297.271942
1910.273926	284.707581
1909.474731	331.581879
1908.675415	322.143555
1907.875977	268.929199
1907.076294	278.263885
1906.276611	318.855774
1905.476807	281.296234
1904.676758	309.374023
1903.876587	315.571167
1903.076294	324.890167
1902.275879	318.588898
1901.475342	321.658447
1900.674683	334.094086
1899.873901	343.403656
1899.072998	340.224823
1898.271851	305.838959
1897.470703	343.231110
1896.669312	383.730499
1895.867920	311.923737
1895.066284	327.465057
1894.264526	336.764740
1893.462646	299.296295
1892.660645	352.237610
1891.858521	339.712097
1891.056152	305.378021
1890.253784	355.176117
1889.451172	308.390717
1888.648560	336.369843
1887.845703	326.971405
1887.042725	370.505463
1886.239624	339.313629
1885.436401	345.481628
1884.633057	295.632904
1883.829590	314.251740
1883.025879	342.196960
1882.222168	373.243164
1881.418213	354.521545
1880.614258	332.696838
1879.810059	348.184998
1879.005737	335.693512
1878.201294	341.852692
1877.396729	323.151947
1876.592041	307.564178
1875.787231	369.636292
1874.982178	338.517609
1874.177124	285.673340
1873.371826	360.136353
1872.566406	344.555389
1871.760986	319.668915
1870.955322	363.058075
1870.149536	307.151428
1869.343506	322.609955
1868.537476	387.687225
1867.731323	322.501617
1866.924927	378.255676
1866.118530	371.992279
1865.311890	316.140320
1864.505127	365.669525
1863.698242	350.116241
1862.891235	377.938110
1862.084106	349.998627
1861.276855	377.811157
1860.469482	365.362488
1859.661865	380.779968
1858.854126	362.144470
1858.046387	340.420502
1857.238403	358.928558
1856.430298	371.243011
1855.622070	368.087433
1854.813721	364.932892
1854.005249	367.963684
1853.196533	355.535400
1852.387817	346.202332
1851.578857	380.140442
1850.769775	352.266052
1849.960693	352.206818
1849.151367	364.503632
1848.341919	389.150299
1847.532227	358.205078
1846.722534	401.369232
1845.912720	367.345398
1845.102661	345.678711
1844.292603	382.651306
1843.482300	382.586945
1842.671875	323.910248
1841.861328	382.458221
1841.050659	370.058563
1840.239868	422.412445
1839.428833	369.934021
1838.617798	400.694427
1837.806519	366.727783
1836.995117	394.397095
1836.183716	385.088562
1835.372070	403.504883
1834.560303	369.560577
1833.748291	366.419189
1832.936279	366.357513
1832.124146	375.530151
1831.311768	372.389343
1830.499390	375.403687
1829.686768	369.187347
1828.874023	375.277252
1828.061157	356.760895
1827.248169	415.125916
1826.434937	368.938660
1825.621704	371.950470
1824.808228	396.475433
1823.994751	408.700378
1823.181030	380.979736
1822.367188	393.203156
1821.553223	374.708588
1820.739136	389.999756
1819.924927	371.511963
1819.110474	380.658813
1818.296021	383.663971
1817.481323	377.461700
1816.666626	362.056671
1815.851685	352.792358
1815.036621	383.405304
1814.221436	398.674286
1813.406006	355.680145
1812.590576	386.277069
1811.774902	419.928833
1810.959229	373.888153
1810.143311	346.247833
1809.327271	419.716370
1808.511108	428.834869
1807.694824	385.886292
1806.878418	401.131531
1806.061768	355.140503
1805.245117	355.080597
1804.428223	388.686432
1803.611206	403.920868
1802.794067	391.614746
1801.976807	348.722992
1801.159424	376.190247
1800.341919	360.837036
1799.524170	397.465240
1798.706421	366.829041
1797.888428	366.767120
1797.070313	409.487457
1796.252075	391.086151
1795.433716	391.020111
1794.615234	406.225708
1793.796509	372.565155
1792.977783	372.502228
1792.158813	424.336609
1791.339844	357.115082
1790.520630	384.520508
1789.701294	381.404297
1788.881714	393.542755
1788.062134	384.325653
1787.242432	414.757568
1786.422485	396.392456
1785.602417	338.400970
1784.782349	402.354767
1783.962036	384.001007
1783.141479	365.653412
1782.320923	402.150787
1781.500244	420.359283
1780.679321	438.561615
1779.858398	386.721588
1779.037231	438.413330
1778.215942	420.075073
1777.394531	410.873505
1776.572998	374.288116
1775.751221	444.201782
1774.929443	431.958801
1774.107422	383.222565
1773.285278	419.648956
1772.463013	401.335449
1771.640625	383.028107
1770.818115	422.475403
1769.995483	422.403900
1769.172607	382.833710
1768.349731	394.920319
1767.526611	419.152161
1766.703369	428.191681
1765.880005	370.429382
1765.056519	388.581451
1764.232910	458.327087
1763.409058	427.901825
1762.585083	418.726654
1761.761108	442.925629
1760.936890	406.451965
1760.112549	418.513977
1759.288086	412.378723
1758.463379	412.308868
1757.638672	427.394897
1756.813721	454.598419
1755.988647	424.219971
1755.163574	415.059235
1754.338257	433.163605
1753.512695	405.832794
1752.687134	451.185394
1751.861328	432.943481
1751.035522	399.572418
1750.209473	438.849854
1749.383301	381.280762
1748.557007	411.471405
1747.730591	444.676788
1746.903931	384.111420
1746.077271	438.478058
1745.250366	414.215942
1744.423340	402.053864
1743.596313	498.704071
1742.768921	441.202728
1741.941528	441.127899
1741.114014	398.760315
1740.286255	459.100677
1739.458374	440.903503
1738.630493	446.867462
1737.802368	486.036865
1736.973999	449.734222
1736.145630	503.979004
1735.317139	446.564301
1734.488403	458.555786
1733.659546	446.412781
1732.830566	422.210693
1732.001465	443.246002
1731.172241	455.229858
1730.342896	452.138336
1729.513306	440.006622
1728.683594	436.918701
1727.853882	503.124390
1727.023926	415.684875
1726.193726	427.661102
1725.363525	400.487823
1724.533203	475.686707
1723.702637	457.544922
1722.871948	451.447937
1722.041138	472.435242
1721.210205	457.311859
1720.379150	487.315369
1719.547974	451.141296
1718.716553	487.149811
1717.885010	420.922150
1717.053467	447.905334
1716.221558	456.845917
1715.389648	495.833984
1714.557617	474.717926
1713.725342	474.637238
1712.893066	438.514313
1712.060547	462.463867
1711.227905	498.415283
1710.395142	459.304688
1709.562256	480.236969
1708.729126	483.156281
1707.895874	447.068604
1707.062622	455.992462
1706.229126	440.917725
1705.395508	479.828827
1704.561646	410.783569
1703.727783	476.667725
1702.893677	497.568451
1702.059570	482.499359
1701.225220	485.413666
1700.390747	485.331085
1699.556030	494.234589
1698.721313	506.129913
1697.886353	470.111694
1697.051392	505.957672
1696.216187	469.951691
1695.380859	481.842987
1694.545410	460.814850
1693.709717	496.637939
1692.874023	454.675415
1692.038086	478.524231
1691.202026	487.413574
1690.365845	460.422760
1689.529541	481.269104
1688.692993	514.063293
1687.856445	493.058136
1687.019653	546.753174
1686.182739	480.941376
1685.345703	519.686584
1684.508545	483.763733
1683.671143	510.552521
1682.833740	498.524841
1681.996094	507.393921
1681.158325	528.196594
1680.320435	480.368164
1679.482422	513.100891
1678.644287	498.100281
1677.805908	489.069000
1676.967407	500.912140
1676.128784	494.864532
1675.290039	512.663818
1674.451172	521.516724
1673.612183	542.284912
1672.772949	512.401672
1671.933594	479.550018
1671.094116	556.897888
1670.254517	485.341614
1669.414795	500.144073
1668.574829	497.082245
1667.734863	491.045410
1666.894653	476.084015
1666.054321	544.428223
1665.213867	517.564758
1664.373169	502.606445
1663.532471	523.335144
1662.691528	502.434967
1661.850464	481.541870
1661.009277	493.347595
1660.167969	531.892456
1659.326538	534.772644
1658.484863	496.065491
1657.643066	525.680298
1656.801147	528.559998
1655.959106	531.438660
1655.116943	510.568970
1654.274658	546.096802
1653.432129	510.394653
1652.589478	519.208191
1651.746704	533.951538
1650.903809	510.133240
1650.060791	518.942261
1649.217529	489.204834
1648.374146	521.729370
1647.530640	527.567993
1646.687012	568.964905
1645.843262	536.276306
1644.999390	565.808167
1644.155273	544.978577
1643.311035	571.537476
1642.466675	541.831543
1641.622192	488.453125
1640.777588	523.887451
1639.932739	529.716492
1639.087769	568.090454
1638.242798	570.951599
1637.397461	529.444885
1636.552124	550.055420
1635.706665	514.479980
1634.860962	597.167725
1634.015137	573.419434
1633.169189	552.634521
1632.323120	531.856689
1631.476929	528.811523
1630.630493	508.044800
1629.783936	528.630615
1628.937256	596.453186
1628.090454	543.210938
1627.243530	560.828369
1626.396484	575.488525
1625.549194	619.650818
1624.701782	569.391174
1623.854248	516.198975
1623.006592	607.535950
1622.158691	524.868408
1621.310791	560.156860
1620.462646	607.223999
1619.614380	610.067261
1618.765991	559.869263
1617.917358	571.558105
1617.068726	547.894836
1616.219849	524.239685
1615.370850	624.268494
1614.521729	541.725098
1613.672363	547.519653
1612.822998	538.596436
1611.973389	550.274780
1611.123657	567.833313
1610.273804	644.218628
1609.423828	561.756531
1608.573608	629.294739
1607.723389	564.504150
1606.872925	570.286682
1606.022339	637.788696
1605.171509	523.073425
1604.320679	537.674316
1603.469604	581.646240
1602.618408	575.672363
1601.767090	557.954041
1600.915649	563.730591
1600.064087	546.020386
1599.212280	531.251343
1598.360352	563.440674
1597.508301	557.475891
1596.656128	613.118347
1595.803833	595.414734
1594.951294	598.245178
1594.098633	583.482178
1593.245850	583.382080
1592.392944	533.453918
1591.539795	545.084656
1590.686646	591.872070
1589.833252	594.700073
1588.979736	588.739929
1588.126099	597.424561
1587.272217	582.681763
1586.418335	611.857239
1585.564209	611.752197
1584.709961	582.381775
1583.855591	588.133911
1583.000977	637.767029
1582.146362	608.407227
1581.291504	576.132874
1580.436523	584.806030
1579.581421	613.940918
1578.726074	599.220337
1577.870605	619.575134
1577.015137	578.560364
1576.159424	584.304077
1575.303467	622.176941
1574.447510	622.070068
1573.591309	584.002991
1572.734985	607.258728
1571.878540	601.316406
1571.021973	633.316650
1570.165161	583.601685
1569.308350	592.253906
1568.451294	595.069153
1567.594116	615.382385
1566.736694	583.200562
1565.879272	556.860840
1565.021606	612.150085
1564.163818	585.814331
1563.305908	611.939636
1562.447876	606.007385
1561.589600	544.730286
1560.731201	620.361450
1559.872681	576.574890
1559.014038	605.590637
1558.155273	590.931519
1557.296265	602.471802
1556.437134	555.808350
1555.577881	610.993042
1554.718506	587.615967
1553.859009	575.880920
1552.999268	622.309631
1552.139404	561.145325
1551.279419	622.095520
1550.419312	630.707886
1549.558960	560.855652
1548.698608	645.018250
1547.838013	569.377502
1546.977173	554.757080
1546.116333	615.645264
1545.255249	615.539307
1544.394165	632.851257
1543.532837	629.839783
1542.671265	594.907471
1541.809692	589.002014
1540.947876	612.108459
1540.085938	620.704529
1539.223877	617.697632
1538.361694	666.882507
1537.499268	631.979736
1536.636841	634.769348
1535.774170	594.088135
1534.911377	637.448120
1534.048340	605.471375
1533.185303	680.675842
1532.322021	648.702576
1531.458618	610.949341
1530.594971	619.529053
1529.731323	636.789185
1528.867432	619.315430
1528.003418	624.995667
1527.139282	624.887939
1526.275024	627.672668
1525.410522	642.024475
1524.545898	633.239197
1523.681152	615.783997
1522.816284	635.911316
1521.951172	676.261719
1521.086060	615.465393
1520.220703	572.024048
1519.355225	615.253052
1518.489502	638.251038
1517.623779	626.590820
1516.757813	629.369751
1515.891724	640.807190
1515.025513	611.836426
1514.159058	655.013672
1513.292480	620.280334
1512.425781	640.364929
1511.558960	646.022461
1510.692017	628.609741
1509.824829	642.916382
1508.957520	619.745117
1508.090088	680.160889
1507.222534	616.649536
1506.354736	593.494690
1505.486938	674.047485
1504.618896	659.530823
1503.750610	575.909973
1502.882324	667.940125
1502.013794	595.860901
1501.145142	664.831299
1500.276367	658.961365
1499.407471	647.339233
1498.538330	632.844543
1497.669067	629.859131
1496.799683	638.376953
1495.930176	661.267273
1495.060547	635.281738
1494.190674	623.675598
1493.320679	612.073486
1492.450562	657.937073
1491.580200	629.097412
1490.709717	669.197937
1489.839233	594.420715
1488.968384	663.224365
1488.097534	651.627197
1487.226440	662.994934
1486.355347	674.358765
1485.483887	611.121582
1484.612427	679.862732
1483.740845	645.327637
1482.869019	691.098022
1481.997070	693.845581
1481.124878	667.925781
1480.252686	630.550415
1479.380249	693.485413
1478.507690	716.286621
1477.635010	678.922180
1476.762207	658.755554
1475.889160	713.051086
1475.015991	701.474976
1474.142700	721.392212
1473.269165	686.921265
1472.395630	701.110718
1471.521851	706.711670
1470.647949	695.146545
1469.773804	717.907654
1468.899658	789.275696
1468.025269	780.561401
1467.150757	811.871948
1466.276001	786.007446
1465.401245	697.282166
1464.526245	788.592346
1463.651123	745.604858
1462.775879	765.469238
1461.900391	753.913696
1461.024780	819.453552
1460.149048	770.780884
1459.273193	827.732239
1458.397217	784.782471
1457.520996	781.793152
1456.644653	775.952148
1455.768188	804.340332
1454.891479	804.200867
1454.014648	769.846008
1453.137695	818.175903
1452.260620	820.884338
1451.383423	812.192566
1450.505981	800.654480
1449.628418	817.608521
1448.750732	811.770020
1447.872803	817.324890
1446.994873	771.625854
1446.116699	822.734985
1445.238403	859.594666
1444.359863	867.983032
1443.481201	867.832397
1442.602417	893.285522
1441.723511	858.998108
1440.844482	864.536804
1439.965210	924.097656
1439.085815	943.837402
1438.206299	935.146423
1437.326538	889.513672
1436.446777	912.090515
1435.566772	909.091187
1434.686646	854.965454
1433.806274	846.297180
1432.925781	826.274231
1432.045166	843.164307
1431.164429	845.856323
1430.283569	831.519653
1429.402466	822.862793
1428.521240	839.741638
1427.639893	788.539246
1426.758301	811.090088
1425.876709	796.771729
1424.994873	751.273376
1424.112793	768.149780
1423.230713	804.858398
1422.348389	844.387756
1421.465942	810.244690
1420.583374	835.596619
1419.700562	863.771729
1418.817627	790.001343
1417.934570	840.822998
1417.051392	823.693420
1416.167969	863.171143
1415.284546	882.828064
1414.400757	888.332703
1413.516968	910.806946
1412.633057	845.602173
1411.748901	845.455078
1410.864624	814.209717
1409.980103	819.721313
1409.095459	808.274170
1408.210815	779.877136
1407.325806	788.216858
1406.440796	779.605713
1405.555542	869.843384
1404.670166	779.334412
1403.784668	838.485596
1402.899048	866.566589
1402.013184	812.793884
1401.127197	784.435303
1400.241089	823.795776
1399.354736	818.010925
1398.468262	851.711304
1397.581665	814.906311
1396.694946	792.210327
1395.807983	755.428467
1394.920898	825.753662
1394.033691	831.245422
1393.146362	763.485657
1392.258789	819.688599
1391.371094	746.321777
1390.483276	782.797363
1389.595337	785.476318
1388.707153	757.191040
1387.818848	827.417786
1386.930420	745.671753
1386.041748	838.382813
1385.152954	857.926819
1384.264038	804.341980
1383.375000	832.320679
1382.485718	773.136108
1381.596313	801.110413
1380.706787	826.264587
1379.817139	792.401306
1378.927246	809.119751
1378.037231	797.742859
1377.147095	769.519043
1376.256714	803.080505
1375.366333	836.630249
1374.475586	757.888489
1373.584839	841.951355
1372.693970	794.102234
1371.802856	813.602356
1370.911499	830.290588
1370.020142	771.250244
1369.128540	810.372437
1368.236816	849.480957
1367.344971	756.831116
1366.453003	832.368896
1365.560791	840.629883
1364.668457	773.244446
1363.775879	795.518433
1362.883301	775.775085
1361.990479	784.040100
1361.097534	755.906616
1360.204346	792.163757
1359.311035	792.025391
1358.417603	783.492493
1357.524048	788.951050
1356.630249	794.407654
1355.736450	701.977051
1354.842285	766.167786
1353.948120	726.893494
1353.053711	779.876343
1352.159180	737.818542
1351.264526	726.512512
1350.369751	745.942078
1349.474731	762.571472
1348.579590	751.266968
1347.684204	801.397461
1346.788818	781.714539
1345.893188	675.506592
1344.997314	753.532593
1344.101440	722.706726
1343.205322	744.899414
1342.309082	736.400940
1341.412720	727.905457
1340.516113	685.951782
1339.619385	699.771484
1338.722534	688.499329
1337.825439	688.378845
1336.928223	704.977234
1336.030884	688.138000
1335.133423	646.235168
1334.235718	687.897217
1333.337891	665.500671
1332.439941	718.280823
1331.541870	709.804504
1330.643555	628.971497
1329.745117	676.165161
1328.846436	656.572205
1327.947754	611.951660
1327.048828	647.998962
1326.149780	611.737366
1325.250488	606.070007
1324.351074	611.523193
1323.451538	630.870239
1322.551880	602.972961
1321.651978	605.645508
1320.751953	574.984680
1319.851807	583.215637
1318.951416	627.541138
1318.050903	596.892517
1317.150269	585.684875
1316.249512	588.357544
1315.348511	591.029236
1314.447388	563.182678
1313.546021	585.274475
1312.644653	529.705322
1311.743042	582.296448
1310.841309	565.560242
1309.939331	559.917358
1309.037231	593.075806
1308.135010	551.408386
1307.232666	551.311707
1306.330078	551.215027
1305.427368	584.351624
1304.524536	553.790649
1303.621460	556.461975
1302.718262	548.060425
1301.814941	567.336731
1300.911499	558.936218
1300.007813	578.203796
1299.104004	561.506104
1298.199951	561.407593
1297.295898	608.315247
1296.391602	622.031433
1295.487061	660.619629
1294.582520	793.157166
1293.677734	795.781067
1292.772827	734.863220
1291.867676	629.772156
1290.962402	607.568237
1290.057007	538.431824
1289.151489	502.448120
1288.245728	494.079254
1287.339844	430.518585
1286.433838	474.590973
1285.527588	452.437500
1284.621216	446.841461
1283.714722	419.184998
1282.808105	427.383301
1281.901245	460.390137
1280.994263	388.644348
1280.087036	429.913940
1279.179810	416.061523
1278.272217	404.968842
1277.364624	415.915283
1276.456787	457.151031
1275.548828	465.330963
1274.640747	432.213745
1273.732544	429.385284
1272.824097	467.837585
1271.915405	437.488831
1271.006714	374.138489
1270.097778	451.087646
1269.188721	440.008118
1268.279541	415.184631
1267.370117	362.879028
1266.460571	420.535797
1265.550781	403.973114
1264.640991	387.416260
1263.730957	431.302490
1262.820679	453.199951
1261.910400	395.450348
1260.999878	411.854980
1260.089233	354.132935
1259.178345	406.220551
1258.267334	408.893311
1257.356201	373.152374
1256.444824	411.492676
1255.533447	411.420227
1254.621704	383.924622
1253.709961	381.115173
1252.797974	370.082672
1251.885864	400.167084
1250.973633	375.433105
1250.061157	372.627106
1249.148560	388.997986
1248.235840	383.451599
1247.322876	372.430237
1246.409790	364.150696
1245.496582	355.874054
1244.583130	377.707458
1243.669556	344.802551
1242.755859	385.782501
1241.841919	391.185638
1240.927856	396.586853
1240.013672	363.701752
1239.099365	385.510590
1238.184814	336.237213
1237.270142	347.110535
1236.355225	338.851349
1235.440186	352.452545
1234.525024	346.926971
1233.609741	355.059479
1232.694214	349.535400
1231.778564	349.473755
1230.862671	343.952545
1229.946777	376.643494
1229.030640	365.661774
1228.114258	373.782288
1227.197876	319.159210
1226.281128	340.921906
1225.364380	319.046600
1224.447388	343.528015
1223.530273	359.822998
1222.613037	321.603180
1221.695557	332.446289
1220.777954	348.734558
1219.860229	370.465057
1218.942261	362.229065
1218.024170	359.442078
1217.105957	329.430389
1216.187500	342.982666
1215.268921	356.530121
1214.350220	342.861542
1213.431274	337.359711
1212.512207	320.979156
1211.593018	331.801178
1210.673706	337.180969
1209.754150	367.027344
1208.834351	312.597687
1207.914551	342.437836
1206.994507	334.225464
1206.074219	301.564819
1205.153931	328.674713
1204.233398	339.480011
1203.312744	328.558563
1202.391846	304.066559
1201.470825	331.156830
1200.549683	325.670441
1199.628296	303.905334
1198.706787	325.555298
1197.785156	349.910065
1196.863281	325.440186
1195.941284	314.536530
1195.019165	300.925720
1194.096802	330.688690
1193.174438	298.109192
1192.251709	284.508423
1191.328979	327.804108
1190.406006	303.368286
1189.482788	300.606445
1188.559570	314.091705
1187.636108	308.621704
1186.712402	308.567108
1185.788696	300.393738
1184.864746	308.457886
1183.940552	319.224457
1183.016357	319.167969
1182.091919	327.224457
1181.167236	321.758820
1180.242554	337.922119
1179.317505	291.912994
1178.392456	324.290344
1177.467163	302.617401
1176.541748	297.160889
1175.616211	310.613159
1174.690430	270.050568
1173.764526	310.503143
1172.838501	291.551300
1171.912231	318.490356
1170.985840	321.132507
1170.059204	283.302032
1169.132446	296.739990
1168.205566	296.687408
1167.278564	312.814911
1166.351318	320.848083
1165.423828	266.876740
1164.496338	307.258118
1163.568604	285.645508
1162.640747	274.817688
1161.712646	290.931854
1160.784424	290.880280
1159.856079	274.671539
1158.927490	258.468536
1157.998779	279.957947
1157.069946	304.131104
1156.140869	293.313385
1155.211670	282.499451
1154.282349	298.589294
1153.352783	277.020203
1152.423096	325.373779
1151.493164	293.053284
1150.563232	284.937042
1149.632935	282.198853
1148.702637	282.148773
1147.772095	290.158661
1146.841431	308.910400
1145.910522	241.713058
1144.979492	281.948486
1144.048340	279.213684
1143.116943	284.532654
1142.185425	271.063171
1141.253784	303.214844
1140.321899	254.869873
1139.389893	287.012970
1138.457764	311.098999
1137.525391	276.185394
1136.592896	319.031281
1135.660278	286.809113
1134.727417	334.997833
1133.794434	286.707214
1132.861206	313.446564
1131.927856	356.247742
1130.994385	420.458313
1130.060669	406.995575
1129.126831	439.048767
1128.192871	414.880859
1127.258667	476.359131
1126.324341	462.895966
1125.389893	374.531281
1124.455200	337.018219
1123.520386	339.632568
1122.585327	328.876984
1121.650146	283.372040
1120.714844	294.013031
1119.779297	213.789627
1118.843628	259.173828
1117.907837	288.513336
1116.971802	264.423492
1116.035645	237.671768
1115.099365	264.329437
1114.162842	248.265274
1113.226196	274.911530
1112.289307	248.176926
1111.352417	277.481781
1110.415161	274.764771
1109.477905	274.715881
1108.540405	258.666962
1107.602661	213.295593
1106.664917	234.583389
1105.726807	247.867844
1104.788696	231.835083
1103.850342	239.786682
1102.911865	263.718384
1101.973145	247.691330
1101.034302	252.972961
1100.095337	276.889496
1099.156128	236.911301
1098.216797	258.160706
1097.277344	247.470795
1096.337646	191.556152
1095.397827	276.642914
1094.457764	239.359863
1093.517700	228.680893
1092.577271	210.029892
1091.636841	233.915649
1090.696167	215.270340
1089.755249	252.432556
1088.814209	228.477142
1087.873047	273.592438
1086.931763	244.330261
1085.990234	238.976120
1085.048584	249.552765
1084.106689	276.051697
1083.164673	225.578934
1082.222412	230.845490
1081.280151	241.416016
1080.337524	222.805786
1079.394897	233.373947
1078.452026	238.635315
1077.509033	227.988617
1076.565796	254.453506
1075.622437	219.957001
1074.678955	222.567368
1073.735229	193.387115
1072.791382	222.487915
1071.847290	256.874725
1070.903076	230.351654
1069.958740	248.841263
1069.014160	222.329086
1068.069458	264.630219
1067.124512	261.937134
1066.179565	272.471802
1065.234253	277.712891
1064.288940	351.706848
1063.343384	378.083435
1062.397583	359.511627
1061.451660	351.518402
1060.505615	385.808411
1059.559448	327.614349
1058.613037	295.856873
1057.666382	261.469604
1056.719727	261.422882
1055.772827	250.815491
1054.825684	242.851593
1053.878418	200.580673
1052.931030	213.738556
1051.983398	218.976898
1051.035645	234.764572
1050.087769	210.986603
1049.139648	229.406906
1048.191406	189.820038
1047.242920	202.965683
1046.294312	213.471176
1045.345581	192.353195
1044.396606	205.491302
1043.447510	231.794861
1042.498291	223.852722
1041.548828	218.546478
1040.599121	234.303101
1039.649414	197.411102
1038.699341	178.954041
1037.749268	207.865280
1036.798950	199.935867
1035.848511	192.009293
1034.897827	194.604706
1033.947021	197.199188
1032.996094	210.308151
1032.044922	210.270493
1031.093506	176.070007
1030.142090	204.940323
1029.190430	191.768768
1028.238525	204.866928
1027.286499	189.074066
1026.334351	189.040192
1025.381958	212.632126
1024.429443	188.972473
1023.476807	196.811066
1022.523926	178.410065
1021.570923	194.117340
1020.617737	191.459808
1019.664368	188.803238
1018.710815	175.660416
1017.757080	196.599548
1016.803223	204.426880
1015.849121	214.871780
1014.894897	212.213348
1013.940491	178.122467
1012.985962	196.423386
1012.031189	199.006668
1011.076294	201.589020
1010.121216	196.317734
1009.165955	159.643127
1008.210510	198.863953
1007.254944	196.212112
1006.299133	185.714157
1005.343201	209.217834
1004.387085	175.188507
1003.430786	190.842773
1002.474365	198.649979
1001.517700	198.614334
1000.560913	175.062790
999.603943	193.318237
998.646790	177.611893
997.689514	164.522659
996.731995	187.992142
995.774353	201.011063
994.816528	167.044128
993.858521	198.329285
992.900330	177.420654
991.942017	198.258072
990.983459	193.006073
990.024780	182.540527
989.065918	192.936752
988.106873	195.508881
987.147705	172.016907
986.188293	182.409393
985.228760	174.560486
984.269043	192.763504
983.309143	190.124420
982.349060	200.506149
981.388794	177.038544
980.428406	195.228012
979.467834	150.949188
978.507019	202.964142
977.546082	202.927658
976.585022	208.093506
975.623718	187.250488
974.662292	218.419617
973.700623	174.184311
972.738831	166.355103
971.776855	200.109985
970.814758	174.090347
969.852417	179.254837
968.889954	174.027725
967.927246	181.787308
966.964417	179.158096
966.001404	202.490112
965.038208	210.240356
964.074890	194.631958
963.111328	194.596939
962.147644	199.750229
961.183777	199.714279
960.219727	197.085098
959.255493	184.085831
958.291077	178.868103
957.326538	212.529617
956.361755	194.351837
955.396851	191.725952
954.431763	196.872284
953.466492	152.807526
952.501038	178.674927
951.535461	194.176895
950.569641	191.553360
949.603699	217.399780
948.637573	209.597733
947.671265	181.101196
946.704773	194.002045
945.738098	186.208389
944.771240	199.103653
943.804260	191.311874
942.837097	160.259430
941.869751	170.568008
940.902222	170.537262
939.934509	167.923080
938.966614	162.726868
937.998535	188.522537
937.030334	201.398712
936.061951	183.291412
935.093323	191.001663
934.124573	167.741470
933.155640	175.451736
932.186584	190.898331
931.217285	185.705414
930.247864	165.041687
929.278198	203.686584
928.308411	188.182755
927.338440	162.374985
926.368286	190.691757
925.397949	200.963150
924.427429	211.230820
923.456787	172.559875
922.485901	208.579514
921.514893	187.945129
920.543701	169.892319
919.572327	198.171906
918.600769	180.123749
917.629028	192.954880
916.657104	208.353638
915.685059	182.597977
914.712769	187.707672
913.740356	195.386398
912.767761	192.780685
911.794983	208.165527
910.822021	161.877274
909.848877	205.521301
908.875549	195.209946
907.902039	205.447021
906.928406	213.112762
905.954590	192.536972
904.980530	195.068863
904.006348	189.901138
903.031982	194.998337
902.057434	182.136566
901.082703	179.538803
900.107849	228.229477
899.132751	174.346054
898.157532	199.949005
897.182068	187.097916
896.206482	207.564255
895.230713	189.592300
894.254761	235.666702
893.278625	176.718048
892.302307	207.414093
891.325806	192.015335
890.349182	186.861115
889.372314	199.623688
888.395325	197.028748
887.418091	176.526260
886.440735	179.052200
885.463196	194.364349
884.485474	214.784866
883.507568	217.302475
882.529480	209.595016
881.551270	222.334946
880.572815	214.629349
879.594238	196.707932
878.615417	204.334869
877.636475	209.405304
876.657349	188.941284
875.677979	204.223846
874.698486	222.053207
873.718811	222.012970
872.739014	214.318512
871.758972	214.279678
870.778748	204.038895
869.798401	211.651993
868.817810	196.316269
867.837097	221.771683
866.856140	237.023300
865.875061	214.046753
864.893799	219.103378
863.912354	208.874649
862.930725	206.289978
861.948914	193.520935
860.966919	208.761032
859.984741	223.995605
859.002441	208.685318
858.019897	216.280914
857.037231	226.417755
856.054321	188.223312
855.071289	211.077026
854.088074	188.155014
853.104614	190.663040
852.121033	210.962143
851.137268	205.841354
850.153320	208.344788
849.169189	228.629608
848.184937	185.410355
847.200439	228.546600
846.215759	223.427216
845.230896	233.540588
844.245911	195.427826
843.260681	208.080154
842.275330	202.968170
841.289795	192.784744
840.304016	205.430634
839.318115	192.714722
838.332031	187.609192
837.345764	192.644699
836.359314	210.350067
835.372681	202.710220
834.385864	210.273636
833.398865	207.702469
832.411743	222.859695
831.424377	200.030869
830.436829	184.805054
829.449158	199.958160
828.461243	215.105743
827.473206	225.187424
826.484924	166.962555
825.496521	225.105545
824.507935	207.362900
823.519104	182.041626
822.530151	227.510651
821.541016	207.249771
820.551697	189.523239
819.562195	192.015289
818.572510	214.714874
817.582642	199.522217
816.592590	227.262436
815.602356	234.795120
814.611938	214.558640
813.621399	166.568146
812.630615	239.713547
811.639648	196.781616
810.648560	196.745804
809.657227	239.582672
808.665771	231.974655
807.674072	181.512329
806.682251	194.082016
805.690186	201.606934
804.697998	209.129105
803.705566	229.244354
802.713013	166.234863
801.720276	219.087860
800.727356	241.708069
799.734253	234.112045
798.740906	213.934387
797.747437	231.510315
796.753784	226.436218
795.759949	166.022964
794.765930	188.628082
793.771729	223.797867
792.777344	208.672318
791.782776	218.688950
790.788025	208.596252
789.793091	226.147476
788.798035	218.569366
787.802734	200.946671
786.807251	185.841782
785.811584	233.515320
784.815796	225.941360
783.819763	208.330139
782.823547	200.763504
781.827148	200.726883
780.830627	208.216141
779.833862	185.604614
778.836975	213.155594
777.839844	215.623962
776.842529	213.077805
775.845093	180.456497
774.847412	225.529449
773.849609	182.896057
772.851563	210.417313
771.853394	222.901459
770.854980	197.820236
769.856445	215.309280
768.857666	215.269974
767.858765	232.749435
766.859680	230.204712
765.860352	222.657364
764.860901	225.117996
763.861206	215.073471
762.861389	232.536957
761.861389	247.494125
760.861145	199.958710
759.860779	192.425095
758.860168	222.372772
757.859436	209.841568
756.858521	209.803223
755.857361	212.262070
754.856079	234.693970
753.854614	209.688187
752.852905	242.095673
751.851074	234.565277
750.848999	207.078278
749.846802	241.962906
748.844421	221.966599
747.841797	231.900208
746.839050	189.475189
745.836121	246.771225
744.832947	196.882431
743.829651	219.271957
742.826111	259.092163
741.822449	209.228470
740.818604	229.113052
739.814514	258.949982
738.810303	253.923691
737.805847	243.921249
736.801270	231.433914
735.796448	233.879639
734.791504	226.373947
733.786316	261.152893
732.781006	228.777786
731.775452	263.543518
730.769775	198.864349
729.763855	248.534927
728.757751	228.610260
727.751526	233.537262
726.745056	211.138626
725.738403	235.935242
724.731628	220.993576
723.724609	263.157623
722.717407	238.287750
721.710083	215.908707
720.702515	203.462875
719.694763	228.233582
718.686829	238.113129
717.678711	262.868408
716.670410	233.066986
715.661987	265.251007
714.653320	250.331223
713.644470	227.982681
712.635437	230.418488
711.626221	227.899078
710.616821	215.473740
709.607178	222.862976
708.597412	272.338135
707.587463	250.010056
706.577332	225.215256
705.567017	244.969452
704.556458	230.080597
703.545776	210.250137
702.534912	232.469254
701.523804	222.536102
700.512573	262.049988
699.501099	229.869568
698.489502	227.356125
697.477661	210.018723
696.465698	237.154068
695.453491	234.640640
694.441101	227.189209
693.428589	224.678497
692.415833	202.420364
691.402893	244.340683
690.389771	261.569244
689.376465	244.250946
688.362976	224.472260
687.349304	231.829849
686.335449	236.718903
685.321411	244.071518
684.307190	258.816162
683.292725	246.446289
682.278137	243.936981
681.263367	261.137054
680.248352	253.699753
679.233215	251.190460
678.217834	238.833298
677.202332	241.251129
676.186584	253.513245
675.170654	223.936539
674.154541	287.865479
673.138306	258.293304
672.121826	265.624237
671.105164	253.280243
670.088318	236.023590
669.071289	226.147675
668.054016	258.055847
667.036621	255.551147
666.019043	253.047348
665.001282	245.631836
663.983276	221.027969
662.965149	238.175201
661.946777	225.856552
660.928223	215.996933
659.909546	242.951828
658.890625	274.803986
657.871521	247.768692
656.852234	252.628479
655.832764	223.154938
654.813110	237.824646
653.793274	250.037598
652.773254	262.246033
651.752991	249.945511
650.732605	232.749496
649.711975	262.101135
648.691223	254.705582
647.670227	266.901855
646.649048	276.645447
645.627747	259.460297
644.606201	247.176056
643.584473	266.705200
642.562561	264.209656
641.540466	229.917862
640.518127	271.448700
639.495667	254.283432
638.473022	251.791977
637.450134	276.186859
636.427063	244.368088
635.403870	276.085022
634.380432	263.820190
633.356812	261.329224
632.333008	300.351074
631.309021	253.908524
630.284851	236.774841
629.260498	278.220123
628.235901	253.768021
627.211182	258.600464
626.186218	270.748627
625.161133	236.556488
624.135803	268.210419
623.110291	251.096130
622.084595	258.361908
621.058716	226.634171
620.032654	241.211197
619.006409	246.038712
617.979919	267.913483
616.953308	241.077606
615.926453	255.641144
614.899414	255.593933
613.872253	284.752075
612.844849	284.699463
611.817261	279.781128
610.789490	231.080841
609.761475	218.878235
608.733337	279.626068
607.705017	262.556824
606.676453	279.522736
605.647705	267.320160
604.618774	242.973419
603.589722	272.079926
602.560425	247.741272
601.530884	259.837402
600.501221	288.924622
599.471375	276.733765
598.441284	266.974426
597.411011	279.058014
596.380615	281.432556
595.349976	264.400635
594.319153	288.604187
593.288147	261.878052
592.256897	281.224396
591.225525	300.563568
590.193970	266.579620
589.162170	276.222321
588.130188	293.129089
587.098022	244.632706
586.065674	290.598938
585.033142	263.911835
584.000427	249.338425
582.967468	258.973511
581.934387	287.963959
580.901062	268.555298
579.867554	280.600433
578.833862	297.478119
577.799988	265.988068
576.765930	265.938812
575.731628	292.478516
574.697205	265.840302
573.662537	287.537598
572.627747	309.226837
571.592712	277.769531
570.557434	258.398529
569.522034	287.324554
568.486450	282.443237
567.450623	238.946121
566.414673	308.883179
565.378479	296.762421
564.342102	299.119659
563.305542	311.123260
562.268799	262.838348
561.231812	301.364227
560.194702	298.897888
559.157349	322.942657
558.119812	286.739166
557.082092	296.322510
556.044189	310.719604
555.006042	293.804352
553.967773	332.274414
552.929260	315.361389
551.890625	308.082214
550.851746	291.179932
549.812683	305.561890
548.773376	315.127380
547.733948	324.689331
546.694275	307.796448
545.654419	298.122437
544.614441	307.682190
543.574158	295.608459
542.533752	276.330566
541.493164	312.315674
540.452332	333.875519
539.411316	317.002777
538.370178	309.740631
537.328735	328.888245
536.287170	314.425964
535.245422	338.365082
534.203430	367.093903
533.161255	319.048492
532.118896	345.371765
531.076355	318.929932
530.033630	321.268188
528.990723	314.017242
527.947571	321.148773
526.904236	335.466187
525.860718	333.008087
524.817017	308.993225
523.773132	306.540924
522.729004	363.949646
521.684692	320.790680
520.640198	351.846741
519.595520	380.498138
518.550659	368.464233
517.505615	320.552094
516.460327	337.234619
515.414856	332.389313
514.369202	310.809845
513.323364	334.656036
512.277283	353.713409
511.231079	327.362946
510.184631	336.858307
509.138000	375.013550
508.091187	310.462952
507.044159	336.670227
505.996948	334.220276
504.949554	331.771210
503.901947	303.072632
502.854126	329.261688
501.806152	345.898956
500.757965	364.915070
499.709564	336.231628
