#Wave		#Intensity
3200.600830	46.308376
3200.007080	29.468966
3199.413086	21.046080
3198.819092	21.042900
3198.224854	21.039719
3197.630615	25.243847
3197.036377	25.240030
3196.442139	50.472431
3195.847656	25.232399
3195.252930	46.252407
3194.658447	21.020641
3194.063721	63.052391
3193.468750	25.217144
3192.873779	29.415552
3192.278809	42.015862
3191.683838	37.808559
3191.088623	29.402208
3190.493164	37.797123
3189.897949	33.592361
3189.302490	16.793640
3188.706787	58.768848
3188.111328	20.985701
3187.515381	58.751072
3186.919678	25.175220
3186.323730	37.757118
3185.727783	37.751408
3185.131592	25.163795
3184.535400	33.546650
3183.939209	29.348879
3183.342773	20.960312
3182.746338	16.765713
3182.149902	37.717144
3181.553223	25.140957
3180.956543	41.895252
3180.359619	20.944456
3179.762695	46.070827
3179.165771	33.500984
3178.568604	58.617847
3177.971436	33.490841
3177.374268	25.114328
3176.776855	50.221054
3176.179443	33.475632
3175.581787	20.919104
3174.984131	29.282309
3174.386475	41.825535
3173.788574	50.183041
3173.190674	12.543860
3172.592773	20.903269
3171.994629	25.080122
3171.396484	16.717548
3170.798340	58.502560
3170.199951	37.603092
3169.601563	25.064930
3169.002930	41.768555
3168.404297	8.352446
3167.805664	50.107079
3167.206787	29.224701
3166.607910	20.871622
3166.008789	29.215845
3165.409912	33.384476
3164.810547	41.724270
3164.211426	29.202564
3163.612061	37.540462
3163.012695	41.705303
3162.413086	20.849491
3161.813477	50.031193
3161.213623	20.843170
3160.614014	41.680023
3160.013916	25.004221
3159.414063	54.167599
3158.813965	49.993282
3158.213867	8.330950
3157.613525	16.659374
3157.013184	66.627388
3156.412598	33.308643
3155.812256	45.792439
3155.211426	45.785496
3154.610840	29.131805
3154.010010	29.127386
3153.409180	41.604240
3152.808105	33.278343
3152.207031	49.909943
3151.605957	24.951185
3151.004639	41.579002
3150.403320	37.415424
3149.801758	37.409748
3149.200195	70.652130
3148.598633	54.019905
3147.996826	8.309493
3147.395020	49.849392
3146.793213	33.227886
3146.191162	45.681408
3145.589111	41.522251
3144.986816	33.212757
3144.384766	33.207718
3143.782227	41.503345
3143.179932	49.796455
3142.577393	20.745373
3141.974609	45.632893
3141.371826	33.182518
3140.769043	41.471851
3140.166260	24.879332
3139.563232	41.459255
3138.960205	37.307667
3138.356934	20.723333
3137.753662	37.296333
3137.150391	20.717039
3136.546875	16.571114
3135.943359	41.421494
3135.339600	57.981281
3134.735840	33.127129
3134.132080	53.823406
3133.528076	41.396328
3132.924072	53.807053
3132.320068	4.138375
3131.715820	28.964224
3131.111572	8.274236
3130.507080	24.818933
3129.902588	33.086884
3129.298096	37.217087
3128.693604	53.749844
3128.088867	4.133975
3127.483887	62.000202
3126.878906	66.123497
3126.273926	53.717175
3125.668945	57.840469
3125.063721	57.831676
3124.458252	41.302059
3123.853027	53.684517
3123.247559	53.676353
3122.641846	37.154903
3122.036133	33.021557
3121.430420	41.270672
3120.824707	61.896591
3120.218750	33.006496
3119.612549	33.001476
3119.006592	24.747341
3118.400391	45.363228
3117.793945	57.726234
3117.187500	32.981400
3116.581055	45.342529
3115.974609	57.699894
3115.367920	49.449528
3114.760986	45.321838
3114.154297	20.597700
3113.547363	57.664787
3112.940186	28.828005
3112.333008	41.176598
3111.725830	57.638466
3111.118408	37.047661
3110.510986	37.042023
3109.903564	53.496998
3109.295898	74.061493
3108.688232	74.050217
3108.080566	65.812401
3107.472656	41.126488
3106.864746	41.120224
3106.256592	24.668379
3105.648438	28.775394
3105.040039	53.431881
3104.431885	36.985668
3103.823486	45.197823
3103.214844	45.190941
3102.606201	49.291698
3101.997559	20.535080
3101.388672	32.851124
3100.779785	16.423061
3100.170898	45.156536
3099.561768	45.149658
3098.952637	49.246670
3098.343262	53.342430
3097.733887	49.231667
3097.124512	36.918125
3096.514893	69.723610
3095.905273	16.403055
3095.295410	49.201668
3094.685791	49.194172
3094.075684	36.890007
3093.465820	69.670502
3092.855713	40.976402
3092.245361	57.358219
3091.635254	53.253086
3091.024658	53.244968
3090.414307	73.712563
3089.803711	49.134216
3089.193115	49.126728
3088.582275	45.025967
3087.971436	36.833813
3087.360596	53.196281
3086.749512	65.462364
3086.138428	36.816963
3085.527100	40.901501
3084.915771	53.163841
3084.304443	40.889027
3083.692871	40.882790
3083.081299	57.227177
3082.469482	44.957352
3081.857910	49.036903
3081.245850	61.286777
3080.634033	61.277428
3080.021973	69.437157
3079.409668	57.174816
3078.797607	44.916214
3078.185059	53.074699
3077.572754	44.902508
3076.960205	53.058502
3076.347656	48.969604
3075.734863	73.443199
3075.122070	61.193325
3074.509033	48.947189
3073.895996	48.939716
3073.282959	48.932247
3072.669922	40.770649
3072.056641	61.146637
3071.443115	65.213120
3070.829834	57.052769
3070.216064	65.193207
3069.602539	44.813488
3068.988770	57.026638
3068.375000	44.799805
3067.760986	57.009224
3067.146973	69.214912
3066.532715	65.133499
3065.918701	52.912888
3065.304199	40.696003
3064.689941	40.689789
3064.075439	52.888645
3063.460693	77.286980
3062.846191	44.738258
3062.231445	60.997395
3061.616455	69.119820
3061.001465	40.652504
3060.386475	69.098694
3059.771240	73.152145
3059.156006	40.633873
3058.540771	65.004257
3057.925293	52.807888
3057.309814	52.799816
3056.694092	81.218071
3056.078369	32.482262
3055.462646	48.715946
3054.846680	36.531376
3054.230713	52.759476
3053.614502	60.867012
3052.998291	73.029243
3052.382080	40.565601
3051.765625	28.391579
3051.149170	64.885117
3050.532715	60.820492
3049.916016	60.811192
3049.299316	68.908813
3048.682373	48.634075
3048.065430	60.783295
3047.448486	68.877197
3046.831299	56.713722
3046.214111	36.453243
3045.596680	56.696369
3044.979248	76.933304
3044.361816	44.533520
3043.744141	40.478825
3043.126465	40.472630
3042.508545	52.606369
3041.890869	44.506268
3041.272705	56.635674
3040.654785	60.671791
3040.036621	80.883347
3039.418213	64.696770
3038.799805	76.815659
3038.181396	97.015450
3037.562988	48.500301
3036.944336	48.492874
3036.325439	80.809090
3035.706543	96.956055
3035.087646	40.392174
3034.468750	24.231592
3033.849609	40.379803
3033.230469	76.709877
3032.611084	68.624641
3031.991699	88.794762
3031.372070	52.461597
3030.752441	60.523342
3030.132813	64.548340
3029.513184	80.673073
3028.893066	76.627678
3028.273193	60.486267
3027.653076	72.572403
3027.032959	52.405373
3026.412598	64.489037
3025.792480	64.479156
3025.171875	32.234638
3024.551270	68.488113
3023.930664	76.533806
3023.310059	44.302254
3022.689209	44.295464
3022.068115	40.262432
3021.447266	60.384392
3020.826172	72.450165
3020.204834	60.365883
3019.583496	64.380402
3018.962158	80.463165
3018.340576	52.293041
3017.718994	68.372726
3017.097412	76.404861
3016.475586	52.268993
3015.853760	88.441658
3015.231689	84.408630
3014.609619	60.282635
3013.987549	52.236938
3013.365234	60.264145
3012.742920	76.322876
3012.120361	72.294792
3011.497803	72.283707
3010.875244	72.272614
3010.252441	56.203411
3009.629639	60.208702
3009.006836	68.226059
3008.383789	92.291687
3007.760498	84.253395
3007.137451	88.251915
3006.514160	84.227539
3005.890625	88.224831
3005.267090	64.153664
3004.643555	52.116856
3004.019775	56.117229
3003.395996	84.162926
3002.772217	100.178574
3002.148193	84.137085
3001.524170	56.082779
3000.899902	52.068874
3000.275635	64.074928
2999.651367	88.089500
2999.026855	52.044895
2998.402344	64.045418
2997.777588	72.040031
2997.152832	52.020924
2996.528076	64.015915
2995.903076	80.007607
2995.278076	71.995789
2994.653076	67.985580
2994.027832	79.970749
2993.402344	87.954308
2992.777100	95.935417
2992.151367	59.950424
2991.525879	67.933372
2990.900146	47.945602
2990.274414	59.922794
2989.648438	55.919350
2989.022461	71.885254
2988.396240	59.895176
2987.770264	79.847961
2987.143799	103.786400
2986.517578	119.735130
2985.891113	75.820595
2985.264404	83.788826
2984.637695	83.775948
2984.010986	87.751785
2983.384033	79.762085
2982.757080	75.762337
2982.130127	79.737564
2981.502930	83.711571
2980.875732	75.727394
2980.248291	83.685829
2979.620850	79.688530
2978.993408	63.741020
2978.365723	123.479233
2977.738037	115.495064
2977.110107	75.657547
2976.482178	71.664543
2975.854248	103.499527
2975.226074	79.602776
2974.597900	87.549583
2973.969482	87.536110
2973.341309	79.566040
2972.712646	79.553795
2972.083984	71.587402
2971.455322	79.529320
2970.826660	63.613663
2970.197754	55.653389
2969.568604	67.568718
2968.939697	115.246536
2968.310547	103.308578
2967.681152	91.374290
2967.051758	63.554939
2966.422363	87.374588
2965.792725	63.535374
2965.163086	95.288391
2964.533203	83.364502
2963.903564	79.382538
2963.273438	115.086960
2962.643311	83.325996
2962.013184	91.247757
2961.383057	103.133751
2960.752686	95.185722
2960.122314	122.929291
2959.491699	103.086105
2958.861084	87.213272
2958.230225	99.090721
2957.599609	110.964516
2956.968506	83.210564
2956.337646	95.083138
2955.706299	79.223740
2955.075195	95.053841
2954.443848	95.039192
2953.812500	102.943260
2953.180908	106.886147
2952.549316	110.827805
2951.917725	102.895676
2951.285889	134.535141
2950.653809	122.645493
2950.021973	98.892410
2949.389893	110.742424
2948.757568	90.952965
2948.125244	90.938950
2947.492920	110.691216
2946.860352	138.342682
2946.227783	134.369324
2945.595215	118.542877
2944.962402	130.377060
2944.329590	130.356949
2943.696533	138.236053
2943.063477	150.061707
2942.430420	161.883713
2941.797119	118.433235
2941.163574	130.256454
2940.530273	157.862259
2939.896729	197.297394
2939.262939	173.594925
2938.629150	205.125977
2937.995361	209.038452
2937.361328	157.740524
2936.727295	157.716187
2936.093262	212.884003
2935.458984	204.967773
2934.824707	220.700455
2934.190186	185.202148
2933.555664	220.632339
2932.921143	208.780518
2932.286377	189.055054
2931.651367	232.344299
2931.016602	196.871552
2930.381592	224.398926
2929.746338	216.491852
2929.111084	212.522827
2928.475830	224.295013
2927.840332	239.997940
2927.204834	204.556824
2926.569336	235.990646
2925.933594	235.954208
2925.297607	275.237396
2924.661865	239.812683
2924.025879	255.498627
2923.389648	231.878326
2922.753418	223.983429
2922.117188	231.806686
2921.480713	267.125763
2920.844238	223.879639
2920.207764	259.188995
2919.571045	231.663467
2918.934082	270.886597
2918.297363	290.471161
2917.660156	255.104156
2917.023193	282.533234
2916.385986	329.571167
2915.748779	258.908752
2915.111328	317.702545
2914.473877	254.907074
2913.836182	254.867676
2913.198486	250.907837
2912.560791	254.788879
2911.922852	270.426392
2911.284912	262.547333
2910.646729	246.834702
2910.008545	309.475006
2909.370361	321.177551
2908.731934	285.882141
2908.093506	332.824982
2907.455078	313.198608
2906.816406	309.235779
2906.177490	313.101715
2905.538574	293.487457
2904.899658	336.480225
2904.260498	332.516205
2903.621338	367.666931
2902.982178	340.234833
2902.342773	316.721344
2901.703369	336.220001
2901.063721	367.439423
2900.424072	386.924194
2899.784424	375.141144
2899.144531	414.154266
2898.504639	406.277130
2897.864502	359.343384
2897.224365	386.624878
2896.583984	327.994568
2895.943848	386.505188
2895.303223	405.962799
2894.662842	425.414368
2894.021973	468.273560
2893.381348	405.774261
2892.740479	417.414642
2892.099609	421.250458
2891.458496	389.986328
2890.817383	467.911133
2890.176025	452.244049
2889.534668	459.970093
2888.893311	452.103943
2888.251709	436.446564
2887.610107	471.445099
2886.968262	467.476440
2886.326416	482.984161
2885.684570	498.487030
2885.042480	506.197479
2884.400391	447.720673
2883.758057	587.785645
2883.115723	642.182800
2882.473389	579.820618
2881.830811	603.075623
2881.188232	676.896118
2880.545410	735.135315
2879.902588	824.468384
2879.259766	863.224609
2878.616699	870.866333
2877.973633	874.618530
2877.330322	796.751160
2876.687012	707.249878
2876.043457	664.401001
2875.399902	629.334900
2874.756348	590.395508
2874.112549	570.886047
2873.468750	497.020996
2872.824707	524.120544
2872.180664	465.812653
2871.536621	407.522858
2870.892334	388.056793
2870.248047	450.076080
2869.603760	395.695160
2868.958984	415.027588
2868.314453	387.816071
2867.669678	453.674408
2867.024902	465.234863
2866.379883	383.759216
2865.734863	422.457214
2865.089844	476.643799
2864.444580	441.698853
2863.799316	433.882416
2863.153809	437.688416
2862.508301	449.238739
2861.862549	441.424713
2861.216797	456.842377
2860.571045	445.158600
2859.925049	456.700531
2859.279053	491.457306
2858.632813	448.820435
2857.986572	553.201355
2857.340332	518.304016
2856.693848	471.815430
2856.047363	502.676086
2855.400635	560.590088
2854.753906	572.099670
2854.107178	583.605591
2853.460205	602.836670
2852.813232	610.470459
2852.166016	606.512512
2851.518799	625.730957
2850.871338	660.391174
2850.223877	668.011292
2849.576416	706.514832
2848.928711	636.922607
2848.281006	683.138062
2847.633301	760.210693
2846.985352	806.392578
2846.337158	775.405334
2845.688965	779.141968
2845.040771	836.868958
2844.392578	794.323547
2843.743896	821.187439
2843.095459	763.238708
2842.446777	713.016174
2841.798096	828.511597
2841.149170	689.676819
2840.500244	708.831360
2839.851074	674.055420
2839.202148	631.588013
2838.552734	535.226074
2837.903320	512.043152
2837.253906	515.812866
2836.604492	492.640137
2835.954834	454.082001
2835.304932	400.145599
2834.655029	369.307709
2834.005127	400.021118
2833.354980	326.889465
2832.704834	346.064423
2832.054688	334.476898
2831.404297	319.048981
2830.753906	272.878967
2830.103271	230.566055
2829.452637	230.530167
2828.801758	230.494293
2828.150879	226.617447
2827.500000	215.061050
2826.848877	184.309341
2826.197754	138.210495
2825.546387	214.960632
2824.895020	218.765152
2824.243408	184.194611
2823.591797	218.697037
2822.940186	161.120102
2822.288330	164.930603
2821.636475	161.069916
2820.984619	161.044846
2820.332520	134.183136
2819.680176	160.994690
2819.028076	180.132660
2818.375488	160.944534
2817.723145	157.088043
2817.070557	149.401947
2816.417725	176.190216
2815.764893	130.207275
2815.112061	153.161148
2814.458984	133.995132
2813.805908	141.629929
2813.152832	137.780609
2812.499512	141.585785
2811.845947	133.911636
2811.192383	145.367111
2810.538818	126.220184
2809.885010	149.146057
2809.231201	145.299149
2808.577393	133.807297
2807.923340	107.029152
2807.269287	149.053085
2806.614990	137.566010
2805.960693	141.365250
2805.306152	129.882950
2804.651611	156.599121
2803.997070	152.755814
2803.342285	145.095398
2802.687500	122.166542
2802.032471	164.135681
2801.377441	114.495407
2800.722412	152.636734
2800.067139	164.058899
2799.411621	129.700745
2798.756348	110.609848
2798.100586	114.406136
2797.445068	137.265945
2796.789307	125.807480
2796.133301	144.846619
2795.477539	152.446335
2794.821289	160.043671
2794.165283	144.778809
2793.509033	121.899979
2792.852539	133.307281
2792.196045	156.135590
2791.539551	121.842903
2790.882813	121.823883
2790.226074	148.449677
2789.569092	121.785851
2788.912109	144.598114
2788.255127	155.989410
2787.597900	140.748947
2786.940430	102.692650
2786.283203	133.099319
2785.625488	163.496475
2784.968018	136.859406
2784.310303	114.031685
2783.652588	152.018509
2782.994629	125.395676
2782.336426	132.974640
2781.678467	144.349915
2781.020264	121.538826
2780.361816	129.114838
2779.703369	136.688461
2779.044922	117.685562
2778.386230	129.054321
2777.727539	155.600006
2777.068604	132.808517
2776.409668	132.787766
2775.750732	147.940384
2775.091553	144.124512
2774.432373	128.933350
2773.772949	136.496338
2773.113525	151.638885
2772.453857	147.824799
2771.794189	113.693604
2771.134521	159.146164
2770.474609	83.349243
2769.814697	121.216301
2769.154541	136.347015
2768.494385	136.325699
2767.833984	143.876846
2767.173584	121.140495
2766.513184	143.831848
2765.852539	128.671524
2765.191895	128.651398
2764.531006	83.231995
2763.870117	102.132378
2763.209229	117.244759
2762.548096	143.696899
2761.886719	98.303551
2761.225586	128.530685
2760.563965	151.188904
2759.902588	128.490463
2759.240967	139.805969
2758.579102	147.339981
2757.917236	147.316925
2757.255371	147.293869
2756.593262	120.837593
2755.931152	135.921005
2755.269043	120.799759
2754.606689	166.073669
2753.944092	128.309570
2753.281494	139.609131
2752.618896	135.814651
2751.956055	128.249298
2751.293213	132.000671
2750.630371	124.438286
2749.967285	135.729599
2749.303955	124.399307
2748.640625	135.687088
2747.977295	146.971313
2747.313721	180.859436
2746.650146	143.157959
2745.986572	154.435699
2745.322754	165.709915
2744.658691	146.856232
2743.994873	139.303314
2743.330566	124.224030
2742.666504	150.550980
2742.002197	158.053757
2741.337646	150.503799
2740.673096	124.146179
2740.008545	139.172379
2739.343750	150.433044
2738.678955	120.327576
2738.013916	131.587646
2737.348877	169.157608
2736.683594	169.131088
2736.018311	135.283661
2735.353027	165.320770
2734.687500	150.268036
2734.021973	150.244476
2733.356201	146.465393
2732.690430	153.952286
2732.024658	135.156418
2731.358643	157.657761
2730.692383	198.917877
2730.026367	180.123779
2729.359863	198.855469
2728.693604	180.067276
2728.027100	183.789841
2727.360352	180.010773
2726.693604	187.481812
2726.026855	191.201431
2725.359863	142.441467
2724.692871	213.628662
2724.025635	221.089706
2723.358398	191.081451
2722.691162	194.797562
2722.023682	217.240112
2721.355957	217.206009
2720.688477	198.450195
2720.020508	213.394058
2719.352783	183.415222
2718.684814	153.445786
2718.016602	220.777557
2717.348389	187.070251
2716.680176	160.855148
2716.011719	194.491959
2715.343262	149.585709
2714.674561	194.430878
2714.005859	194.400345
2713.337158	194.369812
2712.668213	186.864700
2711.999023	205.518875
2711.329834	186.805984
2710.660645	168.098984
2709.991455	197.952133
2709.321777	201.655396
2708.652344	168.019760
2707.982666	175.459732
2707.312988	167.966965
2706.643066	171.672577
2705.972900	160.451324
2705.302979	156.695267
2704.632813	164.131149
2703.962402	156.646011
2703.291992	160.350464
2702.621582	156.596771
2701.950928	186.395416
2701.280273	137.910919
2700.609375	160.249664
2699.938477	149.046005
2699.267334	122.943626
2698.596191	182.523941
2697.925049	182.495239
2697.253662	148.952286
2696.582031	174.991409
2695.910645	160.073334
2695.239014	171.214310
2694.567139	171.187378
2693.895264	156.276932
2693.223145	126.489998
2692.551270	152.508057
2691.878906	141.326691
2691.206543	159.897156
2690.534180	130.128357
2689.861816	167.281570
2689.189209	156.104889
2688.516357	148.647934
2687.843506	133.762085
2687.170654	178.321381
2686.497559	152.292206
2685.824463	141.126648
2685.151123	155.957535
2684.477783	193.059875
2683.804199	152.196320
2683.130615	126.191719
2682.457031	126.171844
2681.783203	174.386566
2681.109375	185.488403
2680.435303	144.658173
2679.761230	122.383797
2679.086914	152.028641
2678.412598	107.515518
2677.738281	177.928696
2677.063721	137.131760
2676.389160	155.638565
2675.714355	155.614044
2675.039551	162.998550
2674.364502	185.196442
2673.689453	129.617081
2673.014404	162.921524
2672.339111	181.406738
2671.663574	122.152634
2670.988037	133.236420
2670.312500	162.818848
2669.636719	155.393494
2668.960938	173.865311
2668.285156	125.755081
2667.609131	177.508591
2666.932861	118.320412
2666.256592	140.483337
2665.580322	162.639267
2664.903809	144.134796
2664.227295	158.892807
2663.550781	125.616356
2662.874023	114.514503
2662.197021	144.043915
2661.520020	125.556938
2660.843018	166.152084
2660.165771	151.359131
2659.488525	162.408569
2658.811035	151.311386
2658.133545	125.457939
2657.455811	173.399796
2656.778076	125.418358
2656.100342	158.592316
2655.422363	151.192062
2654.744385	151.168213
2654.066162	143.771454
2653.387939	154.806366
2652.709473	140.040802
2652.031006	143.703400
2651.352539	158.417191
2650.673828	143.658035
2649.994873	165.733109
2649.316162	165.706940
2648.636963	169.362579
2647.958008	139.886124
2647.278809	139.864044
2646.599365	139.841949
2645.919922	143.499344
2645.240479	154.513351
2644.560791	154.488953
2643.880859	139.753632
2643.201172	125.022980
2642.520996	158.092331
2641.841064	161.743332
2641.160889	169.068588
2640.480469	165.367065
2639.800049	157.992447
2639.119629	124.904526
2638.438965	124.884789
2637.758301	154.245071
2637.077393	135.861084
2636.396484	157.867676
2635.715332	135.818161
2635.034180	132.126511
2634.353027	143.114426
2633.671631	168.774948
2632.989990	132.063873
2632.308350	168.721603
2631.626709	157.693085
2630.944824	124.667839
2630.262939	139.312622
2629.581055	164.949387
2628.898926	139.268570
2628.216553	139.246536
2627.534180	139.224518
2626.851807	135.539276
2626.169189	139.180481
2625.486572	131.834351
2624.803711	153.782410
2624.120850	150.097168
2623.437988	128.111465
2622.754883	153.709442
2622.071533	142.707611
2621.388184	124.392082
2620.704834	146.320465
2620.021240	142.639877
2619.337646	160.901581
2618.653809	157.219849
2617.969971	171.817749
2617.286133	146.204727
2616.602051	164.454285
2615.917725	168.082214
2615.233398	175.362381
2614.549072	135.153763
2613.864502	142.436829
2613.179932	157.020859
2612.495117	171.600281
2611.810303	171.573105
2611.125488	138.696716
2610.440430	145.973434
2609.755127	127.706520
2609.069824	171.464462
2608.384521	142.256485
2607.698975	167.763123
2607.013428	167.736557
2606.327637	145.834763
2605.641846	149.456955
2604.956055	153.077988
2604.270020	127.544785
2603.583740	149.385925
2602.897461	160.291199
2602.211182	101.987335
2601.524658	142.031265
2600.838135	131.085007
2600.151367	123.782890
2599.464600	152.884048
2598.777832	185.615479
2598.090820	149.196640
2597.403564	134.619522
2596.716309	141.873764
2596.029053	160.037338
2595.341553	174.558502
2594.654053	149.078415
2593.966309	159.961227
2593.278564	163.570755
2592.590820	167.179153
2591.902832	185.321411
2591.214600	148.960251
2590.526367	138.038818
2589.838135	159.809067
2589.149658	163.415176
2588.461182	141.604019
2587.772461	145.211853
2587.083740	156.077972
2586.394775	127.020050
2585.705811	170.542725
2585.016846	166.887665
2584.327637	174.116013
2583.638184	145.073654
2582.948975	152.303162
2582.259277	123.273468
2581.569824	184.880859
2580.879883	188.476059
2580.190186	155.830460
2579.500244	141.312164
2578.810059	144.912552
2578.119873	137.645065
2577.429688	181.083176
2576.739258	152.085709
2576.048584	141.200027
2575.358154	141.177597
2574.667236	130.297089
2573.976563	159.226700
2573.285645	162.819626
2572.594482	155.558487
2571.903320	155.533783
2571.212158	191.673981
2570.520752	159.100281
2569.829102	162.690353
2569.137451	148.205444
2568.445801	177.095428
2567.753906	151.771973
2567.062012	151.747849
2566.370117	180.623489
2565.677979	166.147202
2564.985596	144.452866
2564.293213	169.705139
2563.600830	140.796783
2562.908203	151.603195
2562.215332	173.233261
2561.522705	119.078934
2560.829590	129.883636
2560.136719	140.684906
2559.443604	155.089462
2558.750244	173.095596
2558.056885	151.434555
2557.363525	187.460587
2556.669922	158.595276
2555.976074	151.362320
2555.282227	176.561295
2554.588379	162.122330
2553.894287	172.902985
2553.200195	162.070755
2552.505859	118.832985
2551.811523	176.420898
2551.117188	147.594009
2550.422607	169.166199
2549.727783	190.731537
2549.032959	151.121689
2548.338135	165.487900
2547.643066	161.864578
2546.947998	179.820908
2546.252686	143.833817
2545.557373	154.596756
2544.861816	140.193329
2544.166260	165.329926
2543.470703	161.710037
2542.774902	154.498322
2542.078857	183.213028
2541.382813	190.367538
2540.686768	143.650742
2539.990479	179.534821
2539.294189	147.195114
2538.597656	165.119431
2537.901123	129.203323
2537.204346	157.890015
2536.507568	168.628387
2535.810791	190.125122
2535.113770	129.121017
2534.416504	157.789444
2533.719238	150.593201
2533.021973	179.249054
2532.324463	161.298431
2531.626953	168.440414
2530.929199	143.330704
2530.231445	179.134827
2529.533447	139.702896
2528.835449	164.751511
2528.137451	171.887207
2527.439209	175.440231
2526.740723	182.571945
2526.042236	153.908661
2525.343750	171.777634
2524.645020	211.109680
2523.946289	164.567734
2523.247314	200.311386
2522.548340	168.091675
2521.849121	153.761475
2521.149902	143.011124
2520.450684	153.712433
2519.751221	167.984467
2519.051514	164.384109
2518.351807	175.076889
2517.652100	160.759247
2516.952148	175.021027
2516.252197	142.851517
2515.552002	199.960205
2514.851807	185.647705
2514.151367	167.770187
2513.450928	132.053329
2512.750244	178.421967
2512.049561	171.257751
2511.348877	171.230423
2510.647949	167.636353
2509.946777	185.440414
2509.245605	164.017258
2508.544434	171.121109
2507.843018	178.222702
2507.141602	160.374817
2506.439941	185.292435
2505.738281	163.886353
2505.036377	178.108902
2504.334473	174.518845
2503.632568	185.174103
2502.930420	188.705002
2502.228027	177.995148
2501.525635	174.407379
2500.823242	181.497055
2500.120605	188.584457
2499.417969	138.747528
2498.715088	138.725357
2498.012207	177.824600
2497.309082	170.684341
2496.605957	174.212433
2495.902588	206.177673
2495.199219	145.722992
2494.495605	163.467957
2493.791992	188.313416
2493.088379	163.415710
2492.384521	159.837646
2491.680664	174.017609
2490.976563	202.396286
2490.272461	156.210754
2489.568115	212.980606
2488.863770	181.004578
2488.159180	170.330002
2487.454590	159.658844
2486.749756	163.180710
2486.044922	187.982498
2485.339844	170.221069
2484.634766	216.288010
2483.929688	155.986069
2483.224365	170.139404
2482.519043	163.024170
2481.813477	201.975906
2481.107666	184.229233
2480.402100	187.742065
2479.696045	177.086823
2478.990234	162.893799
2478.284180	208.895569
2477.577881	169.921738
2476.871582	169.894547
2476.165039	198.178589
2475.458496	169.840164
2474.751953	173.350754
2474.045166	183.934616
2473.338379	169.758621
2472.631348	159.123230
2471.924072	176.775269
2471.217041	205.026489
2470.509521	187.321793
2469.802246	187.291794
2469.094482	183.728561
2468.386963	166.035751
2467.679199	190.733932
2466.971191	180.108749
2466.263184	176.548920
2465.554932	187.111877
2464.846680	176.492371
2464.138428	197.639786
2463.429932	187.021973
2462.721436	201.104599
2462.012695	208.127548
2461.303955	176.351013
2460.594971	158.690475
2459.885986	169.242722
2459.176758	200.943527
2458.467529	172.713242
2457.758057	183.258133
2457.048584	162.086975
2456.338867	193.768585
2455.629150	179.647522
2454.919434	158.487106
2454.209473	200.718140
2453.499512	197.165161
2452.789307	214.734756
2452.078857	172.464188
2451.368408	165.398300
2450.657959	200.557266
2449.947266	172.381226
2449.236572	161.801315
2448.525879	161.775360
2447.814697	203.944916
2447.103760	193.365005
2446.392578	193.333984
2445.681152	207.361374
2444.969727	179.215820
2444.258301	193.240936
2443.546631	196.722839
2442.834717	179.129547
2442.122803	179.100800
2441.410889	175.560837
2440.698730	210.639206
2439.986572	175.504486
2439.274170	193.023956
2438.561768	207.028809
2437.849121	217.520782
2437.136475	203.454514
2436.423584	210.436386
2435.710693	199.882477
2434.997803	185.825790
2434.284424	196.312698
2433.571289	213.806274
2432.857910	213.771942
2432.144287	203.225922
2431.430908	203.193283
2430.717041	252.199417
2430.003174	196.123581
2429.289307	203.095367
2428.575195	224.069229
2427.861084	245.036346
2427.146729	185.497711
2426.432373	195.966080
2425.717773	206.431091
2425.003174	206.397919
2424.288330	220.355576
2423.573486	195.840149
2422.858643	223.781326
2422.143555	206.265259
2421.428223	206.232101
2420.712891	195.714249
2419.997559	209.660126
2419.281982	178.182465
2418.566162	195.619873
2417.850586	202.573715
2417.134521	220.001587
2416.418457	209.491623
2415.702393	226.912766
2414.986084	178.010605
2414.269775	216.370255
2413.553223	195.399765
2412.836670	212.811920
2412.120117	223.242172
2411.403076	209.255859
2410.686279	212.709229
2409.969238	226.620911
2409.251953	219.612625
2408.534668	216.091934
2407.817383	202.117981
2407.099854	163.758896
2406.382080	212.503952
2405.664307	167.189301
2404.946533	191.540237
2404.228516	222.847321
2403.510498	226.292877
2402.792236	222.775574
2402.073975	177.495712
2401.355469	208.784851
2400.636963	201.792862
2399.918213	187.845856
2399.199463	215.640152
2398.480469	177.352844
2397.761475	215.570694
2397.042480	170.342957
2396.323242	191.170471
2395.603760	180.713882
2394.884277	138.988281
2394.164795	232.767868
2393.445068	208.415253
2392.725098	215.327728
2392.005127	204.875641
2391.285156	239.561707
2390.564941	222.166367
2389.844727	225.601349
2389.124268	211.684067
2388.403809	194.301590
2387.683105	211.615845
2386.962402	208.113174
2386.241455	211.547623
2385.520508	197.643784
2384.799316	218.413177
2384.078125	201.046371
2383.356689	235.671539
2382.635254	200.981552
2381.913818	152.444168
2381.192139	263.270203
2380.470215	214.738419
2379.748291	214.703781
2379.026367	190.432312
2378.304199	211.172684
2377.581787	228.445068
2376.859375	211.104553
2376.136963	204.150162
2375.414307	245.632584
2374.691650	207.543350
2373.968750	273.221313
2373.245850	214.392258
2372.522705	183.241226
2371.799316	165.927536
2371.076172	203.919678
2370.352783	200.431061
2369.629150	217.674454
2368.905518	224.548492
2368.181641	224.512253
2367.457764	217.569046
2366.733643	186.457657
2366.009521	227.855896
2365.285400	210.560074
2364.561035	234.684799
2363.836426	220.844147
2363.111816	238.059143
2362.387207	234.571121
2361.662354	210.390106
2360.937256	234.495361
2360.212158	220.665863
2359.487061	210.288177
2358.761719	213.700989
2358.036377	248.128799
2357.310791	230.860336
2356.584961	234.268143
2355.859375	220.452042
2355.133301	241.080460
2354.407471	244.484940
2353.681152	258.217010
2352.955078	254.732941
2352.228516	227.157516
2351.502197	203.032227
2350.775635	261.490753
2350.048828	240.807816
2349.322021	206.373337
2348.594971	226.973969
2347.867920	240.691040
2347.140869	220.024796
2346.413330	257.799866
2345.686035	202.769760
2344.958496	250.844040
2344.230713	250.803482
2343.502930	247.327805
2342.775146	240.418686
2342.047119	247.247787
2341.319092	230.040588
2340.590820	202.540283
2339.862305	205.939850
2339.133789	264.246704
2338.405273	209.304428
2337.676514	209.270554
2336.947754	284.699097
2336.218750	192.055054
2335.489746	240.029968
2334.760498	239.991119
2334.031250	236.524384
2333.301758	236.486084
2332.572266	260.435272
2331.842529	219.278397
2331.112793	222.668564
2330.382813	226.057632
2329.652832	267.115753
2328.922607	246.528473
2328.192383	249.912003
2327.462158	263.563110
2326.731689	212.185287
2326.000977	239.525223
2325.270264	260.013824
2324.539307	263.392395
2323.808350	225.728333
2323.077393	229.111343
2322.346191	225.655197
2321.614746	218.781708
2320.883301	208.492523
2320.151855	266.553802
2319.420166	276.761017
2318.688232	259.634918
2317.956299	242.514359
2317.224365	245.890198
2316.492188	245.850342
2315.760010	238.982422
2315.027588	266.251526
2314.295166	245.730804
2313.562500	242.278580
2312.829590	238.827484
2312.096924	249.022552
2311.363770	248.982178
2310.630615	248.941803
2309.897461	265.949463
2309.164063	269.315399
2308.430664	245.412201
2307.697021	255.596237
2306.963379	224.888199
2306.229492	252.106476
2305.495605	238.440414
2304.761719	234.995987
2304.027344	251.983795
2303.293213	238.324371
2302.558838	292.751007
2301.824219	251.861145
2301.089600	210.984543
2300.354736	248.376968
2299.619873	221.121689
2298.885010	278.908234
2298.149658	244.855270
2297.414551	224.414230
2296.679199	254.974777
2295.943604	268.529816
2295.208008	231.102066
2294.472412	248.054581
2293.736572	251.411758
2293.000488	258.164734
2292.264404	261.519165
2291.528320	251.289291
2290.791992	281.805725
2290.055420	261.391754
2289.318848	230.801971
2288.582275	230.764481
2287.845459	240.906128
2287.108398	230.689514
2286.371582	261.179504
2285.634277	240.788727
2284.896973	257.703796
2284.159668	237.320175
2283.422119	247.450821
2282.684570	260.967346
2281.946777	264.313568
2281.208740	250.718277
2280.470703	254.065048
2279.732666	240.475815
2278.994385	287.846771
2278.256104	237.011749
2277.517578	243.743881
2276.779053	260.628143
2276.040283	270.738464
2275.301514	243.624985
2274.562500	223.286591
2273.823486	287.519287
2273.084229	290.854553
2272.344971	297.570190
2271.605469	267.093445
2270.865967	216.344284
2270.126221	283.905701
2269.386475	290.618042
2268.646484	270.298401
2267.906494	297.279846
2267.166260	287.098572
2266.426025	253.281052
2265.685547	263.369415
2264.945068	249.822632
2264.204346	273.410004
2263.463623	246.366440
2262.722656	263.197998
2261.981689	286.771637
2261.240723	242.872910
2260.499268	256.324097
2259.758057	279.887329
2259.016602	259.612213
2258.274902	296.651367
2257.533203	276.380127
2256.791260	262.855347
2256.049316	296.506470
2255.307129	293.089325
2254.564941	309.883057
2253.822754	279.522858
2253.080322	282.844513
2252.337646	262.598572
2251.594971	306.315063
2250.852051	292.802948
2250.109131	309.580261
2249.366211	269.156372
2248.623047	292.659851
2247.879639	252.251846
2247.136230	309.378510
2246.392578	272.343201
2245.648926	285.745667
2244.905273	278.976746
2244.161377	292.373749
2243.417236	255.365311
2242.673096	278.840332
2241.928955	298.948700
2241.184570	278.749390
2240.439941	265.272430
2239.695313	288.730499
2238.950439	318.894440
2238.205566	281.923828
2237.460693	302.011993
2236.715576	308.673004
2235.970215	298.558868
2235.224854	268.323761
2234.479492	268.279968
2233.733887	298.412781
2232.988037	331.888123
2232.242188	301.667267
2231.496338	291.564087
2230.750244	244.605804
2230.003906	294.819153
2229.257568	267.973663
2228.511230	277.977295
2227.764648	311.417694
2227.017822	287.930664
2226.270996	338.095917
2225.523926	291.183594
2224.776855	314.560791
2224.029785	304.471893
2223.282471	311.112762
2222.534912	277.614441
2221.787354	327.732178
2221.039795	290.898407
2220.291992	304.223358
2219.543945	277.433105
2218.795898	340.886200
2218.047852	307.415771
2217.299561	307.365540
2216.551025	303.974945
2215.802490	330.643982
2215.053955	313.893494
2214.305176	303.825958
2213.556152	303.776306
2212.807129	280.363068
2212.058105	280.317261
2211.308838	293.617706
2210.559326	310.249817
2209.809814	313.534576
2209.060303	260.124451
2208.310547	330.103973
2207.560547	260.039398
2206.810547	279.996643
2206.060303	329.942078
2205.310059	313.227112
2204.559814	309.844238
2203.809326	303.131348
2203.058594	333.056885
2202.307861	329.672363
2201.557129	332.947937
2200.806152	329.564545
2200.054932	346.152557
2199.303711	299.506104
2198.552246	259.529480
2197.800781	279.447571
2197.049316	296.032898
2196.297607	282.681793
2195.545654	285.960663
2194.793701	315.835052
2194.041504	299.163208
2193.289307	345.643097
2192.537109	299.065277
2191.784668	272.437073
2191.031982	322.220367
2190.279297	302.239746
2189.526367	292.227936
2188.773438	308.781219
2188.020508	331.968445
2187.267090	318.637543
2186.513916	338.496918
2185.760498	298.624847
2185.006836	328.433533
2184.253174	335.013672
2183.499268	344.908051
2182.745361	364.746857
2181.991211	358.056427
2181.237061	338.108978
2180.482666	308.225342
2179.728271	351.253052
2178.973877	328.003326
2178.218994	308.073853
2177.464355	344.456238
2176.709229	357.645905
2175.954346	317.855377
2175.198975	317.803284
2174.443848	344.230438
2173.688232	350.792755
2172.932861	360.661713
2172.177002	320.903198
2171.421387	347.312500
2170.665283	353.869934
2169.909424	294.292145
2169.153076	327.304993
2168.396729	314.029053
2167.640381	310.672516
2166.883789	307.317078
2166.127197	343.610046
2165.370361	317.126465
2164.613525	323.680176
2163.856445	317.022430
2163.099365	340.082855
2162.342041	323.520874
2161.584473	356.474701
2160.826904	346.515747
2160.069336	349.758514
2159.311523	303.514160
2158.553711	319.956970
2157.795654	323.202454
2157.037354	323.149384
2156.279053	339.580841
2155.520752	329.636017
2154.762207	382.315002
2154.003662	329.527802
2153.244873	359.126312
2152.485840	312.948608
2151.726807	335.952789
2150.967773	355.656311
2150.208252	345.720184
2149.448975	322.619171
2148.689453	352.189606
2147.929688	335.677002
2147.169922	329.041046
2146.410156	358.595795
2145.650146	368.404877
2144.889893	351.900391
2144.129639	341.977844
2143.369141	332.058502
2142.608643	302.419434
2141.847900	374.675537
2141.087158	318.750488
2140.326416	354.839111
2139.565186	344.925751
2138.804199	351.437988
2138.042725	357.948090
2137.281494	344.755676
2136.519775	354.547546
2135.758301	347.924622
2134.996338	328.176819
2134.234619	347.810211
2133.472412	367.437164
2132.710449	350.975983
2131.947998	357.477478
2131.185547	380.372162
2130.423096	318.017517
2129.660400	376.969055
2128.897705	363.797211
2128.134766	327.691315
2127.371826	393.164886
2126.608643	340.686829
2125.845215	383.209625
2125.081787	389.696075
2124.318359	343.792908
2123.554688	327.367920
2122.790771	356.772308
2122.026855	353.440979
2121.262939	333.750427
2120.498779	389.311371
2119.734375	385.976318
2118.969971	372.830963
2118.205322	340.070496
2117.440674	375.977570
2116.676025	379.184509
2115.911133	359.512299
2115.145996	379.059601
2114.380859	392.066040
2113.615479	395.268158
2112.850098	398.469177
2112.084473	385.341125
2111.318848	382.012604
2110.552979	398.272278
2109.787109	323.134918
2109.020996	358.979645
2108.254883	378.497986
2107.488525	414.321747
2106.722168	401.206116
2105.955566	414.185181
2105.188965	417.377686
2104.422119	365.145264
2103.655029	342.267273
2102.887939	397.616425
2102.120850	413.843933
2101.353516	364.904541
2100.585938	355.071777
2099.818359	390.840240
2099.050781	384.262878
2098.282959	393.967285
2097.514893	406.923889
2096.746826	390.582489
2095.978760	384.009430
2095.210449	400.214996
2094.441895	393.642487
2093.673340	361.050476
2092.904541	380.503937
2092.135742	409.705872
2091.366699	360.871796
2090.597656	364.062805
2089.828369	390.002930
2089.059082	399.687042
2088.289551	415.865845
2087.520020	380.064636
2086.750244	405.984924
2085.980469	370.197144
2085.210449	379.876434
2084.440186	350.597290
2083.670166	379.751038
2082.899658	392.669128
2082.129150	379.625641
2081.358643	395.783600
2080.587891	363.282318
2079.816895	405.382050
2079.045898	372.889893
2078.274902	389.038239
2077.503662	385.732513
2076.732178	398.632446
2075.960693	372.643555
2075.188965	366.102325
2074.417236	382.238373
2073.645264	398.369080
2072.873291	388.588531
2072.101074	388.524323
2071.328857	414.357452
2070.556396	349.556335
2069.783936	388.331726
2069.011230	394.738678
2068.238525	381.733307
2067.465576	375.201202
2066.692627	378.373138
2065.919434	394.477722
2065.145996	410.576935
2064.372559	394.347260
2063.599121	423.368439
2062.825439	407.141998
2062.051514	423.228424
2061.277588	361.784302
2060.503662	410.169708
2059.729248	403.643555
2058.955078	351.918976
2058.180664	387.369629
2057.406006	419.581024
2056.631348	413.057556
2055.856445	438.801056
2055.081543	451.632202
2054.306396	403.176331
2053.531250	412.784241
2052.755859	396.594208
2051.980225	435.214264
2051.204590	406.132751
2050.428955	399.620056
2049.653076	444.664825
2048.877197	431.704498
2048.101074	444.517578
2047.324707	441.223389
2046.548340	457.250702
2045.771851	399.223236
2044.995239	376.624054
2044.218506	379.780151
2043.441528	411.896698
2042.664551	379.654358
2041.887329	379.591492
2041.110107	376.312256
2040.332642	421.271271
2039.555176	430.847321
2038.777466	414.702209
2037.999634	411.419281
2037.221802	446.701599
2036.443726	411.282928
2035.665527	414.427399
2034.887207	423.994965
2034.108765	411.078491
2033.330200	443.120514
2032.551514	414.152710
2031.772705	455.813446
2030.993774	394.758881
2030.214600	417.155640
2029.435425	410.669769
2028.656128	426.640808
2027.876587	423.362762
2027.097046	397.638458
2026.317261	448.872192
2025.537476	442.386353
2024.757446	458.338806
2023.977295	394.170074
2023.197021	448.574432
2022.416626	435.685730
2021.636230	393.973938
2020.855591	416.326141
2020.074707	454.680786
2019.293823	432.195221
2018.512817	396.913422
2017.731689	432.051788
2016.950439	431.980072
2016.168945	422.310425
2015.387451	399.848785
2014.605713	415.773712
2013.823975	438.088776
2013.041992	457.199249
2012.260010	485.893341
2011.477783	444.262878
2010.695435	402.646240
2009.912964	434.530121
2009.130371	434.457977
2008.347656	443.967865
2007.564819	469.441986
2006.781860	411.890869
2005.998779	418.207306
2005.215576	504.318909
2004.432129	465.938782
2003.648682	465.861359
2002.864990	468.974274
2002.081299	491.224731
2001.297363	443.304504
2000.513428	401.777588
1999.729248	427.216248
1998.944946	462.209412
1998.160522	446.196991
1997.375977	430.189850
1996.591309	468.351105
1995.806519	433.232391
1995.021606	471.380402
1994.236572	429.903870
1993.451416	474.407593
1992.666016	471.145294
1991.880615	451.969635
1991.094971	470.988617
1990.309326	458.182983
1989.523438	461.288055
1988.737549	426.222900
1987.951416	489.756775
1987.165161	473.776733
1986.378784	435.547760
1985.592285	483.155060
1984.805664	451.293457
1984.018921	470.283905
1983.232056	444.789124
1982.444946	435.185516
1981.657837	463.697144
1980.870605	444.567108
1980.083130	463.542816
1979.295654	460.291229
1978.507935	406.258392
1977.720093	463.311340
1976.932129	472.752716
1976.144165	501.224792
1975.355957	431.362152
1974.567627	472.516602
1973.779053	475.608643
1972.990479	437.487091
1972.201782	446.923218
1971.412964	484.878479
1970.623901	437.268524
1969.834839	541.742493
1969.045532	490.971313
1968.256226	459.219238
1967.466675	531.972229
1966.677002	509.721802
1965.887207	462.155151
1965.097290	500.057159
1964.307251	512.631409
1963.517090	484.071198
1962.726807	525.113892
1961.936401	499.723877
1961.145874	512.289734
1960.355103	499.557281
1959.564331	521.602600
1958.773315	477.265839
1957.982178	467.705719
1957.191040	445.510223
1956.399658	480.186249
1955.608154	473.788971
1954.816528	568.451965
1954.024780	467.315857
1953.232910	489.337006
1952.440918	514.507263
1951.648682	508.109528
1950.856445	542.734497
1950.063965	498.475281
1949.271484	492.083344
1948.478760	469.924255
1947.685913	495.072479
1946.893066	510.753845
1946.099976	460.232208
1945.306763	491.672882
1944.513428	523.103088
1943.719971	576.577576
1942.926270	475.675873
1942.132568	475.596466
1941.338745	513.306458
1940.544678	503.774994
1939.750610	478.506348
1938.956299	513.049377
1938.161865	512.963745
1937.367310	534.903503
1936.572632	534.814148
1935.777832	503.270416
1934.982910	550.360107
1934.187866	556.556946
1933.392700	512.449829
1932.597290	490.360870
1931.801880	521.707092
1931.006226	487.054718
1930.210571	493.256866
1929.414673	483.750732
1928.618652	505.654877
1927.822510	540.112427
1927.026245	511.765198
1926.229858	521.097046
1925.433350	495.901062
1924.636719	533.475220
1923.839844	533.386047
1923.042969	508.200531
1922.245850	514.388611
1921.448730	504.894623
1920.651367	529.893921
1919.853882	514.130615
1919.056274	510.910187
1918.258545	507.690826
1917.460693	532.672852
1916.662720	504.388153
1915.864624	545.023987
1915.066284	501.087616
1914.267944	526.053955
1913.469360	560.404175
1912.670776	519.617493
1911.871948	538.308777
1911.072998	525.701965
1910.273926	506.842041
1909.474731	509.885345
1908.675415	509.799988
1907.875977	553.493835
1907.076294	500.249664
1906.276611	487.661774
1905.476807	584.471008
1904.676758	531.248352
1903.876587	549.906189
1903.076294	502.954956
1902.275879	537.228333
1901.475342	562.121582
1900.674683	552.660278
1899.873901	527.592896
1899.072998	546.232483
1898.271851	546.140991
1897.470703	549.169800
1896.669312	549.077759
1895.867920	492.839508
1895.066284	548.893799
1894.264526	561.274597
1893.462646	508.180145
1892.660645	536.149292
1891.858521	554.759216
1891.056152	567.130615
1890.253784	517.186279
1889.451172	542.020020
1888.648560	591.761719
1887.845703	597.890564
1887.042725	600.903809
1886.239624	594.577087
1885.436401	541.565796
1884.633057	591.265808
1883.829590	544.495605
1883.025879	522.628113
1882.222168	547.423279
1881.418213	547.331482
1880.614258	537.911743
1879.810059	593.779785
1879.005737	547.056091
1878.201294	609.119324
1877.396729	515.800232
1876.592041	549.887451
1875.787231	565.326111
1874.982178	562.125549
1874.177124	552.715820
1873.371826	549.518433
1872.566406	555.634399
1871.760986	567.955444
1870.955322	546.138672
1870.149536	567.764771
1869.343506	589.383545
1868.537476	555.168091
1867.731323	567.478821
1866.924927	589.086670
1866.118530	613.787231
1865.311890	582.690002
1864.505127	557.800964
1863.698242	616.576416
1862.891235	585.494324
1862.084106	619.466614
1861.276855	600.781677
1860.469482	582.102966
1859.661865	563.430542
1858.854126	615.955139
1858.046387	591.093750
1857.238403	631.219177
1856.430298	553.770813
1855.622070	600.075317
1854.813721	559.769958
1854.005249	544.215210
1853.196533	593.589539
1852.387817	599.671936
1851.578857	593.389954
1850.769775	574.749878
1849.960693	568.474121
1849.151367	593.090637
1848.341919	552.840515
1847.532227	595.979187
1846.722534	623.666016
1845.912720	617.387268
1845.102661	586.419250
1844.292603	580.148804
1843.482300	626.331848
1842.671875	579.953552
1841.861328	545.928284
1841.050659	622.931946
1840.239868	598.160706
1839.428833	588.811646
1838.617798	597.959351
1837.806519	610.185730
1836.995117	600.839294
1836.183716	591.496033
1835.372070	582.155884
1834.560303	560.500183
1833.748291	612.751465
1832.936279	600.333740
1832.124146	634.091919
1831.311768	630.907532
1830.499390	612.338806
1829.686768	615.312256
1828.874023	639.816956
1828.061157	572.047668
1827.248169	639.601440
1826.434937	590.301880
1825.621704	627.090088
1824.808228	590.102966
1823.994751	700.629211
1823.181030	568.397217
1822.367188	580.589050
1821.553223	672.632629
1820.739136	687.873596
1819.924927	614.069336
1819.110474	650.803772
1818.296021	613.862366
1817.481323	653.653198
1816.666626	653.542969
1815.851685	647.297302
1815.036621	601.179504
1814.221436	634.812134
1813.406006	650.036072
1812.590576	585.546997
1811.774902	649.816895
1810.959229	652.771912
1810.143311	658.790100
1809.327271	655.615356
1808.511108	621.810608
1807.694824	633.956055
1806.878418	627.724915
1806.061768	661.296143
1805.245117	661.184570
1804.428223	627.407227
1803.611206	676.261414
1802.794067	676.147339
1801.976807	614.853699
1801.159424	657.568359
1800.341919	611.588196
1799.524170	590.083008
1798.706421	623.609375
1797.888428	675.462769
1797.070313	635.622314
1796.252075	684.400757
1795.433716	675.120667
1794.615234	616.974426
1793.796509	635.193054
1792.977783	598.446228
1792.158813	656.347961
1791.339844	674.550720
1790.520630	662.229736
1789.701294	649.912964
1788.881714	649.803162
1788.062134	680.195374
1787.242432	664.831970
1786.422485	631.178772
1785.602417	664.607300
1784.782349	630.965454
1783.962036	682.668457
1783.141479	667.317505
1782.320923	655.018311
1781.500244	673.184082
1780.679321	670.024658
1779.858398	648.596069
1779.037231	651.530884
1778.215942	669.684875
1777.394531	684.789185
1776.572998	642.071472
1775.751221	635.877930
1774.929443	632.728394
1774.107422	675.201660
1773.285278	672.046509
1772.463013	644.569031
1771.640625	647.499878
1770.818115	662.587280
1769.995483	665.514038
1769.172607	656.286377
1768.349731	716.932251
1767.526611	674.288269
1766.703369	625.585022
1765.880005	725.677246
1765.056519	649.659607
1764.232910	649.549622
1763.409058	704.065430
1762.585083	667.535217
1761.761108	640.118591
1760.936890	670.342407
1760.112549	664.163513
1759.288086	661.018799
1758.463379	627.558350
1757.638672	666.857300
1756.813721	706.142883
1755.988647	672.691650
1755.163574	663.488831
1754.338257	639.143494
1753.512695	705.664490
1752.687134	732.797729
1751.861328	696.342651
1751.035522	653.845764
1750.209473	696.106689
1749.383301	659.676270
1748.557007	674.692078
1747.730591	683.652771
1746.903931	644.218384
1746.077271	677.372986
1745.250366	713.539856
1744.423340	680.166321
1743.596313	674.006104
1742.768921	695.045349
1741.941528	658.670410
1741.114014	743.144226
1740.286255	739.997803
1739.458374	700.613770
1738.630493	775.979309
1737.802368	679.244080
1736.973999	679.128845
1736.145630	685.049316
1735.317139	727.175659
1734.488403	714.985046
1733.659546	711.847412
1732.830566	759.979248
1732.001465	711.605835
1731.172241	630.086365
1730.342896	714.378540
1729.513306	708.229797
1728.683594	729.202209
1727.853882	674.849487
1727.023926	704.856995
1726.193726	692.690552
1725.363525	722.684753
1724.533203	770.732849
1723.702637	731.469849
1722.871948	749.403564
1722.041138	755.294556
1721.210205	767.200806
1720.379150	715.932434
1719.547974	757.917358
1718.716553	742.753113
1717.885010	685.501770
1717.053467	673.361023
1716.221558	745.380188
1715.389648	691.162537
1714.557617	730.104126
1713.725342	708.951843
1712.893066	732.859558
1712.060547	723.725952
1711.227905	699.582886
1710.395142	732.485901
1709.562256	759.374695
1708.729126	735.237854
1707.895874	678.104065
1707.062622	710.988220
1706.229126	779.854431
1705.395508	725.741089
1704.561646	728.616089
1703.727783	767.465027
1702.893677	755.344849
1702.059570	710.263000
1701.225220	701.153076
1700.390747	635.124634
1699.556030	667.965515
1698.721313	721.759216
1697.886353	700.676025
1697.051392	703.550598
1696.216187	697.444275
1695.380859	781.124329
1694.545410	754.060669
1693.709717	744.956909
1692.874023	702.952087
1692.038086	765.638733
1691.202026	669.819885
1690.365845	777.337097
1689.529541	720.409058
1688.692993	762.128723
1687.856445	750.046021
1687.019653	726.016541
1686.182739	734.854492
1685.345703	728.755920
1684.508545	725.645630
1683.671143	716.564941
1682.833740	677.635559
1681.996094	776.014221
1681.158325	719.182922
1680.320435	742.929626
1679.482422	745.786194
1678.644287	721.797974
1677.805908	775.353271
1676.967407	745.404968
1676.128784	694.598999
1675.290039	727.267273
1674.451172	721.183105
1673.612183	747.876465
1672.772949	774.560669
1671.933594	753.578613
1671.094116	720.691406
1670.254517	842.648315
1669.414795	735.330872
1668.574829	767.947388
1667.734863	788.648682
1666.894653	618.909241
1666.054321	743.754395
1665.213867	743.627502
1664.373169	752.422668
1663.532471	793.923218
1662.691528	725.409058
1661.850464	778.789917
1661.009277	778.657043
1660.167969	763.666809
1659.326538	698.175415
1658.484863	813.903870
1657.643066	813.764954
1656.801147	736.420654
1655.959106	846.145386
1655.116943	768.821899
1654.274658	762.754822
1653.432129	753.722351
1652.589478	774.362000
1651.746704	777.196106
1650.903809	723.677368
1650.060791	776.930725
1649.217529	753.078979
1648.374146	752.950317
1647.530640	767.641052
1646.687012	803.070251
1645.843262	764.415955
1644.999390	820.569946
1644.155273	811.544189
1643.311035	832.134888
1642.466675	802.384399
1641.622192	766.723389
1640.777588	778.431641
1639.932739	778.298584
1639.087769	801.835999
1638.242798	816.490417
1637.397461	766.068359
1636.552124	762.980103
1635.706665	715.541138
1634.860962	742.025269
1634.015137	821.704163
1633.169189	735.860962
1632.323120	738.689880
1631.476929	785.831604
1630.630493	762.067200
1629.783936	720.591431
1628.937256	785.428406
1628.090454	732.153870
1627.243530	776.304504
1626.396484	802.732727
1625.549194	767.186707
1624.701782	793.607361
1623.854248	755.125366
1623.006592	769.742126
1622.158691	760.764282
1621.310791	813.701538
1620.462646	760.503845
1619.614380	854.683594
1618.765991	801.497009
1617.917358	792.521301
1617.068726	742.309143
1616.219849	821.701538
1615.370850	792.114258
1614.521729	780.201965
1613.672363	806.561218
1612.822998	824.081970
1611.973389	818.055542
1611.123657	794.378235
1610.273804	817.775269
1609.423828	808.811768
1608.573608	808.673157
1607.723389	840.875977
1606.872925	811.335693
1606.022339	805.318420
1605.171509	822.812073
1604.320679	819.732971
1603.469604	816.654846
1602.618408	825.326172
1601.767090	833.994507
1600.915649	816.234924
1600.064087	736.833984
1599.212280	836.500671
1598.360352	809.945984
1597.508301	827.411621
1596.656128	833.136841
1595.803833	874.057068
1594.951294	815.255676
1594.098633	788.727173
1593.245850	782.728760
1592.392944	762.077026
1591.539795	797.113037
1590.686646	861.437561
1589.833252	826.135071
1588.979736	767.412231
1588.126099	849.279968
1587.272217	819.853760
1586.418335	834.350769
1585.564209	840.061646
1584.709961	836.990906
1583.855591	857.329529
1583.000977	807.448181
1582.146362	780.984253
1581.291504	807.170959
1580.436523	856.740906
1579.581421	841.976135
1578.726074	865.215759
1577.870605	783.236450
1577.015137	818.166199
1576.159424	806.339600
1575.303467	806.201111
1574.447510	814.824158
1573.591309	767.963928
1572.734985	761.992920
1571.878540	770.619080
1571.021973	793.834717
1570.165161	828.714417
1569.308350	886.922119
1568.451294	854.682617
1567.594116	825.370667
1566.736694	831.060852
1565.879272	828.002441
1565.021606	743.325134
1564.163818	874.349792
1563.305908	853.801453
1562.447876	856.568176
1561.589600	841.855896
1560.731201	757.248718
1559.872681	800.798401
1559.014038	812.306641
1558.155273	783.057007
1557.296265	832.400696
1556.437134	782.787659
1555.577881	826.295349
1554.718506	794.154297
1553.859009	849.278931
1552.999268	884.028687
1552.139404	834.449219
1551.279419	845.933594
1550.419312	848.694458
1549.558960	810.770569
1548.698608	781.576111
1547.838013	810.491455
1546.977173	824.874390
1546.116333	821.828369
1545.255249	824.590393
1544.394165	824.448364
1543.532837	853.331299
1542.671265	885.106201
1541.809692	835.628479
1540.947876	829.682556
1540.085938	852.743591
1539.223877	872.896606
1538.361694	823.454956
1537.499268	817.515076
1536.636841	802.881775
1535.774170	869.397217
1534.911377	886.632385
1534.048340	863.303650
1533.185303	825.500488
1532.322021	874.590088
1531.458618	926.558228
1530.594971	885.868591
1529.731323	850.981934
1528.867432	819.001282
1528.003418	920.132507
1527.139282	862.113892
1526.275024	850.395203
1525.410522	879.168640
1524.545898	867.450989
1523.681152	838.391357
1522.816284	901.837891
1521.951172	924.802368
1521.086060	852.405151
1520.220703	849.369080
1519.355225	863.665100
1518.489502	828.859924
1517.623779	820.054382
1516.757813	811.251831
1515.891724	842.863525
1515.025513	851.376160
1514.159058	903.168640
1513.292480	828.002075
1512.425781	899.972351
1511.558960	845.020447
1510.692017	853.525146
1509.824829	864.909912
1508.957520	853.230469
1508.090088	896.313660
1507.222534	798.186523
1506.354736	921.933533
1505.486938	852.641235
1504.618896	881.294434
1503.750610	872.503601
1502.882324	892.506226
1502.013794	909.623352
1501.145142	889.319824
1500.276367	854.635437
1499.407471	857.364868
1498.538330	791.055664
1497.669067	885.829285
1496.799683	914.431885
1495.930176	891.273254
1495.060547	899.742920
1494.190674	959.943115
1493.320679	922.420593
1492.450562	864.799377
1491.580200	887.630554
1490.709717	827.163147
1489.839233	861.479248
1488.968384	933.107849
1488.097534	941.558289
1487.226440	892.603638
1486.355347	869.492310
1485.483887	906.640442
1484.612427	975.330444
1483.740845	929.271790
1482.869019	857.420349
1481.997070	908.880371
1481.124878	908.723083
1480.252686	945.825623
1479.380249	871.155273
1478.507690	965.554321
1477.635010	913.823486
1476.762207	936.578552
1475.889160	947.871094
1475.015991	976.338623
1474.142700	1050.598999
1473.269165	953.103271
1472.395630	1001.586731
1471.521851	1078.665161
1470.647949	1035.568115
1469.773804	1055.410034
1468.899658	1100.982422
1468.025269	1126.524536
1467.150757	1166.351196
1466.276001	1128.992554
1465.401245	1280.255737
1464.526245	1242.890137
1463.651123	1245.531494
1462.775879	1273.877930
1461.900391	1236.532715
1461.024780	1341.962280
1460.149048	1324.601196
1459.273193	1332.934326
1458.397217	1284.189453
1457.520996	1283.966919
1456.644653	1229.541748
1455.768188	1269.260376
1454.891479	1326.075928
1454.014648	1331.548462
1453.137695	1268.600342
1452.260620	1234.176758
1451.383423	1262.460815
1450.505981	1239.447388
1449.628418	1293.359741
1448.750732	1298.832031
1447.872803	1344.171875
1446.994873	1269.908203
1446.116699	1229.832153
1445.238403	1400.399170
1444.359863	1343.239258
1443.481201	1325.934082
1442.602417	1425.274048
1441.723511	1476.225220
1440.844482	1450.374146
1439.965210	1674.749268
1439.085815	1731.316284
1438.206299	1711.118896
1437.326538	1713.663818
1436.446777	1733.256104
1435.566772	1565.341431
1434.686646	1539.505859
1433.806274	1414.281860
1432.925781	1360.087036
1432.045166	1294.555298
1431.164429	1308.522705
1430.283569	1243.022461
1429.402466	1271.181152
1428.521240	1330.536621
1427.639893	1214.010132
1426.758301	1117.375854
1425.876709	1117.181641
1424.994873	1131.162476
1424.112793	1108.289917
1423.230713	1102.429321
1422.348389	1198.577271
1421.465942	1155.873535
1420.583374	1181.165405
1419.700562	1294.241577
1418.817627	1211.901733
1417.934570	1387.216309
1417.051392	1616.250610
1416.167969	1782.943726
1415.284546	1904.305420
1414.400757	1850.221680
1413.516968	1643.412476
1412.633057	1414.050537
1411.748901	1300.700195
1410.864624	1201.524780
1409.980103	1136.303345
1409.095459	1073.930786
1408.210815	1022.882324
1407.325806	926.649231
1406.440796	943.435913
1405.555542	991.282593
1404.670166	892.281433
1403.784668	940.120239
1402.899048	869.389282
1402.013184	920.037537
1401.127197	908.590515
1400.241089	931.002075
1399.354736	975.971619
1398.468262	939.138611
1397.581665	930.515808
1396.694946	896.522766
1395.807983	845.628845
1394.920898	975.122070
1394.033691	918.596619
1393.146362	898.715576
1392.258789	901.375793
1391.371094	915.300293
1390.483276	940.483215
1389.595337	929.057983
1388.707153	883.858704
1387.818848	872.447327
1386.930420	911.689209
1386.041748	945.290710
1385.152954	857.926819
1384.264038	947.773560
1383.375000	868.875305
1382.485718	894.026489
1381.596313	924.790649
1380.706787	907.766846
1379.817139	896.368835
1378.927246	904.640869
1378.037231	963.471069
1377.147095	929.601501
1376.256714	850.816101
1375.366333	943.314636
1374.475586	931.922119
1373.584839	934.566040
1372.693970	928.790955
1371.802856	965.100708
1370.911499	987.372620
1370.020142	925.500244
1369.128540	939.359009
1368.236816	984.052185
1367.344971	1028.729614
1366.453003	950.077576
1365.560791	941.505432
1364.668457	955.349121
1363.775879	983.193542
1362.883301	1002.626343
1361.990479	952.048645
1361.097534	943.483459
1360.204346	943.318665
1359.311035	929.160522
1358.417603	976.567444
1357.524048	912.049805
1356.630249	883.918396
1355.736450	894.950867
1354.842285	878.017090
1353.948120	972.919006
1353.053711	905.662842
1352.159180	874.762146
1351.264526	994.763245
1350.369751	894.012939
1349.474731	944.136108
1348.579590	846.222595
1347.684204	963.352356
1346.788818	876.637024
1345.893188	893.231812
1344.997314	968.428894
1344.101440	1007.324829
1343.205322	940.191406
1342.309082	962.342163
1341.412720	939.862610
1340.516113	861.622375
1339.619385	931.170044
1338.722534	911.495056
1337.825439	953.139954
1336.928223	936.254395
1336.030884	933.304565
1335.133423	916.428284
1334.235718	1008.173218
1333.337891	957.875427
1332.439941	896.459045
1331.541870	940.838867
1330.643555	901.711365
1329.745117	979.465576
1328.846436	920.870300
1327.947754	920.709106
1327.048828	934.453430
1326.149780	917.606079
1325.250488	989.729004
1324.351074	947.860901
1323.451538	933.799072
1322.551880	958.643616
1321.651978	905.690125
1320.751953	972.196350
1319.851807	922.036133
1318.951416	1016.283447
1318.050903	988.342957
1317.150269	960.412231
1316.249512	1007.423523
1315.348511	990.598267
1314.447388	984.876099
1313.546021	1012.441589
1312.644653	1015.037476
1311.743042	1067.543457
1310.841309	1059.039307
1309.939331	1072.713013
1309.037231	1042.039673
1308.135010	1075.107788
1307.232666	1061.067261
1306.330078	1130.129272
1305.427368	1188.089233
1304.524536	1132.501831
1303.621460	1132.303223
1302.718262	1184.696289
1301.814941	1192.790894
1300.911499	1203.649658
1300.007813	1231.103760
1299.104004	1288.974609
1298.199951	1393.839600
1297.295898	1576.089478
1296.391602	1816.331787
1295.487061	2305.258545
1294.582520	2741.504883
1293.677734	2997.994629
1292.772827	2679.764404
1291.867676	2295.353760
1290.962402	1819.942993
1290.057007	1438.579346
1289.151489	1258.880981
1288.245728	1142.730713
1287.339844	1123.211914
1286.433838	1089.903687
1285.527588	1004.190552
1284.621216	1023.322083
1283.714722	1020.384583
1282.808105	1014.690674
1281.901245	1047.594360
1280.994263	909.593140
1280.087036	961.794617
1279.179810	953.359497
1278.272217	889.829468
1277.364624	988.831726
1276.456787	983.150085
1275.548828	1049.059814
1274.640747	933.251343
1273.732544	938.592163
1272.824097	996.218872
1271.915405	971.280212
1271.006714	905.085022
1270.097778	855.416199
1269.188721	1006.518616
1268.279541	921.104980
1267.370117	912.695740
1266.460571	929.026794
1265.550781	961.840759
1264.640991	994.643188
1263.730957	876.340759
1262.820679	911.893250
1261.910400	878.778564
1260.999878	856.658325
1260.089233	864.743225
1259.178345	913.996277
1258.267334	938.533630
1257.356201	913.674561
1256.444824	921.743591
1255.533447	935.295349
1254.621704	907.707458
1253.709961	940.449707
1252.797974	907.387878
1251.885864	890.782898
1250.973633	887.885620
1250.061157	895.948975
1249.148560	909.488281
1248.235840	857.288208
1247.322876	944.767883
1246.409790	892.579895
1245.496582	875.997681
1244.583130	862.158325
1243.669556	894.844727
1242.755859	938.463806
1241.841919	869.909302
1240.927856	853.345520
1240.013672	937.967712
1239.099365	915.929443
1238.184814	891.165283
1237.270142	901.940796
1236.355225	901.781799
1235.440186	915.283752
1234.525024	947.902893
1233.609741	827.561707
1232.694214	906.607422
1231.778564	854.572510
1230.862671	925.396118
1229.946777	895.210632
1229.030640	870.493347
1228.114258	919.449829
1227.197876	889.281189
1226.281128	900.033813
1225.364380	856.244690
1224.447388	853.367188
1223.530273	880.475952
1222.613037	904.849609
1221.695557	934.664551
1220.777954	961.744507
1219.860229	934.334656
1218.942261	852.463928
1218.024170	890.436035
1217.105957	917.504517
1216.187500	871.067078
1215.268921	824.645996
1214.350220	843.548218
1213.431274	903.253418
1212.512207	875.892273
1211.593018	949.168945
1210.673706	913.651672
1209.754150	891.740479
1208.834351	858.964050
1207.914551	866.965576
1206.994507	902.137085
1206.074219	825.907227
1205.153931	926.265137
1204.233398	852.773743
1203.312744	906.930237
1202.391846	847.042603
1201.470825	958.183289
1200.549683	884.738037
1199.628296	919.856323
1198.706787	792.184570
1197.785156	873.418945
1196.863281	875.976501
1195.941284	900.225281
1195.019165	894.643982
1194.096802	864.669556
1193.174438	872.646912
1192.251709	883.330933
1191.328979	885.883789
1190.406006	939.900024
1189.482788	885.570374
1188.559570	866.459900
1187.636108	928.572327
1186.712402	887.807068
1185.788696	849.762451
1184.864746	871.258240
1183.940552	914.388733
1183.016357	954.799072
1182.091919	903.247681
1181.167236	938.237915
1180.242554	929.961670
1179.317505	935.202759
1178.392456	864.774292
1177.467163	845.707581
1176.541748	902.288513
1175.616211	964.251343
1174.690430	939.776001
1173.764526	880.208923
1172.838501	928.644897
1171.912231	987.859924
1170.985840	955.301758
1170.059204	968.623108
1169.132446	990.032532
1168.205566	1038.406006
1167.278564	984.288330
1166.351318	1002.987305
1165.423828	927.329224
1164.496338	935.250610
1163.568604	918.916199
1162.640747	899.893250
1161.712646	934.753235
1160.784424	937.280884
1159.856079	920.957520
1158.927490	856.177063
1157.998779	874.868530
1157.069946	920.467590
1156.140869	914.922424
1155.211670	1008.926636
1154.282349	860.798035
1153.352783	911.746094
1152.423096	914.273376
1151.493164	938.308228
1150.563232	897.820435
1149.632935	908.411560
1148.702637	908.250366
1147.772095	921.522400
1146.841431	937.475891
1145.910522	1017.880493
1144.979492	963.995361
1144.048340	963.824219
1143.116943	982.442993
1142.185425	931.276428
1141.253784	939.161011
1140.321899	971.188354
1139.389893	973.698242
1138.457764	986.934753
1137.525391	986.759460
1136.592896	1002.669739
1135.660278	1098.988159
1134.727417	1109.512817
1133.794434	1286.163208
1132.861206	1382.379761
1131.927856	1481.240601
1130.994385	1762.175537
1130.060669	2123.338867
1129.126831	2470.987793
1128.192871	2601.704590
1127.258667	2429.966797
1126.324341	2127.180908
1125.389893	1843.229004
1124.455200	1532.630493
1123.520386	1403.992920
1122.585327	1310.160400
1121.650146	1157.548096
1120.714844	1095.866699
1119.779297	1178.515381
1118.843628	1047.382813
1117.907837	1095.282104
1116.971802	1041.668335
1116.035645	1022.789734
1115.099365	1035.957764
1114.162842	1019.756287
1113.226196	979.539185
1112.289307	990.039124
1111.352417	1045.892944
1110.415161	1019.030579
1109.477905	941.502014
1108.540405	938.667725
1107.602661	930.502014
1106.664917	909.010620
1105.726807	919.509766
1104.788696	922.010803
1103.850342	943.160950
1102.911865	964.303589
1101.973145	956.141785
1101.034302	947.982849
1100.095337	947.814026
1099.156128	944.983276
1098.216797	899.570251
1097.277344	939.324646
1096.337646	957.780762
1095.397827	941.649963
1094.457764	941.482117
1093.517700	981.200562
1092.577271	901.267517
1091.636841	978.192688
1090.696167	956.757080
1089.755249	985.815552
1088.814209	990.953247
1087.873047	1012.026428
1086.931763	1041.059448
1085.990234	1046.184326
1085.048584	1059.271851
1084.106689	1067.046021
1083.164673	1077.471191
1082.222412	1008.290649
1081.280151	1000.152039
1080.337524	1074.242188
1079.394897	1023.663025
1078.452026	1036.737915
1077.509033	1010.042603
1076.565796	993.959045
1075.622437	1007.032104
1074.678955	983.005859
1073.735229	974.882996
1072.791382	985.303650
1071.847290	1046.036255
1070.903076	992.895081
1069.958740	1005.954041
1069.014160	1040.182495
1068.069458	1129.971069
1067.124512	1100.665161
1066.179565	1243.317871
1065.234253	1396.499146
1064.288940	1663.335327
1063.343384	1771.439819
1062.397583	1887.435913
1061.451660	1876.526855
1060.505615	1820.698608
1059.559448	1733.185547
1058.613037	1529.474243
1057.666382	1410.351196
1056.719727	1267.504883
1055.772827	1188.073364
1054.825684	1111.310059
1053.878418	1013.460266
1052.931030	1071.331543
1051.983398	1044.757202
1051.035645	952.247314
1050.087769	962.626404
1049.139648	957.180542
1048.191406	906.917969
1047.242920	943.658630
1046.294312	906.593628
1045.345581	919.606323
1044.396606	956.324890
1043.447510	921.911377
1042.498291	919.112915
1041.548828	947.912476
1040.599121	966.171204
1039.649414	929.148254
1038.699341	884.243469
1037.749268	905.134888
1036.798950	910.234314
1035.848511	962.676697
1034.897827	925.687256
1033.947021	888.711060
1032.996094	930.613586
1032.044922	898.906372
1031.093506	927.652466
1030.142090	911.721680
1029.190430	908.931458
1028.238525	908.768677
1027.286499	842.955200
1026.334351	939.949890
1025.381958	847.903381
1024.429443	931.739258
1023.476807	892.210144
1022.523926	871.060852
1021.570923	912.876099
1020.617737	891.730652
1019.664368	841.747742
1018.710815	933.359802
1017.757080	880.765930
1016.803223	927.783508
1015.849121	869.968689
1014.894897	861.952942
1013.940491	893.231812
1012.985962	879.976746
1012.031189	864.107910
1011.076294	877.043152
1010.121216	866.415588
1009.165955	960.475830
1008.210510	850.405029
1007.254944	907.808044
1006.299133	936.417847
1005.343201	889.175842
1004.387085	917.778564
1003.430786	854.871094
1002.474365	836.420959
1001.517700	927.738037
1000.560913	857.023804
999.603943	903.893372
998.646790	888.059509
997.689514	898.345947
996.731995	830.298645
995.774353	856.254883
994.816528	876.981689
993.858521	908.139404
992.900330	868.839417
991.942017	897.378601
990.983459	842.445435
990.024780	818.824646
989.065918	889.073425
988.106873	938.442627
987.147705	870.509827
986.188293	872.959229
985.228760	864.986267
984.269043	870.040649
983.309143	901.137634
982.349060	898.371765
981.388794	869.571716
980.428406	921.476196
979.467834	871.861694
978.507019	876.909180
977.546082	866.344971
976.585022	858.385742
975.623718	899.842590
974.662292	884.079407
973.700623	876.121094
972.738831	834.374756
971.776855	868.009521
970.814758	904.230469
969.852417	833.924622
968.889954	903.905212
967.927246	825.833740
966.964417	872.422058
966.001404	913.801514
965.038208	872.108154
964.074890	866.760986
963.111328	871.794250
962.147644	871.637329
961.183777	892.229980
960.219727	884.289734
959.255493	876.352234
958.291077	850.271545
957.326538	870.853088
956.361755	888.835754
955.396851	870.539490
954.431763	883.334839
953.466492	854.686218
952.501038	867.479736
951.535461	825.899048
950.569641	874.932922
949.603699	861.834839
948.637573	903.081543
947.671265	902.918823
946.704773	928.623108
945.738098	959.490479
944.771240	876.573181
943.804260	933.291687
942.837097	884.011719
941.869751	858.008728
940.902222	904.364258
939.934509	849.949097
938.966614	927.284851
937.998535	854.807678
937.030334	875.309814
936.061951	851.917847
935.093323	869.831909
934.124573	885.158875
933.155640	848.876770
932.186584	905.477234
931.217285	866.625244
930.247864	907.729309
929.278198	845.686096
928.308411	884.201172
927.338440	930.434448
926.368286	881.305176
925.397949	917.216431
924.427429	850.075256
923.456787	803.562439
922.485901	880.669006
921.514893	880.510071
920.543701	924.111206
919.572327	900.781433
918.600769	946.936279
917.629028	918.465271
916.657104	908.010315
915.685059	864.125671
914.712769	915.396362
913.740356	925.514465
912.767761	891.931946
911.794983	868.641357
910.822021	865.914917
909.848877	868.327454
908.875549	873.307678
907.902039	883.422180
906.928406	901.235901
905.954590	931.878906
904.980530	885.509949
904.006348	877.651184
903.031982	874.926758
902.057434	872.203308
901.082703	936.166565
900.107849	871.887878
899.132751	930.700256
898.157532	904.897400
897.182068	912.422729
896.206482	827.694458
895.230713	863.413574
894.254761	878.626953
893.278625	960.424194
892.302307	932.083069
891.325806	937.034851
890.349182	885.670471
889.372314	921.340088
888.395325	890.467529
887.418091	903.098145
886.440735	925.955688
885.463196	856.737549
884.485474	861.696411
883.507568	905.000916
882.529480	909.949097
881.551270	902.117615
880.572815	878.958252
879.594238	919.673462
878.615417	891.410889
877.636475	891.249390
876.657349	888.534729
875.677979	908.796143
874.698486	890.765137
873.718811	888.051880
872.739014	844.516968
871.758972	897.933899
870.778748	987.038208
869.798401	920.558655
868.817810	920.391846
867.837097	884.537598
866.856140	909.863647
865.875061	833.253418
864.893799	919.724670
863.912354	896.632629
862.930725	937.218689
861.948914	916.678101
860.966919	908.874268
859.984741	939.254272
859.002441	923.814270
858.019897	918.557739
857.037231	887.862854
856.054321	890.245361
855.071289	892.626953
854.088074	844.154907
853.104614	915.182617
852.121033	889.599426
851.137268	889.437988
850.153320	894.358093
849.169189	932.300720
848.184937	886.413879
847.200439	916.725830
846.215759	858.163635
845.230896	929.085388
844.245911	850.237976
843.260681	916.060242
842.275330	913.356750
841.289795	852.311462
840.304016	897.807922
839.318115	902.716309
838.332031	887.340759
837.345764	882.109985
836.359314	843.934631
835.372681	831.111877
834.385864	841.094543
833.398865	881.468994
832.411743	876.243835
831.424377	835.571960
830.436829	880.988464
829.449158	903.608398
828.461243	873.076233
827.473206	903.279846
826.484924	875.288574
825.496521	930.773438
824.507935	912.902527
823.519104	859.640991
822.530151	884.763611
821.541016	932.624023
820.551697	919.819458
819.562195	914.599121
818.572510	851.281311
817.582642	891.536011
816.592590	881.273193
815.602356	853.341370
814.611938	875.904053
813.621399	868.173401
812.630615	921.004700
811.639648	903.177185
810.648560	850.042725
809.657227	862.497620
808.665771	927.898621
807.674072	887.393616
806.682251	809.095154
805.690186	831.628601
804.697998	806.280884
803.705566	856.517395
802.713013	836.211731
801.720276	820.949890
800.727356	853.531616
799.734253	881.066833
798.740906	890.973816
797.747437	875.712952
796.753784	918.324646
795.759949	933.250305
794.765930	865.174133
793.771729	880.103943
792.777344	879.943542
791.782776	917.488098
790.788025	877.109558
789.793091	846.796631
788.798035	824.031616
787.802734	859.047058
786.807251	924.186157
785.811584	868.777405
784.815796	795.815674
783.819763	850.890564
782.823547	923.512085
781.827148	812.943848
780.830627	857.950867
779.833862	855.286133
778.836975	835.068420
777.839844	849.959534
776.842529	879.885986
775.845093	889.750793
774.847412	902.117798
773.849609	799.230713
772.851563	839.164307
771.853394	859.047180
770.854980	856.386292
769.856445	803.654419
768.857666	863.583008
767.858765	850.911926
766.859680	853.258728
765.860352	848.099365
764.860901	885.464111
763.861206	902.808350
762.861389	887.641052
761.861389	887.478882
760.861145	877.318848
759.860779	862.164368
758.860168	867.003967
757.859436	776.913452
756.858521	841.710510
755.857361	826.573486
754.856079	841.402893
753.854614	823.775024
752.852905	833.607788
751.851074	860.904480
750.848999	873.221680
749.846802	845.622925
748.844421	842.974304
747.841797	847.807190
746.839050	837.679810
745.836121	810.107544
744.832947	817.435913
743.829651	882.071228
742.826111	819.628113
741.822449	851.858765
740.818604	854.193237
739.814514	866.486450
738.810303	893.711792
737.805847	851.235352
736.801270	861.033691
735.796448	843.459534
734.791504	893.057678
733.786316	865.535278
732.781006	780.828491
731.775452	832.897034
730.769775	855.116760
729.763855	892.240356
728.757751	919.410828
727.751526	886.944702
726.745056	807.294739
725.738403	856.817444
724.731628	839.278992
723.724609	824.229492
722.717407	866.275269
721.710083	831.372620
720.702515	796.482727
719.694763	836.029541
718.686829	855.719055
717.678711	858.042114
716.670410	847.967102
715.661987	867.643494
714.653320	892.269714
713.644470	790.505127
712.635437	847.345398
711.626221	862.053040
710.616821	802.453918
709.607178	812.211731
708.597412	861.578796
707.587463	851.519409
706.577332	863.737671
705.567017	796.769348
704.556458	781.779236
703.545776	843.474121
702.534912	803.750061
701.523804	788.766846
700.512573	808.399475
699.501099	795.892517
698.489502	840.229126
697.477661	827.720886
696.465698	844.861389
695.453491	787.898560
694.441101	842.081726
693.428589	839.458130
692.415833	752.905029
691.402893	844.085999
690.389771	841.463379
689.376465	779.629272
688.362976	823.887146
687.349304	764.545227
686.335449	813.721191
685.321411	818.502441
684.307190	810.957275
683.292725	897.064514
682.278137	818.051331
681.263367	820.364502
680.248352	857.160339
679.233215	864.390686
678.217834	859.307434
677.202332	832.070251
676.186584	797.459167
675.170654	792.390869
674.154541	848.834045
673.138306	816.698792
672.121826	811.629639
671.105164	804.103271
670.088318	855.585510
669.071289	796.433105
668.054016	783.998230
667.036621	803.511780
666.019043	842.672241
665.001282	822.866638
663.983276	820.259338
662.965149	817.653015
661.946777	800.317749
660.928223	790.352417
659.909546	797.569092
658.890625	821.958374
657.871521	748.212402
656.852234	814.297607
655.832764	828.861206
654.813110	782.124390
653.793274	799.139771
652.773254	781.836304
651.752991	752.286987
650.732605	823.198242
649.711975	852.441101
648.691223	822.894958
647.670227	808.051514
646.649048	856.866455
645.627747	788.171875
644.606201	783.132019
643.584473	795.221924
642.562561	844.003052
641.540466	838.955627
640.518127	794.782227
639.495667	816.641052
638.473022	848.270020
637.450134	831.004700
636.427063	840.626221
635.403870	818.482117
634.380432	874.515076
633.356812	791.314636
632.333008	732.563599
631.309021	852.058411
630.284851	829.932434
629.260498	844.422485
628.235901	805.225464
627.211182	805.076904
626.186218	809.806702
625.161133	821.850891
624.135803	785.125061
623.110291	748.412720
622.084595	765.336243
621.058716	784.690369
620.032654	789.418457
619.006409	833.121155
617.979919	830.531799
616.953308	837.683777
615.926453	769.358093
614.899414	822.769043
613.872253	812.881958
612.844849	815.165161
611.817261	805.283081
610.789490	809.999146
609.761475	792.825623
608.733337	807.268311
607.705017	846.016479
606.676453	831.276367
605.647705	767.937927
604.618774	806.671753
603.589722	821.098389
602.560425	765.083374
601.530884	777.083862
600.501221	813.359253
599.471375	793.788940
598.441284	849.464111
597.411011	837.174072
596.380615	739.973511
595.349976	798.053345
594.319153	810.031921
593.288147	768.660583
592.256897	780.640137
591.225525	724.745972
590.193970	773.080933
589.162170	828.666931
588.130188	860.006836
587.098022	796.872925
586.065674	787.038757
585.033142	765.102234
584.000427	777.064392
582.967468	798.703369
581.934387	781.616455
580.901062	803.246521
579.867554	820.030579
578.833862	831.971313
577.799988	841.489563
576.765930	763.969666
575.731628	802.502991
574.697205	802.354370
573.662537	802.205750
572.627747	794.809631
571.592712	792.246948
570.557434	780.025513
569.522034	760.565002
568.486450	777.322388
567.450623	750.628723
566.414673	743.250183
565.378479	767.239441
564.342102	738.150146
563.305542	788.661255
562.268799	749.933289
561.231812	834.176208
560.194702	795.454102
559.157349	802.536621
558.119812	852.988831
557.082092	833.557617
556.044189	867.124512
555.006042	826.023682
553.967773	849.948303
552.929260	818.495239
551.890625	791.867554
550.851746	791.720642
549.812683	798.791687
548.773376	755.343506
547.733948	745.582886
546.694275	810.370300
545.654419	824.645142
544.614441	788.435547
543.574158	793.095825
542.533752	816.977356
541.493164	804.813477
540.452332	833.487854
539.411316	749.279297
538.370178	857.189148
537.328735	782.609985
536.287170	787.265015
535.245422	791.918274
534.203430	846.955200
533.161255	798.820618
532.118896	793.875366
531.076355	750.564392
530.033630	772.002625
528.990723	798.226990
527.947571	759.732544
526.904236	771.572266
525.860718	821.739380
524.817017	785.657166
523.773132	751.983215
522.729004	816.492310
521.684692	758.885437
520.640198	818.582214
519.595520	844.753723
518.550659	799.136719
517.505615	794.203735
516.460327	801.231201
515.414856	844.125366
514.369202	779.415466
513.323364	793.612854
512.277283	781.515442
511.231079	781.369995
510.184631	762.112061
509.138000	754.804321
508.091187	749.887451
507.044159	735.421509
505.996948	723.348145
504.949554	730.374023
503.901947	775.579590
502.854126	758.733459
501.806152	758.592163
500.757965	744.140503
499.709564	772.617371
