#Wave		#Intensity
3200.600830	16.839409
3200.007080	-8.419704
3199.413086	4.209216
3198.819092	29.460058
3198.224854	33.663551
3197.630615	25.243847
3197.036377	0.000000
3196.442139	25.236216
3195.847656	16.821600
3195.252930	16.819057
3194.658447	12.612386
3194.063721	29.424450
3193.468750	46.231430
3192.873779	42.022217
3192.278809	16.806345
3191.683838	0.000000
3191.088623	4.200315
3190.493164	8.399361
3189.897949	20.995226
3189.302490	20.992050
3188.706787	16.791100
3188.111328	12.591420
3187.515381	37.768547
3186.919678	16.783482
3186.323730	41.952354
3185.727783	20.973003
3185.131592	16.775864
3184.535400	12.579994
3183.939209	-16.770788
3183.342773	37.728561
3182.746338	16.765713
3182.149902	29.335556
3181.553223	20.950798
3180.956543	29.326677
3180.359619	16.755566
3179.762695	16.753029
3179.165771	12.562869
3178.568604	46.056881
3177.971436	62.795330
3177.374268	-8.371443
3176.776855	29.295614
3176.179443	4.184454
3175.581787	33.470566
3174.984131	25.099123
3174.386475	20.912767
3173.788574	29.273441
3173.190674	16.725147
3172.592773	12.541961
3171.994629	25.080122
3171.396484	4.179387
3170.798340	-8.357509
3170.199951	29.246849
3169.601563	25.064930
3169.002930	20.884277
3168.404297	50.114670
3167.805664	20.877949
3167.206787	4.174957
3166.607910	33.394596
3166.008789	4.173692
3165.409912	29.211416
3164.810547	29.206989
3164.211426	12.515385
3163.612061	33.369301
3163.012695	-4.170530
3162.413086	16.679592
3161.813477	16.677065
3161.213623	20.843170
3160.614014	8.336004
3160.013916	20.836851
3159.414063	16.666954
3158.813965	8.332213
3158.213867	49.985703
3157.613525	-12.494531
3157.013184	12.492636
3156.412598	24.981483
3155.812256	12.488847
3155.211426	29.136223
3154.610840	0.000000
3154.010010	16.644220
3153.409180	8.320848
3152.808105	24.958757
3152.207031	41.591618
3151.605957	37.426777
3151.004639	12.473701
3150.403320	4.157269
3149.801758	20.783192
3149.200195	45.716087
3148.598633	16.621510
3147.996826	62.321198
3147.395020	29.078814
3146.793213	4.153486
3146.191162	29.069988
3145.589111	12.456676
3144.986816	29.061163
3144.384766	24.905788
3143.782227	41.503345
3143.179932	29.047932
3142.577393	16.596298
3141.974609	16.593779
3141.371826	37.330334
3140.769043	24.883110
3140.166260	24.879332
3139.563232	-8.291851
3138.960205	-8.290592
3138.356934	29.012667
3137.753662	8.288074
3137.150391	24.860447
3136.546875	16.571114
3135.943359	-8.284299
3135.339600	16.566080
3134.735840	12.422673
3134.132080	37.262356
3133.528076	33.117062
3132.924072	4.139004
3132.320068	28.968626
3131.715820	4.137746
3131.111572	24.822706
3130.507080	16.545956
3129.902588	-4.135860
3129.298096	-4.135232
3128.693604	28.942225
3128.088867	20.669876
3127.483887	33.066772
3126.878906	4.132719
3126.273926	24.792542
3125.668945	49.577545
3125.063721	28.915838
3124.458252	49.562473
3123.853027	28.907047
3123.247559	4.128950
3122.641846	20.641613
3122.036133	0.000000
3121.430420	37.143604
3120.824707	12.379318
3120.218750	20.629059
3119.612549	45.377029
3119.006592	0.000000
3118.400391	41.239296
3117.793945	0.000000
3117.187500	-4.122675
3116.581055	32.976383
3115.974609	8.242842
3115.367920	24.724764
3114.760986	16.480667
3114.154297	20.597700
3113.547363	8.237826
3112.940186	4.118287
3112.333008	16.470640
3111.725830	20.585167
3111.118408	-8.232813
3110.510986	20.578901
3109.903564	24.690922
3109.295898	20.572638
3108.688232	32.911209
3108.080566	32.906200
3107.472656	24.675892
3106.864746	41.120224
3106.256592	53.448154
3105.648438	41.107704
3105.040039	28.771013
3104.431885	12.328556
3103.823486	12.326679
3103.214844	12.324802
3102.606201	4.107642
3101.997559	0.000000
3101.388672	28.744734
3100.779785	4.105765
3100.170898	16.420559
3099.561768	24.627087
3098.952637	16.415556
3098.343262	12.309792
3097.733887	61.539581
3097.124512	8.204027
3096.514893	12.304167
3095.905273	20.503819
3095.295410	24.600834
3094.685791	-8.199028
3094.075684	12.296668
3093.465820	-20.491323
3092.855713	40.976402
3092.245361	16.388063
3091.635254	16.385565
3091.024658	24.574600
3090.414307	24.570854
3089.803711	24.567108
3089.193115	20.469469
3088.582275	53.212509
3087.971436	12.277937
3087.360596	28.644152
3086.749512	-4.091398
3086.138428	4.090774
3085.527100	16.360600
3084.915771	16.358105
3084.304443	20.444513
3083.692871	0.000000
3083.081299	40.876553
3082.469482	61.305477
3081.857910	12.259226
3081.245850	24.514711
3080.634033	20.425810
3080.021973	36.760849
3079.409668	4.083915
3078.797607	12.249877
3078.185059	16.330677
3077.572754	36.738415
3076.960205	8.162847
3076.347656	8.161601
3075.734863	24.481066
3075.122070	28.556885
3074.509033	16.315729
3073.895996	24.469858
3073.282959	16.310749
3072.669922	32.616520
3072.056641	20.382212
3071.443115	32.606560
3070.829834	36.676781
3070.216064	8.149151
3069.602539	32.591629
3068.988770	48.879978
3068.375000	36.654385
3067.760986	40.720875
3067.146973	4.071465
3066.532715	8.141687
3065.918701	12.210666
3065.304199	12.208801
3064.689941	24.413872
3064.075439	56.957001
3063.460693	48.812828
3062.846191	16.268457
3062.231445	48.797916
3061.616455	52.856331
3061.001465	20.326252
3060.386475	24.387775
3059.771240	32.512066
3059.156006	16.253548
3058.540771	24.376596
3057.925293	16.248581
3057.309814	4.061524
3056.694092	28.426325
3056.078369	28.421980
3055.462646	32.477299
3054.846680	12.177125
3054.230713	0.000000
3053.614502	40.578007
3052.998291	8.114361
3052.382080	12.169680
3051.765625	48.671276
3051.149170	28.387238
3050.532715	12.164099
3049.916016	28.378555
3049.299316	28.374216
3048.682373	0.000000
3048.065430	-4.052219
3047.448486	16.206400
3046.831299	12.152940
3046.214111	8.100720
3045.596680	28.348185
3044.979248	44.540333
3044.361816	36.436516
3043.744141	28.335176
3043.126465	-36.425365
3042.508545	40.466438
3041.890869	20.230122
3041.272705	28.317837
3040.654785	20.223930
3040.036621	16.176668
3039.418213	48.522579
3038.799805	20.214647
3038.181396	32.338482
3037.562988	20.208458
3036.944336	36.369656
3036.325439	60.606815
3035.706543	24.239014
3035.087646	40.392174
3034.468750	32.308792
3033.849609	16.151922
3033.230469	40.373619
3032.611084	40.367439
3031.991699	16.144503
3031.372070	16.142031
3030.752441	40.348896
3030.132813	36.308441
3029.513184	28.235575
3028.893066	36.297321
3028.273193	0.000000
3027.653076	20.159000
3027.032959	32.249458
3026.412598	24.183390
3025.792480	56.419262
3025.171875	24.175978
3024.551270	20.143562
3023.930664	0.000000
3023.310059	32.219822
3022.689209	36.241745
3022.068115	36.236191
3021.447266	24.153757
3020.826172	68.425156
3020.204834	36.219528
3019.583496	24.142653
3018.962158	44.254742
3018.340576	12.067625
3017.718994	12.065775
3017.097412	28.149158
3016.475586	48.248302
3015.853760	12.060225
3015.231689	32.155670
3014.609619	32.150738
3013.987549	4.018226
3013.365234	32.140877
3012.742920	36.152943
3012.120361	28.114641
3011.497803	52.204899
3010.875244	16.060581
3010.252441	48.174355
3009.629639	64.222618
3009.006836	28.093084
3008.383789	16.050728
3007.760498	56.168926
3007.137451	24.068705
3006.514160	32.086681
3005.890625	24.061317
3005.267090	52.124855
3004.643555	40.089890
3004.019775	36.075363
3003.395996	88.170685
3002.772217	28.050001
3002.148193	44.071808
3001.524170	24.035477
3000.899902	20.026489
3000.275635	40.046829
2999.651367	52.052887
2999.026855	40.034534
2998.402344	4.002839
2997.777588	56.031136
2997.152832	28.011265
2996.528076	56.013927
2995.903076	60.005707
2995.278076	43.997425
2994.653076	43.990669
2994.027832	47.982449
2993.402344	35.981308
2992.777100	43.970398
2992.151367	79.933899
2991.525879	31.968647
2990.900146	43.950134
2990.274414	15.979412
2989.648438	35.948154
2989.022461	23.961752
2988.396240	31.944094
2987.770264	35.931583
2987.143799	15.967138
2986.517578	35.920540
2985.891113	15.962230
2985.264404	35.909496
2984.637695	35.903976
2984.010986	51.853329
2983.384033	67.797775
2982.757080	27.912439
2982.130127	39.868782
2981.502930	71.752769
2980.875732	19.928261
2980.248291	47.820473
2979.620850	-11.953279
2978.993408	31.870510
2978.365723	39.832012
2977.738037	23.895531
2977.110107	27.873831
2976.482178	27.869545
2975.854248	7.961502
2975.226074	19.900694
2974.597900	27.856684
2973.969482	27.852400
2973.341309	23.869812
2972.712646	3.977690
2972.083984	43.747856
2971.455322	63.623455
2970.826660	23.855124
2970.197754	43.727661
2969.568604	15.898521
2968.939697	31.792149
2968.310547	47.680882
2967.681152	43.700748
2967.051758	35.749653
2966.422363	19.857861
2965.792725	35.738647
2965.163086	27.792446
2964.533203	55.576336
2963.903564	43.660397
2963.273438	15.874063
2962.643311	39.679047
2962.013184	15.869175
2961.383057	31.733461
2960.752686	51.558933
2960.122314	55.516453
2959.491699	51.543053
2958.861084	35.678158
2958.230225	31.709032
2957.599609	67.371315
2956.968506	75.285751
2956.337646	71.312355
2955.706299	31.689495
2955.075195	43.566341
2954.443848	47.519596
2953.812500	23.756138
2953.180908	27.711222
2952.549316	39.581360
2951.917725	75.192993
2951.285889	55.396824
2950.653809	43.519367
2950.021973	55.379749
2949.389893	59.326298
2948.757568	90.952965
2948.125244	63.261875
2947.492920	75.111893
2946.860352	55.337074
2946.227783	71.136696
2945.595215	82.980019
2944.962402	86.918037
2944.329590	43.452320
2943.696533	86.891235
2943.063477	98.724808
2942.430420	75.019287
2941.797119	110.537682
2941.163574	86.837639
2940.530273	94.717361
2939.896729	138.108170
2939.262939	134.141525
2938.629150	134.120834
2937.995361	106.491287
2937.361328	94.644318
2936.727295	110.401329
2936.093262	145.864960
2935.458984	165.550888
2934.824707	220.700455
2934.190186	133.976028
2933.555664	161.534393
2932.921143	193.023499
2932.286377	157.545883
2931.651367	177.211761
2931.016602	173.246964
2930.381592	220.462112
2929.746338	145.639969
2929.111084	177.102356
2928.475830	188.880005
2927.840332	177.047668
2927.204834	169.152756
2926.569336	224.191116
2925.933594	216.291351
2925.297607	212.325989
2924.661865	220.155899
2924.025879	192.606659
2923.389648	176.856354
2922.753418	251.490173
2922.117188	200.375275
2921.480713	223.914230
2920.844238	200.313370
2920.207764	204.209518
2919.571045	227.736969
2918.934082	239.479446
2918.297363	192.339020
2917.660156	188.384613
2917.023193	204.051788
2916.385986	219.714127
2915.748779	192.220139
2915.111328	203.957199
2914.473877	250.985428
2913.836182	235.262466
2913.198486	203.862625
2912.560791	203.831100
2911.922852	223.395706
2911.284912	231.198395
2910.646729	207.654587
2910.008545	246.796524
2909.370361	250.675171
2908.731934	274.133575
2908.093506	274.091156
2907.455078	305.368622
2906.816406	305.321411
2906.177490	262.222687
2905.538574	258.268951
2904.899658	285.616943
2904.260498	297.308624
2903.621338	328.553436
2902.982178	316.770355
2902.342773	367.553162
2901.703369	363.586761
2901.063721	351.803711
2900.424072	312.666016
2899.784424	328.248505
2899.144531	359.454651
2898.504639	351.585968
2897.864502	371.061096
2897.224365	363.193054
2896.583984	335.803955
2895.943848	363.080627
2895.303223	374.734894
2894.662842	409.802826
2894.021973	417.543945
2893.381348	413.577606
2892.740479	405.711426
2892.099609	421.250458
2891.458496	362.687286
2890.817383	389.925934
2890.176025	401.561523
2889.534668	420.989594
2888.893311	463.796295
2888.251709	385.787567
2887.610107	436.378937
2886.968262	444.102631
2886.326416	424.558655
2885.684570	510.170349
2885.042480	533.454224
2884.400391	474.973236
2883.758057	564.429932
2883.115723	614.938660
2882.473389	696.563049
2881.830811	704.236755
2881.188232	820.833801
2880.545410	886.829895
2879.902588	1042.252441
2879.259766	1158.742920
2878.616699	1139.124268
2877.973633	1131.173340
2877.330322	1072.699097
2876.687012	990.927002
2876.043457	893.638733
2875.399902	808.034973
2874.756348	675.847473
2874.112549	633.023315
2873.468750	605.744324
2872.824707	601.768005
2872.180664	543.448120
2871.536621	582.175476
2870.892334	519.996094
2870.248047	527.675415
2869.603760	469.403076
2868.958984	508.117859
2868.314453	480.891907
2867.669678	480.817322
2867.024902	422.588348
2866.379883	484.544464
2865.734863	449.587494
2865.089844	461.143188
2864.444580	468.820709
2863.799316	461.000061
2863.153809	398.954926
2862.508301	515.075439
2861.862549	480.146179
2861.216797	480.071625
2860.571045	414.191040
2859.925049	464.441223
2859.279053	460.499359
2858.632813	533.941589
2857.986572	580.281128
2857.340332	510.568115
2856.693848	595.570313
2856.047363	572.277405
2855.400635	568.322388
2854.753906	622.351624
2854.107178	591.335510
2853.460205	610.565308
2852.813232	610.470459
2852.166016	687.638367
2851.518799	679.806519
2850.871338	664.253113
2850.223877	714.347290
2849.576416	721.957825
2848.928711	687.104370
2848.281006	895.412598
2847.633301	825.812622
2846.985352	883.559326
2846.337158	879.564270
2845.688965	975.856018
2845.040771	910.143188
2844.392578	948.561157
2843.743896	959.979736
2843.095459	967.539978
2842.446777	928.848145
2841.798096	944.117920
2841.149170	820.676941
2840.500244	832.106323
2839.851074	735.683350
2839.202148	693.206299
2838.552734	643.041382
2837.903320	654.491272
2837.253906	546.607666
2836.604492	508.035156
2835.954834	454.082001
2835.304932	477.096680
2834.655029	438.552917
2834.005127	380.789337
2833.354980	365.347046
2832.704834	303.767670
2832.054688	284.497589
2831.404297	295.985199
2830.753906	222.915207
2830.103271	219.037750
2829.452637	242.056671
2828.801758	180.553864
2828.150879	165.161865
2827.500000	180.497665
2826.848877	165.110458
2826.197754	161.245575
2825.546387	134.350388
2824.895020	118.977539
2824.243408	107.446854
2823.591797	99.756546
2822.940186	134.266754
2822.288330	103.561073
2821.636475	126.554939
2820.984619	115.032028
2820.332520	76.676079
2819.680176	111.162994
2819.028076	65.154366
2818.375488	72.808243
2817.723145	65.134071
2817.070557	99.601295
2816.417725	57.453335
2815.764893	72.762886
2815.112061	80.409607
2814.458984	80.397079
2813.805908	65.073212
2813.152832	42.099632
2812.499512	57.399643
2811.845947	84.173027
2811.192383	72.683556
2810.538818	53.547958
2809.885010	26.769806
2809.231201	84.120560
2808.577393	76.461319
2807.923340	76.449394
2807.269287	38.218739
2806.614990	72.604286
2805.960693	61.130917
2805.306152	68.761559
2804.651611	53.472874
2803.997070	61.102325
2803.342285	80.184296
2802.687500	72.536385
2802.032471	61.073742
2801.377441	76.330269
2800.722412	87.766121
2800.067139	64.860489
2799.411621	64.850372
2798.756348	87.725052
2798.100586	95.338448
2797.445068	72.445915
2796.789307	53.372871
2796.133301	68.611557
2795.477539	68.600845
2794.821289	72.400703
2794.165283	72.389404
2793.509033	79.996857
2792.852539	95.219490
2792.196045	64.739151
2791.539551	83.766998
2790.882813	64.718941
2790.226074	53.289631
2789.569092	41.863888
2788.912109	64.688629
2788.255127	34.241577
2787.597900	68.472458
2786.940430	41.837746
2786.283203	53.239727
2785.625488	57.033657
2784.968018	38.016499
2784.310303	45.612675
2783.652588	49.406013
2782.994629	68.397644
2782.336426	30.394203
2781.678467	64.577591
2781.020264	64.567505
2780.361816	53.164932
2779.703369	49.359722
2779.044922	37.963085
2778.386230	49.344299
2777.727539	45.541466
2777.068604	45.534351
2776.409668	45.527233
2775.750732	72.073517
2775.091553	41.720253
2774.432373	49.298046
2773.772949	26.540953
2773.113525	79.610413
2772.453857	56.855690
2771.794189	53.057014
2771.134521	53.048721
2770.474609	64.406235
2769.814697	49.244122
2769.154541	75.748344
2768.494385	49.228725
2767.833984	60.579723
2767.173584	64.355888
2766.513184	41.635532
2765.852539	41.629021
2765.191895	60.541832
2764.531006	52.965816
2763.870117	60.522892
2763.209229	41.602978
2762.548096	64.285454
2761.886719	94.522644
2761.225586	37.803143
2760.563965	68.035004
2759.902588	75.582619
2759.240967	41.563938
2758.579102	11.333845
2757.917236	60.437714
2757.255371	11.330297
2756.593262	56.642620
2755.931152	71.736092
2755.269043	33.974934
2754.606689	56.616024
2753.944092	41.511917
2753.281494	45.278637
2752.618896	33.953663
2751.956055	49.036499
2751.293213	67.886055
2750.630371	33.937714
2749.967285	60.324265
2749.303955	75.393524
2748.640625	64.074455
2747.977295	48.990437
2747.313721	56.518574
2746.650146	71.578979
2745.986572	26.367071
2745.322754	75.322685
2744.658691	67.779800
2743.994873	67.769180
2743.330566	33.879280
2742.666504	67.747940
2742.002197	86.553253
2741.337646	60.201519
2740.673096	82.764114
2740.008545	52.659821
2739.343750	48.890739
2738.678955	45.122841
2738.013916	90.231537
2737.348877	63.903984
2736.683594	90.203247
2736.018311	108.978500
2735.353027	52.602062
2734.687500	78.890717
2734.021973	71.366127
2733.356201	93.888069
2732.690430	78.853615
2732.024658	82.595589
2731.358643	60.060101
2730.692383	82.569687
2730.026367	93.814468
2729.359863	120.063683
2728.693604	112.542046
2728.027100	108.773575
2727.360352	93.755615
2726.693604	134.986908
2726.026855	104.973335
2725.359863	138.693008
2724.692871	138.671234
2724.025635	108.671211
2723.358398	134.881027
2722.691162	131.113739
2722.023682	104.874535
2721.355957	108.603004
2720.688477	149.773727
2720.020508	142.262711
2719.352783	149.726715
2718.684814	123.505142
2718.016602	153.421692
2717.348389	157.139008
2716.680176	115.965340
2716.011719	134.648285
2715.343262	145.846069
2714.674561	134.605988
2714.005859	123.369453
2713.337158	104.660667
2712.668213	142.017166
2711.999023	130.784744
2711.329834	141.972549
2710.660645	119.537056
2709.991455	108.313438
2709.321777	126.968216
2708.652344	130.682037
2707.982666	97.062828
2707.312988	115.710571
2706.643066	108.228363
2705.972900	115.674210
2705.302979	93.270988
2704.632813	89.526077
2703.962402	96.971336
2703.291992	104.414261
2702.621582	108.126343
2701.950928	82.013985
2701.280273	93.183060
2700.609375	108.075348
2699.938477	89.427605
2699.267334	78.236855
2698.596191	108.024376
2697.925049	81.936638
2697.253662	100.542793
2696.582031	100.526978
2695.910645	70.730080
2695.239014	74.441002
2694.567139	52.100506
2693.895264	81.859344
2693.223145	96.727646
2692.551270	70.674469
2691.878906	44.629482
2691.206543	70.652229
2690.534180	52.051346
2689.861816	78.064735
2689.189209	66.902100
2688.516357	81.756363
2687.843506	63.165428
2687.170654	89.160690
2686.497559	37.144440
2685.824463	66.849464
2685.151123	51.985844
2684.477783	55.690350
2683.804199	77.954216
2683.130615	81.653465
2682.457031	44.531239
2681.783203	40.813877
2681.109375	63.066059
2680.435303	59.346943
2679.761230	59.337597
2679.086914	55.620235
2678.412598	59.318909
2677.738281	66.723259
2677.063721	63.006485
2676.389160	62.996559
2675.714355	40.756058
2675.039551	62.976715
2674.364502	48.151077
2673.689453	55.550179
2673.014404	59.244190
2672.339111	59.234852
2671.663574	40.717545
2670.988037	88.824280
2670.312500	22.202570
2669.636719	40.698296
2668.960938	55.488930
2668.285156	88.768288
2667.609131	44.377148
2666.932861	62.857716
2666.256592	55.453949
2665.580322	55.445206
2664.903809	73.915283
2664.227295	84.989174
2663.550781	51.724384
2662.874023	81.268356
2662.197021	70.175240
2661.520020	48.007065
2660.843018	51.691761
2660.165771	55.375294
2659.488525	77.513184
2658.811035	81.191475
2658.133545	40.589333
2657.455811	36.893574
2656.778076	73.775505
2656.100342	62.699287
2655.422363	66.377007
2654.744385	92.175735
2654.066162	70.042503
2653.387939	44.230389
2652.709473	51.593979
2652.031006	66.324646
2651.352539	55.261814
2650.673828	73.670784
2649.994873	81.025070
2649.316162	84.694656
2648.636963	47.863335
2647.958008	73.624275
2647.278809	51.528854
2646.599365	25.760361
2645.919922	62.550995
2645.240479	69.898895
2644.560791	51.496315
2643.880859	58.843639
2643.201172	51.480049
2642.520996	47.795353
2641.841064	66.167732
2641.160889	66.157280
2640.480469	62.472000
2639.800049	69.810616
2639.119629	73.473251
2638.438965	51.423149
2637.758301	91.812546
2637.077393	55.078819
2636.396484	47.727436
2635.715332	58.732174
2635.034180	69.733437
2634.353027	25.687204
2633.671631	44.028248
2632.989990	51.358170
2632.308350	62.353634
2631.626709	58.676495
2630.944824	44.000416
2630.262939	69.656311
2629.581055	51.317585
2628.898926	80.629166
2628.216553	73.287651
2627.534180	65.948456
2626.851807	87.917374
2626.169189	65.927597
2625.486572	76.903366
2624.803711	32.953373
2624.120850	47.591785
2623.437988	47.584259
2622.754883	40.257233
2622.071533	54.887543
2621.388184	54.878860
2620.704834	65.844208
2620.021240	40.231762
2619.337646	62.166519
2618.653809	76.781784
2617.969971	51.179756
2617.286133	36.551182
2616.602051	73.090797
2615.917725	43.847534
2615.233398	40.187210
2614.549072	84.014503
2613.864502	65.740074
2613.179932	51.123074
2612.495117	98.578888
2611.810303	76.660324
2611.125488	76.648186
2610.440430	58.389370
2609.755127	65.677643
2609.069824	58.370880
2608.384521	40.123623
2607.698975	65.646439
2607.013428	87.514725
2606.327637	51.042168
2605.641846	54.679375
2604.956055	29.157713
2604.270020	87.459282
2603.583740	58.296947
2602.897461	40.072800
2602.211182	29.139238
2601.524658	69.194725
2600.838135	50.977505
2600.151367	69.172791
2599.464600	98.282600
2598.777832	40.034714
2598.090820	50.945194
2597.403564	61.852215
2596.716309	54.566833
2596.029053	83.655876
2595.341553	43.639626
2594.654053	72.721176
2593.966309	76.345131
2593.278564	32.714153
2592.590820	69.052261
2591.902832	54.506294
2591.214600	54.497650
2590.526367	50.856407
2589.838135	58.112389
2589.149658	65.366066
2588.461182	98.033546
2587.772461	72.605927
2587.083740	50.816082
2586.394775	65.324600
2585.705811	58.057095
2585.016846	61.675877
2584.327637	36.274170
2583.638184	61.656303
2582.948975	47.141457
2582.259277	97.893639
2581.569824	61.626953
2580.879883	47.119015
2580.190186	28.991713
2579.500244	32.610500
2578.810059	47.096577
2578.119873	50.711338
2577.429688	54.324951
2576.739258	50.695236
2576.048584	68.789757
2575.358154	36.199383
2574.667236	47.051727
2573.976563	39.806675
2573.285645	47.036781
2572.594482	50.646950
2571.903320	47.021843
2571.212158	65.096825
2570.520752	61.470566
2569.829102	39.768753
2569.137451	54.221500
2568.445801	54.212887
2567.753906	57.817890
2567.062012	54.195660
2566.370117	25.287289
2565.677979	32.507061
2564.985596	39.724541
2564.293213	57.771965
2563.600830	75.813652
2562.908203	54.144001
2562.215332	28.872210
2561.522705	79.385956
2560.829590	46.902424
2560.136719	57.716885
2559.443604	43.280781
2558.750244	50.486214
2558.056885	36.055847
2557.363525	43.260136
2556.669922	21.626629
2555.976074	57.661839
2555.282227	46.842793
2554.588379	75.657089
2553.894287	32.419308
2553.200195	54.023586
2552.505859	61.216991
2551.811523	68.408104
2551.117188	53.997807
2550.422607	28.794249
2549.727783	28.789665
2549.032959	17.990679
2548.338135	82.743950
2547.643066	64.745827
2546.947998	61.139107
2546.252686	53.937683
2545.557373	43.143280
2544.861816	35.947010
2544.166260	57.506058
2543.470703	35.935566
2542.774902	64.673721
2542.078857	35.924122
2541.382813	61.061287
2540.686768	53.869026
2539.990479	64.632538
2539.294189	50.261745
2538.597656	43.074635
2537.901123	57.423698
2537.204346	35.884094
2536.507568	60.993244
2535.810791	46.634464
2535.113770	35.866951
2534.416504	57.377975
2533.719238	43.026627
2533.021973	50.189732
2532.324463	53.766144
2531.626953	32.254547
2530.929199	42.999210
2530.231445	46.575054
2529.533447	39.403378
2528.835449	17.907772
2528.137451	46.552788
2527.439209	32.223717
2526.740723	39.378262
2526.042236	25.054899
2525.343750	53.680511
2524.645020	35.781300
2523.946289	39.353157
2523.247314	39.346882
2522.548340	53.646282
2521.849121	71.516968
2521.149902	7.150556
2520.450684	71.494156
2519.751221	46.463791
2519.051514	35.735676
2518.351807	39.302975
2517.652100	42.869133
2516.952148	53.577866
2516.252197	53.569317
2515.552002	64.272926
2514.851807	74.973114
2514.151367	42.834942
2513.450928	57.104145
2512.750244	24.979076
2512.049561	57.085918
2511.348877	64.211411
2510.647949	49.934235
2509.946777	78.455559
2509.245605	39.221516
2508.544434	17.825115
2507.843018	21.386724
2507.141602	39.202736
2506.439941	32.069843
2505.738281	32.064724
2505.036377	49.870491
2504.334473	60.547356
2503.632568	32.049362
2502.930420	60.528019
2502.228027	64.078255
2501.525635	60.508682
2500.823242	53.381485
2500.120605	35.581974
2499.417969	39.133919
2498.715088	64.027084
2498.012207	64.016861
2497.309082	56.894783
2496.605957	24.887489
2495.902588	78.205322
2495.199219	88.855484
2494.495605	24.875559
2493.791992	53.296249
2493.088379	60.392761
2492.384521	35.519478
2491.680664	35.513798
2490.976563	24.855684
2490.272461	71.004890
2489.568115	63.894180
2488.863770	56.785748
2488.159180	42.582500
2487.454590	35.479744
2486.749756	53.211105
2486.044922	46.108913
2485.339844	49.647812
2484.634766	81.551216
2483.929688	81.538170
2483.224365	53.168564
2482.519043	46.072048
2481.813477	31.890932
2481.107666	49.600178
2480.402100	35.423031
2479.696045	56.667782
2478.990234	49.576374
2478.284180	42.487236
2477.577881	84.960869
2476.871582	63.710457
2476.165039	56.622452
2475.458496	53.075050
2474.751953	56.604328
2474.045166	38.909245
2473.338379	3.536638
2472.631348	67.185364
2471.924072	49.497078
2471.217041	35.349396
2470.509521	35.343735
2469.802246	70.676147
2469.094482	31.799173
2468.386963	38.859432
2467.679199	49.449539
2466.971191	67.099335
2466.263184	35.309784
2465.554932	49.425781
2464.846680	52.947708
2464.138428	38.822098
2463.429932	42.344597
2462.721436	49.394112
2462.012695	59.968956
2461.303955	38.797226
2460.594971	63.476192
2459.885986	35.258900
2459.176758	63.455849
2458.467529	74.019958
2457.758057	66.959702
2457.048584	45.807190
2456.338867	10.569196
2455.629150	73.972511
2454.919434	56.350971
2454.209473	66.906052
2453.499512	38.728870
2452.789307	38.722660
2452.078857	24.637741
2451.368408	45.748466
2450.657959	66.852425
2449.947266	66.841698
2449.236572	45.726460
2448.525879	38.685413
2447.814697	45.711792
2447.103760	73.830276
2446.392578	42.181961
2445.681152	49.204391
2444.969727	35.140354
2444.258301	28.107773
2443.546631	59.719433
2442.834717	49.172817
2442.122803	28.094244
2441.410889	70.224335
2440.698730	77.234375
2439.986572	49.141258
2439.274170	70.190529
2438.561768	52.634445
2437.849121	73.676392
2437.136475	52.617546
2436.423584	56.116371
2435.710693	77.147621
2434.997803	17.530735
2434.284424	17.527920
2433.571289	38.555229
2432.857910	59.575787
2432.144287	66.574005
2431.430908	63.059982
2430.717041	28.022158
2430.003174	73.546349
2429.289307	49.023022
2428.575195	59.518391
2427.861084	84.012459
2427.146729	52.499352
2426.432373	34.993942
2425.717773	38.487152
2425.003174	59.470585
2424.288330	48.967907
2423.573486	31.474308
2422.858643	20.979500
2422.143555	73.416451
2421.428223	41.945511
2420.712891	34.948975
2419.997559	52.415031
2419.281982	52.406605
2418.566162	59.384605
2417.850586	52.389755
2417.134521	41.905064
2416.418457	62.847488
2415.702393	62.837379
2414.986084	73.298485
2414.269775	38.388271
2413.553223	52.339222
2412.836670	48.842083
2412.120117	34.881588
2411.403076	48.826366
2410.686279	48.818512
2409.969238	55.783607
2409.251953	52.288719
2408.534668	90.619194
2407.817383	41.817513
2407.099854	38.326553
2406.382080	62.706081
2405.664307	59.212879
2404.946533	38.308048
2404.228516	69.639786
2403.510498	55.702862
2402.792236	55.693893
2402.073975	31.322771
2401.355469	73.074699
2400.636963	52.187809
2399.918213	45.222153
2399.199463	59.127136
2398.480469	52.162601
2397.761475	45.200306
2397.042480	76.480507
2396.323242	52.137402
2395.603760	72.980606
2394.884277	52.120605
2394.164795	45.163914
2393.445068	52.103813
2392.725098	65.987534
2392.005127	52.087025
2391.285156	34.719090
2390.564941	48.598892
2389.844727	38.178688
2389.124268	41.642769
2388.403809	27.757370
2387.683105	31.222010
2386.962402	65.902504
2386.241455	90.167839
2385.520508	62.413826
2384.799316	55.470013
2384.078125	62.393703
2383.356689	62.383640
2382.635254	20.791195
2381.913818	51.969604
2381.192139	58.889385
2380.470215	51.952843
2379.748291	34.629642
2379.026367	62.323303
2378.304199	31.156626
2377.581787	58.841911
2376.859375	76.136070
2376.136963	72.663612
2375.414307	48.434597
2374.691650	44.967724
2373.968750	44.960468
2373.245850	62.242912
2372.522705	34.573814
2371.799316	38.025059
2371.076172	38.018921
2370.352783	58.747032
2369.629150	62.192699
2368.905518	51.818886
2368.181641	51.810520
2367.457764	55.255630
2366.733643	34.529194
2366.009521	37.975983
2365.285400	31.066240
2364.561035	34.512470
2363.836426	55.211037
2363.111816	65.552521
2362.387207	41.394905
2361.662354	58.633308
2360.937256	65.520760
2360.212158	31.031137
2359.487061	72.394287
2358.761719	58.595432
2358.036377	68.924667
2357.310791	44.793797
2356.584961	44.786556
2355.859375	51.668446
2355.133301	61.992119
2354.407471	17.217249
2353.681152	41.314720
2352.955078	68.846741
2352.228516	55.068489
2351.502197	58.500813
2350.775635	68.813362
2350.048828	51.601677
2349.322021	44.714222
2348.594971	41.267994
2347.867920	72.207314
2347.140869	41.254650
2346.413330	51.559971
2345.686035	85.919388
2344.958496	54.979519
2344.230713	27.485313
2343.502930	37.786194
2342.775146	48.083736
2342.047119	30.905973
2341.319092	24.034092
2340.590820	37.761749
2339.862305	58.349621
2339.133789	34.317753
2338.405273	30.880981
2337.676514	44.598644
2336.947754	34.301098
2336.218750	54.872871
2335.489746	30.860996
2334.760498	58.283558
2334.031250	44.562565
2333.301758	65.119362
2332.572266	68.535599
2331.842529	61.672050
2331.112793	47.959385
2330.382813	51.376736
2329.652832	78.764908
2328.922607	54.784103
2328.192383	51.351780
2327.462158	47.920567
2326.731689	54.757492
2326.000977	61.592201
2325.270264	65.003456
2324.539307	44.468845
2323.808350	44.461643
2323.077393	61.552299
2322.346191	54.704292
2321.614746	34.184643
2320.883301	44.432835
2320.151855	51.260345
2319.420166	58.085648
2318.688232	47.827484
2317.956299	54.651123
2317.224365	64.887695
2316.492188	95.608467
2315.760010	27.312277
2315.027588	30.721331
2314.295166	47.780987
2313.562500	61.422741
2312.829590	71.648247
2312.096924	47.757751
2311.363770	54.571438
2310.630615	54.562588
2309.897461	30.686478
2309.164063	61.363003
2308.430664	54.536045
2307.697021	61.343098
2306.963379	27.259176
2306.229492	47.695820
2305.495605	57.906956
2304.761719	71.520515
2304.027344	34.051865
2303.293213	54.474140
2302.558838	51.061222
2301.824219	37.438820
2301.089600	37.432743
2300.354736	61.243637
2299.619873	68.037437
2298.885010	47.618477
2298.149658	61.213818
2297.414551	40.802589
2296.679199	44.195629
2295.943604	47.587563
2295.208008	50.978397
2294.472412	64.562149
2293.736572	74.744034
2293.000488	44.159760
2292.264404	50.945293
2291.528320	47.541218
2290.791992	71.300240
2290.055420	54.315170
2289.318848	81.459518
2288.582275	33.935955
2287.845459	54.288704
2287.108398	54.279884
2286.371582	40.703300
2285.634277	57.653637
2284.896973	74.598465
2284.159668	81.366920
2283.422119	23.728161
2282.684570	71.172913
2281.946777	84.715889
2281.208740	88.090202
2280.470703	67.750679
2279.732666	47.417767
2278.994385	81.274384
2278.256104	60.945877
2277.517578	71.091965
2276.779053	60.926060
2276.040283	50.763462
2275.301514	77.824646
2274.562500	30.448172
2273.823486	37.208378
2273.084229	40.584358
2272.344971	37.196274
2271.605469	64.237663
2270.865967	57.466454
2270.126221	54.077274
2269.386475	67.585594
2268.646484	64.195869
2267.906494	70.941780
2267.166260	64.174980
2266.426025	67.541618
2265.685547	64.154091
2264.945068	70.895615
2264.204346	67.508644
2263.463623	70.872536
2262.722656	70.861000
2261.981689	57.354328
2261.240723	60.718227
2260.499268	77.571770
2259.758057	50.582047
2259.016602	37.087460
2258.274902	67.420769
2257.533203	67.409790
2256.791260	90.988388
2256.049316	50.540874
2255.307129	70.745697
2254.564941	60.629292
2253.822754	74.090401
2253.080322	67.343933
2252.337646	60.599667
2251.594971	53.857594
2250.852051	70.676575
2250.109131	70.665062
2249.366211	60.560181
2248.623047	74.005936
2247.879639	63.903801
2247.136230	57.167767
2246.392578	77.332016
2245.648926	47.063992
2244.905273	77.306808
2244.161377	84.015442
2243.417236	50.401047
2242.673096	87.347572
2241.928955	47.025639
2241.184570	53.734825
2240.439941	53.726063
2239.695313	50.359970
2238.950439	53.708538
2238.205566	63.768490
2237.460693	36.912575
2236.715576	60.392544
2235.970215	63.737289
2235.224854	46.956657
2234.479492	40.241997
2233.733887	73.764954
2232.988037	40.228867
2232.242188	56.981594
2231.496338	63.674915
2230.750244	83.769112
2230.003906	83.755440
2229.257568	50.245064
2228.511230	73.680733
2227.764648	70.320129
2227.017822	63.612587
2226.270996	66.949684
2225.523926	70.285690
2224.776855	76.967003
2224.029785	83.646118
2223.282471	70.251266
2222.534912	50.171284
2221.787354	96.981972
2221.039795	76.904175
2220.291992	50.146706
2219.543945	76.879059
2218.795898	26.736174
2218.047852	36.756233
2217.299561	60.136738
2216.551025	80.169212
2215.802490	76.816277
2215.053955	50.089386
2214.305176	63.436192
2213.556152	90.131432
2212.807129	56.740147
2212.058105	53.393764
2211.308838	86.750687
2210.559326	76.728447
2209.809814	66.709480
2209.060303	50.023933
2208.310547	60.018906
2207.560547	63.342930
2206.810547	59.999279
2206.060303	43.325729
2205.310059	66.644066
2204.559814	53.306534
2203.809326	56.628929
2203.058594	83.264221
2202.307861	89.910652
2201.557129	49.942188
2200.806152	63.249760
2200.054932	43.269070
2199.303711	59.901222
2198.552246	39.927612
2197.800781	99.802704
2197.049316	53.219398
2196.297607	56.536358
2195.545654	73.152725
2194.793701	86.439072
2194.041504	89.748962
2193.289307	56.499355
2192.537109	69.781898
2191.784668	63.125668
2191.031982	96.333931
2190.279297	69.747627
2189.526367	59.773895
2188.773438	56.443878
2188.020508	96.270851
2187.267090	53.106255
2186.513916	76.327736
2185.760498	76.315239
2185.006836	86.255272
2184.253174	63.022373
2183.499268	106.125557
2182.745361	76.265251
2181.991211	92.829445
2181.237061	82.869850
2180.482666	62.970768
2179.728271	72.901573
2178.973877	86.142288
2178.218994	92.753418
2177.464355	105.986534
2176.709229	69.542259
2175.954346	86.085831
2175.198975	99.313522
2174.443848	76.127884
2173.688232	72.806046
2172.932861	49.632343
2172.177002	92.631851
2171.421387	102.539879
2170.665283	59.529522
2169.909424	76.053032
2169.153076	69.428337
2168.396729	89.250359
2167.640381	82.625671
2166.883789	82.612122
2166.127197	66.078857
2165.370361	92.495224
2164.613525	39.634304
2163.856445	62.744022
2163.099365	75.940826
2162.342041	72.627136
2161.584473	62.713142
2160.826904	82.503754
2160.069336	42.894909
2159.311523	69.280403
2158.553711	85.761665
2157.795654	75.853638
2157.037354	72.543739
2156.279053	72.531830
2155.520752	65.927208
2154.762207	56.028923
2154.003662	79.086670
2153.244873	75.778946
2152.485840	72.472305
2151.726807	85.635025
2150.967773	75.741623
2150.208252	65.851463
2149.448975	52.672516
2148.689453	49.372375
2147.929688	49.364265
2147.169922	75.679436
2146.410156	78.956871
2145.650146	59.207928
2144.889893	55.909409
2144.129639	78.917961
2143.369141	62.466454
2142.608643	59.169022
2141.847900	46.012787
2141.087158	78.866096
2140.326416	42.712116
2139.565186	88.695198
2138.804199	52.551476
2138.042725	49.258911
2137.281494	88.651459
2136.519775	59.091255
2135.758301	59.081543
2134.996338	62.353596
2134.234619	82.030708
2133.472412	59.052399
2132.710449	65.602989
2131.947998	55.753368
2131.185547	59.023266
2130.423096	45.899433
2129.660400	42.613892
2128.897705	72.103951
2128.134766	65.538261
2127.371826	65.527481
2126.608643	65.516701
2125.845215	75.331810
2125.081787	58.945625
2124.318359	55.661705
2123.554688	62.199905
2122.790771	98.194214
2122.026855	81.815041
2121.262939	65.441261
2120.498779	78.516579
2119.734375	85.045624
2118.969971	68.679390
2118.205322	65.398170
2117.440674	88.272995
2116.676025	62.107803
2115.911133	91.512222
2115.145996	91.497147
2114.380859	49.008255
2113.615479	71.866936
2112.850098	55.524395
2112.084473	78.374466
2111.318848	58.771168
2110.552979	65.290543
2109.787109	75.071747
2109.020996	81.586281
2108.254883	78.309929
2107.488525	65.247520
2106.722168	61.974926
2105.955566	88.055115
2105.188965	74.997551
2104.422119	84.765869
2103.655029	71.713142
2102.887939	48.887264
2102.120850	87.982567
2101.353516	68.419601
2100.585938	52.120628
2099.818359	71.654045
2099.050781	68.385765
2098.282959	87.910057
2097.514893	65.107819
2096.746826	87.881058
2095.978760	74.849297
2095.210449	97.613411
2094.441895	55.305141
2093.673340	65.054138
2092.904541	81.304260
2092.135742	74.787575
2091.366699	52.017559
2090.597656	68.261780
2089.828369	74.750565
2089.059082	81.237206
2088.289551	71.476944
2087.520020	48.726234
2086.750244	32.478794
2085.980469	94.172958
2085.210449	84.416992
2084.440186	71.417969
2083.670166	84.389114
2082.899658	42.187592
2082.129150	87.605919
2081.358643	68.126686
2080.587891	120.012909
2079.816895	74.590294
2079.045898	48.637810
2078.274902	71.323677
2077.503662	71.311890
2076.732178	74.541031
2075.960693	93.970985
2075.188965	74.516403
2074.417236	74.504089
2073.645264	71.253006
2072.873291	51.811806
2072.101074	25.901623
2071.328857	87.403526
2070.556396	84.152451
2069.783936	64.721954
2069.011230	74.417946
2068.238525	77.640671
2067.465576	71.158852
2066.692627	87.316879
2065.919434	71.135323
2065.145996	51.726227
2064.372559	77.576515
2063.599121	87.259148
2062.825439	100.169861
2062.051514	116.307053
2061.277588	83.985641
2060.503662	77.512383
2059.729248	74.270416
2058.955078	106.544273
2058.180664	90.386246
2057.406006	100.053932
2056.631348	64.540245
2055.856445	90.341393
2055.081543	77.422668
2054.306396	67.733620
2053.531250	35.473644
2052.755859	77.384232
2051.980225	80.595238
2051.204590	51.572414
2050.428955	96.682266
2049.653076	90.221848
2048.877197	83.763557
2048.101074	90.191978
2047.324707	61.191563
2046.548340	99.822334
2045.771851	64.390846
2044.995239	93.351257
2044.218506	106.209702
2043.441528	96.538284
2042.664551	74.000427
2041.887329	93.289429
2041.110107	96.490318
2040.332642	77.179466
2039.555176	54.659733
2038.777466	109.301353
2037.999634	73.926903
2037.221802	86.769371
2036.443726	109.247032
2035.665527	54.614464
2034.887207	93.150406
2034.108765	73.865662
2033.330200	89.908516
2032.551514	77.051666
2031.772705	83.458801
2030.993774	86.654388
2030.214600	89.848907
2029.435425	80.208939
2028.656128	64.156509
2027.876587	76.975044
2027.097046	73.755524
2026.317261	89.774437
2025.537476	80.142456
2024.757446	92.949829
2023.977295	70.501968
2023.197021	76.898476
2022.416626	89.700005
2021.636230	86.482086
2020.855591	96.075264
2020.074707	96.059319
2019.293823	83.237595
2018.512817	121.634758
2017.731689	89.610741
2016.950439	86.396011
2016.168945	95.979637
2015.387451	99.162498
2014.605713	118.335594
2013.823975	95.931847
2013.041992	67.141144
2012.260010	105.489998
2011.477783	99.080215
2010.695435	73.498917
2009.912964	115.022682
2009.130371	67.085419
2008.347656	63.880268
2007.564819	79.837074
2006.781860	63.859051
2005.998779	86.195396
2005.215576	118.099991
2004.432129	102.123566
2003.648682	92.534103
2002.864990	92.518730
2002.081299	108.452217
2001.297363	89.298744
2000.513428	76.529060
1999.729248	102.021797
1998.944946	98.817184
1998.160522	73.303787
1997.375977	101.970932
1996.591309	117.884293
1995.806519	98.751495
1995.021606	98.735085
1994.236572	85.980774
1993.451416	92.334366
1992.666016	85.952179
1991.880615	98.669426
1991.094971	98.653015
1990.309326	114.545746
1989.523438	101.801506
1988.737549	108.146103
1987.951416	98.587402
1987.165161	85.852158
1986.378784	120.808868
1985.592285	98.538200
1984.805664	85.809319
1984.018921	88.972633
1983.232056	127.082611
1982.444946	104.825706
1981.657837	146.096359
1980.870605	139.721085
1980.083130	111.123276
1979.295654	98.407089
1978.507935	104.738495
1977.720093	136.454712
1976.932129	107.876457
1976.144165	76.135414
1975.355957	117.355881
1974.567627	145.877609
1973.779053	110.975349
1972.990479	98.276085
1972.201782	85.581047
1971.412964	104.581635
1970.623901	104.564209
1969.834839	123.555298
1969.045532	129.869827
1968.256226	107.678993
1967.466675	98.161545
1966.677002	113.975060
1965.887207	101.294281
1965.097290	101.277405
1964.307251	110.753700
1963.517090	113.899101
1962.726807	107.553444
1961.936401	126.512375
1961.145874	107.517593
1960.355103	116.984932
1959.564331	113.804207
1958.773315	129.588730
1957.982178	148.528168
1957.191040	123.226227
1956.399658	120.046562
1955.608154	110.550758
1954.816528	116.848457
1954.024780	110.513885
1953.232910	142.065582
1952.440918	148.354858
1951.648682	164.109909
1950.856445	126.217331
1950.063965	110.421738
1949.271484	94.631416
1948.478760	116.692604
1947.685913	119.826454
1946.893066	151.334473
1946.099976	141.852402
1945.306763	122.918221
1944.513428	129.200150
1943.719971	110.274406
1942.926270	122.856682
1942.132568	129.135468
1941.338745	113.368301
1940.544678	170.024063
1939.750610	141.663055
1938.956299	132.196777
1938.161865	129.027679
1937.367310	147.885086
1936.572632	97.524933
1935.777832	172.999207
1934.982910	110.072014
1934.187866	147.786301
1933.392700	154.049347
1932.597290	150.880264
1931.801880	172.854752
1931.006226	147.687561
1930.210571	153.946411
1929.414673	141.355728
1928.618652	119.347115
1927.822510	147.588867
1927.026245	141.284866
1926.229858	153.817810
1925.433350	116.128731
1924.636719	138.075943
1923.839844	122.365028
1923.042969	181.948334
1922.245850	122.324120
1921.448730	172.479523
1920.651367	147.366943
1919.853882	150.477249
1919.056274	134.779984
1918.258545	122.221870
1917.460693	150.401749
1916.662720	187.970749
1915.864624	150.351440
1915.066284	169.117065
1914.267944	150.301132
1913.469360	122.099236
1912.670776	143.990387
1911.871948	175.263321
1911.072998	150.200562
1910.273926	122.017532
1909.474731	118.868973
1908.675415	168.890793
1907.875977	165.735443
1907.076294	162.581131
1906.276611	131.293549
1905.476807	165.652222
1904.676758	156.249512
1903.876587	159.347809
1903.076294	174.940857
1902.275879	162.417877
1901.475342	165.513565
1900.674683	159.241104
1899.873901	149.848877
1899.072998	184.158386
1898.271851	168.523514
1897.470703	127.931595
1896.669312	165.347290
1895.867920	184.035004
1895.066284	159.054459
1894.264526	177.736954
1893.462646	174.589493
1892.660645	155.857361
1891.858521	171.414352
1891.056152	155.805115
1890.253784	165.125732
1889.451172	174.443237
1888.648560	155.726776
1887.845703	149.472641
1887.042725	152.561066
1886.239624	168.100342
1885.436401	149.397461
1884.633057	146.260483
1883.829590	155.570160
1883.025879	174.209366
1882.222168	164.849060
1881.418213	180.370605
1880.614258	167.903076
1879.810059	180.310089
1879.005737	177.171570
1878.201294	177.141846
1877.396729	189.541046
1876.592041	173.975693
1875.787231	180.158875
1874.982178	155.283310
1874.177124	189.413834
1873.371826	176.963547
1872.566406	161.413330
1871.760986	145.868332
1870.955322	189.286697
1870.149536	148.921906
1869.343506	183.019104
1868.537476	192.292862
1867.731323	192.260574
1866.924927	201.529663
1866.118530	170.496460
1865.311890	201.461975
1864.505127	167.340302
1863.698242	164.213821
1862.891235	176.577652
1862.084106	182.742645
1861.276855	161.034256
1860.469482	188.873840
1859.661865	148.597061
1858.854126	210.477127
1858.046387	204.252289
1857.238403	163.993225
1856.430298	173.246735
1855.622070	204.149338
1854.813721	204.115021
1854.005249	185.527908
1853.196533	176.221893
1852.387817	173.101166
1851.578857	197.796646
1850.769775	213.213654
1849.960693	203.909195
1849.151367	182.251816
1848.341919	197.663635
1847.532227	194.542419
1846.722534	209.946976
1845.912720	203.737793
1845.102661	148.148010
1844.292603	203.669250
1843.482300	215.976501
1842.671875	200.515869
1841.861328	225.156845
1841.050659	169.610184
1840.239868	206.581268
1839.428833	206.546509
1838.617798	181.853622
1837.806519	218.803970
1836.995117	212.604675
1836.183716	209.488190
1835.372070	197.132156
1834.560303	230.975357
1833.748291	224.778168
1832.936279	209.347153
1832.124146	218.546249
1831.311768	227.742233
1830.499390	187.701843
1829.686768	184.593674
1828.874023	224.551147
1828.061157	230.664368
1827.248169	184.500412
1826.434937	227.512177
1825.621704	202.882080
1824.808228	218.215164
1823.994751	218.178391
1823.181030	215.069214
1822.367188	239.608170
1821.553223	187.354294
1820.739136	221.102234
1819.924927	214.924271
1819.110474	205.678558
1818.296021	208.713196
1817.481323	208.678009
1816.666626	248.530426
1815.851685	254.624054
1815.036621	205.505234
1814.221436	223.870941
1813.406006	211.568359
1812.590576	220.729752
1811.774902	205.366653
1810.959229	220.655304
1810.143311	205.297379
1809.327271	202.199127
1808.511108	202.165009
1807.694824	241.944580
1806.878418	211.283020
1806.061768	241.862930
1805.245117	226.516922
1804.428223	244.841843
1803.611206	232.560501
1802.794067	269.235138
1801.976807	253.894821
1801.159424	207.975098
1800.341919	198.766174
1799.524170	223.192017
1798.706421	238.438873
1797.888428	232.285843
1797.070313	226.134857
1796.252075	204.709152
1795.433716	198.564896
1794.615234	250.454956
1793.796509	265.681732
1792.977783	222.890686
1792.158813	219.800262
1791.339844	216.710861
1790.520630	222.777756
1789.701294	228.842590
1788.881714	210.499603
1788.062134	253.166885
1787.242432	204.329102
1786.422485	228.687958
1785.602417	201.211395
1784.782349	240.803238
1783.962036	216.381516
1783.141479	237.674728
1782.320923	240.681137
1781.500244	265.009125
1780.679321	234.508636
1779.858398	204.018478
1779.037231	213.117584
1778.215942	270.917969
1777.394531	240.437088
1776.572998	197.794525
1775.751221	209.930984
1774.929443	228.147263
1774.107422	255.481705
1773.285278	215.906342
1772.463013	264.516541
1771.640625	252.312164
1770.818115	224.914963
1769.995483	221.838028
1769.172607	243.069031
1768.349731	279.482086
1767.526611	264.248108
1766.703369	252.056107
1765.880005	221.650375
1765.056519	236.791824
1764.232910	236.751740
1763.409058	257.955017
1762.585083	254.877090
1761.761108	282.137573
1760.936890	266.923676
1760.112549	206.224274
1759.288086	236.511322
1758.463379	245.566315
1757.638672	251.587067
1756.813721	251.544449
1755.988647	281.803284
1755.163574	257.518494
1754.338257	251.416641
1753.512695	263.488464
1752.687134	248.303360
1751.861328	254.316452
1751.035522	251.246292
1750.209473	245.150604
1749.383301	254.187180
1748.557007	242.041992
1747.730591	278.301117
1746.903931	251.033447
1746.077271	263.086853
1745.250366	250.948349
1744.423340	244.859879
1743.596313	235.751007
1742.768921	271.974274
1741.941528	241.713913
1741.114014	293.028412
1740.286255	277.876740
1739.458374	229.511414
1738.630493	277.782471
1737.802368	253.584457
1736.973999	313.908447
1736.145630	241.427078
1735.317139	238.368790
1734.488403	286.597382
1733.659546	271.467224
1732.830566	289.515900
1732.001465	274.390381
1731.172241	265.299500
1730.342896	253.197464
1729.513306	277.264435
1728.683594	262.151215
1727.853882	307.297516
1727.023926	277.123260
1726.193726	289.123016
1725.363525	267.995605
1724.533203	246.875366
1723.702637	258.874115
1722.871948	246.791534
1722.041138	279.850189
1721.210205	306.880310
1720.379150	243.657684
1719.547974	333.844543
1718.716553	264.624603
1717.885010	273.599396
1717.053467	264.534698
1716.221558	273.506439
1715.389648	270.454895
1714.557617	279.422577
1713.725342	249.334763
1712.893066	267.313507
1712.060547	282.283142
1711.227905	261.217651
1710.395142	291.193176
1709.562256	264.130341
1708.729126	300.097076
1707.895874	285.043762
1707.062622	284.995270
1706.229126	287.946259
1705.395508	308.889801
1704.561646	272.856232
1703.727783	299.791016
1702.893677	281.755615
1702.059570	293.695251
1701.225220	284.656158
1700.390747	254.649017
1699.556030	275.573242
1698.721313	275.526337
1697.886353	275.479462
1697.051392	284.414093
1696.216187	272.392395
1695.380859	293.295715
1694.545410	326.161163
1693.709717	284.220520
1692.874023	272.207001
1692.038086	296.086853
1691.202026	263.143524
1690.365845	272.067993
1689.529541	304.903412
1688.692993	292.896515
1687.856445	271.929047
1687.019653	262.919556
1686.182739	283.785278
1685.345703	322.564117
1684.508545	310.564392
1683.671143	256.769104
1682.833740	286.577148
1681.996094	277.574310
1681.158325	268.574554
1680.320435	286.430695
1679.482422	322.179626
1678.644287	298.263641
1677.805908	313.123444
1676.967407	265.364166
1676.128784	307.054504
1675.290039	259.312500
1674.451172	315.890106
1673.612183	333.713776
1672.772949	277.054382
1671.933594	321.685730
1671.094116	279.937988
1670.254517	339.441376
1669.414795	264.957275
1668.574829	303.607117
1667.734863	291.651215
1666.894653	267.797272
1666.054321	309.401825
1665.213867	297.451019
1664.373169	347.958313
1663.532471	261.667572
1662.691528	353.785553
1661.850464	300.220551
1661.009277	344.748901
1660.167969	288.232239
1659.326538	335.718384
1658.484863	332.690643
1657.643066	299.964447
1656.801147	288.035492
1655.959106	273.141663
1655.116943	320.589813
1654.274658	317.567169
1653.432129	299.708496
1652.589478	281.855896
1651.746704	293.673340
1650.903809	281.759644
1650.060791	320.261505
1649.217529	311.312164
1648.374146	290.508392
1647.530640	314.169708
1646.687012	325.969452
1645.843262	322.950928
1644.999390	293.272278
1644.155273	319.878723
1643.311035	293.172058
1642.466675	334.573547
1641.622192	266.428986
1640.777588	301.901245
1639.932739	316.646179
1639.087769	295.880432
1638.242798	322.454529
1637.397461	313.526031
1636.552124	307.557861
1635.706665	307.505280
1634.860962	292.671326
1634.015137	280.798187
1633.169189	307.347565
1632.323120	310.249756
1631.476929	360.419006
1630.630493	313.097382
1629.783936	307.137329
1628.937256	301.179321
1628.090454	309.984497
1627.243530	327.641846
1626.396484	348.244324
1625.549194	336.381866
1624.701782	342.224731
1623.854248	321.518219
1623.006592	318.513977
1622.158691	321.408173
1621.310791	303.664001
1620.462646	300.664307
1619.614380	291.771301
1618.765991	324.134827
1617.917358	324.079346
1617.068726	312.241150
1616.219849	306.297363
1615.370850	306.244904
1614.521729	341.522369
1613.672363	320.858276
1612.822998	320.803345
1611.973389	326.633667
1611.123657	326.577728
1610.273804	317.696869
1609.423828	305.877899
1608.573608	305.825500
1607.723389	332.234222
1606.872925	376.271637
1606.022339	326.242126
1605.171509	329.124847
1604.320679	334.944641
1603.469604	343.700073
1602.618408	358.326660
1601.767090	331.835846
1600.915649	331.778961
1600.064087	358.142395
1599.212280	319.924835
1598.360352	352.150421
1597.508301	290.474274
1596.656128	349.096069
1595.803833	334.370819
1594.951294	307.920288
1594.098633	299.071259
1593.245850	319.540955
1592.392944	363.452118
1591.539795	354.598083
1590.686646	331.096741
1589.833252	304.673920
1588.979736	357.344635
1588.126099	319.212128
1587.272217	342.581757
1586.418335	281.044464
1585.564209	348.318237
1584.709961	316.066498
1583.855591	310.160156
1583.000977	310.106903
1582.146362	345.154083
1581.291504	356.792969
1580.436523	345.035583
1579.581421	321.588104
1578.726074	341.994049
1577.870605	312.710083
1577.015137	353.564697
1576.159424	324.288757
1575.303467	350.522217
1574.447510	356.303040
1573.591309	332.881683
1572.734985	321.146454
1571.878540	361.957428
1571.021973	326.873108
1570.165161	402.685181
1569.308350	306.338226
1568.451294	350.040680
1567.594116	326.648468
1566.736694	317.844330
1565.879272	335.282684
1565.021606	335.225037
1564.163818	355.568909
1563.305908	375.905762
1562.447876	329.225159
1561.589600	346.646545
1560.731201	364.061890
1559.872681	329.055359
1559.014038	320.264282
1558.155273	363.874084
1557.296265	305.601654
1556.437134	387.028839
1555.577881	366.595825
1554.718506	383.986694
1553.859009	354.835724
1552.999268	348.958679
1552.139404	340.176178
1551.279419	366.280518
1550.419312	345.872070
1549.558960	345.812531
1548.698608	334.131073
1547.838013	363.123413
1546.977173	363.060913
1546.116333	336.862518
1545.255249	342.611481
1544.394165	368.679382
1543.532837	348.298492
1542.671265	397.572296
1541.809692	333.671082
1540.947876	374.227448
1540.085938	353.859589
1539.223877	324.798737
1538.361694	382.732574
1537.499268	420.353516
1536.636841	336.224854
1535.774170	388.330780
1534.911377	396.956329
1534.048340	350.536041
1533.185303	318.614227
1532.322021	385.167175
1531.458618	396.682739
1530.594971	367.664429
1529.731323	344.445068
1528.867432	353.067688
1528.003418	358.793823
1527.139282	381.875946
1526.275024	347.100098
1525.410522	312.336212
1524.545898	358.546417
1523.681152	361.375580
1522.816284	358.422729
1521.951172	384.371002
1521.086060	349.630585
1520.220703	364.015320
1519.355225	361.063995
1518.489502	349.449646
1517.623779	372.489502
1516.757813	389.747314
1515.891724	357.928345
1515.025513	360.752594
1514.159058	337.606171
1513.292480	328.892822
1512.425781	354.796783
1511.558960	340.315399
1510.692017	320.071930
1509.824829	334.431824
1508.957520	403.554932
1508.090088	334.316345
1507.222534	389.007874
1506.354736	383.178619
1505.486938	388.873535
1504.618896	345.605652
1503.750610	342.666412
1502.882324	359.881531
1502.013794	348.305145
1501.145142	365.513336
1500.276367	353.939941
1499.407471	397.034729
1498.538330	382.583282
1497.669067	385.393250
1496.799683	359.446503
1495.930176	350.759155
1495.060547	370.820557
1494.190674	393.749115
1493.320679	382.186707
1492.450562	367.755219
1491.580200	384.927185
1490.709717	419.325745
1489.839233	361.821289
1488.968384	347.403229
1488.097534	384.661011
1487.226440	378.854279
1486.355347	421.832916
1485.483887	430.367310
1484.612427	433.161469
1483.740845	395.800934
1482.869019	415.805847
1481.997070	438.670959
1481.124878	455.794861
1480.252686	444.251434
1479.380249	447.040192
1478.507690	418.311371
1477.635010	438.291534
1476.762207	478.313843
1475.889160	501.140320
1475.015991	509.643036
1474.142700	503.829468
1473.269165	529.501831
1472.395630	600.952026
1471.521851	537.901978
1470.647949	632.211487
1469.773804	663.564087
1468.899658	657.729736
1468.025269	703.363037
1467.150757	746.121765
1466.276001	751.708923
1465.401245	817.306091
1464.526245	837.165039
1463.651123	862.730530
1462.775879	865.437256
1461.900391	948.103577
1461.024780	979.346924
1460.149048	902.099060
1459.273193	879.108765
1458.397217	947.446472
1457.520996	913.043152
1456.644653	907.179321
1455.768188	949.806091
1454.891479	809.904419
1454.014648	866.789612
1453.137695	849.534607
1452.260620	775.279663
1451.383423	834.990967
1450.505981	820.599609
1449.628418	794.817993
1448.750732	848.798157
1447.872803	817.324890
1446.994873	868.434998
1446.116699	882.518494
1445.238403	947.831177
1444.359863	990.354431
1443.481201	1010.100037
1442.602417	1035.528442
1441.723511	1191.788818
1440.844482	1342.307129
1439.965210	1492.773071
1439.085815	1515.257080
1438.206299	1506.466797
1437.326538	1489.153931
1436.446777	1511.626587
1435.566772	1335.227661
1434.686646	1192.974976
1433.806274	1030.892212
1432.925781	1013.676575
1432.045166	843.164307
1431.164429	817.471863
1430.283569	769.084717
1429.402466	703.689575
1428.521240	649.664978
1427.639893	638.206238
1426.758301	584.211731
1425.876709	623.807007
1424.994873	558.493774
1424.112793	564.065735
1423.230713	563.967712
1422.348389	561.036133
1421.465942	572.270691
1420.583374	546.678467
1419.700562	606.056213
1418.817627	637.097900
1417.934570	724.749756
1417.051392	764.251587
1416.167969	962.223572
1415.284546	1001.670288
1414.400757	947.743469
1413.516968	919.292725
1412.633057	746.618652
1411.748901	647.522461
1410.864624	571.077637
1409.980103	525.752319
1409.095459	435.224548
1408.210815	452.102692
1407.325806	409.646759
1406.440796	446.296021
1405.555542	384.086700
1404.670166	409.432922
1403.784668	383.953003
1402.899048	392.354248
1402.013184	352.775146
1401.127197	386.574219
1400.241089	347.009857
1399.354736	372.335999
1398.468262	366.630676
1397.581665	391.944550
1396.694946	383.418518
1395.807983	377.714233
1394.920898	326.919556
1394.033691	355.040405
1393.146362	352.161285
1392.258789	374.634308
1391.371094	321.059174
1390.483276	351.977234
1389.595337	343.469940
1388.707153	360.299103
1387.818848	365.864990
1386.930420	365.801239
1386.041748	329.163727
1385.152954	340.357849
1384.264038	351.548065
1383.375000	379.605713
1382.485718	379.539551
1381.596313	387.906097
1380.706787	365.355072
1379.817139	348.431763
1378.927246	382.084320
1378.037231	356.737122
1377.147095	367.908752
1376.256714	381.884460
1375.366333	373.395386
1374.475586	381.751221
1373.584839	432.201721
1372.693970	420.902252
1371.802856	423.634338
1370.911499	403.925140
1370.020142	429.095581
1369.128540	479.493713
1368.236816	426.142242
1367.344971	448.492493
1366.453003	420.388306
1365.560791	448.335938
1364.668457	456.662506
1363.775879	378.151367
1362.883301	380.885986
1361.990479	375.219177
1361.097534	347.157104
1360.204346	372.288971
1359.311035	361.029236
1358.417603	391.746246
1357.524048	380.487030
1356.630249	330.070770
1355.736450	380.354095
1354.842285	341.140411
1353.948120	380.221222
1353.053711	299.092346
1352.159180	394.062164
1351.264526	354.873413
1350.369751	368.780334
1349.474731	385.475708
1348.579590	365.858612
1347.684204	382.548615
1346.788818	368.522552
1345.893188	379.623535
1344.997314	346.066803
1344.101440	351.587067
1343.205322	354.315460
1342.309082	370.989868
1341.412720	390.447357
1340.516113	356.918030
1339.619385	398.674591
1338.722534	328.918701
1337.825439	365.091614
1336.928223	342.735992
1336.030884	356.605927
1335.133423	328.688568
1334.235718	364.836182
1333.337891	336.927124
1332.439941	375.844635
1331.541870	367.428192
1330.643555	381.279205
1329.745117	367.299591
1328.846436	370.017365
1327.947754	347.699799
1327.048828	339.295593
1326.149780	372.603699
1325.250488	400.339813
1324.351074	383.591797
1323.451538	386.303802
1322.551880	394.572174
1321.651978	383.390289
1320.751953	402.767059
1319.851807	363.815460
1318.951416	419.286346
1318.050903	391.450439
1317.150269	413.587921
1316.249512	438.492889
1315.348511	371.821198
1314.447388	413.370514
1313.546021	477.095764
1312.644653	440.958893
1311.743042	471.382843
1310.841309	443.576691
1309.939331	390.833405
1309.037231	496.077423
1308.135010	468.281464
1307.232666	451.576904
1306.330078	448.727783
1305.427368	492.960114
1304.524536	443.032501
1303.621460	476.176422
1302.718262	501.004730
1301.814941	622.686707
1300.911499	594.907349
1300.007813	650.133484
1299.104004	666.615662
1298.199951	782.651978
1297.295898	884.822205
1296.391602	1188.771118
1295.487061	1699.920776
1294.582520	2116.928223
1293.677734	2365.238037
1292.772827	2182.488525
1291.867676	1632.435791
1290.962402	1170.949707
1290.057007	839.401428
1289.151489	706.740234
1288.245728	568.605164
1287.339844	551.946899
1286.433838	474.590973
1285.527588	455.196259
1284.621216	449.599731
1283.714722	372.302460
1282.808105	350.178589
1281.901245	350.117065
1280.994263	361.080902
1280.087036	336.214752
1279.179810	311.357300
1278.272217	327.831909
1277.364624	344.300751
1276.456787	319.454926
1275.548828	313.891907
1274.640747	297.319000
1273.732544	311.029083
1272.824097	343.998230
1271.915405	302.665222
1271.006714	324.620148
1270.097778	308.059875
1269.188721	280.505188
1268.279541	329.948059
1267.370117	299.650116
1266.460571	288.602997
1265.550781	263.819183
1264.640991	337.958862
1263.730957	329.657959
1262.820679	263.679962
1261.910400	288.349213
1260.999878	291.044189
1260.089233	274.521667
1259.178345	274.473358
1258.267334	249.726791
1257.356201	290.839355
1256.444824	271.585175
1255.533447	249.594940
1254.621704	260.520264
1253.709961	296.118286
1252.797974	252.204483
1251.885864	232.973984
1250.973633	268.557983
1250.061157	221.932312
1249.148560	284.899933
1248.235840	221.854141
1247.322876	268.368835
1246.409790	246.417770
1245.496582	251.849335
1244.583130	279.175079
1243.669556	265.443237
1242.755859	216.147644
1241.841919	218.845108
1240.927856	262.567841
1240.013672	257.052368
1239.099365	243.336487
1238.184814	254.228134
1237.270142	251.450165
1236.355225	226.811783
1235.440186	256.825897
1234.525024	207.609848
1233.609741	210.304474
1232.694214	223.921112
1231.778564	207.500031
1230.862671	221.112350
1229.946777	237.449158
1229.030640	231.949631
1228.114258	267.377106
1227.197876	231.867798
1226.281128	237.281647
1225.364380	223.605301
1224.447388	220.839432
1223.530273	237.156052
1222.613037	248.016006
1221.695557	239.797333
1220.777954	207.061142
1219.860229	231.540649
1218.942261	242.393890
1218.024170	239.628052
1217.105957	261.366272
1216.187500	269.486359
1215.268921	266.717194
1214.350220	255.785583
1213.431274	244.857849
1212.512207	217.612976
1211.593018	225.733582
1210.673706	201.220901
1209.754150	212.060242
1208.834351	187.558609
1207.914551	250.033966
1206.994507	228.251541
1206.074219	255.379211
1205.153931	206.440323
1204.233398	206.403839
1203.312744	228.090240
1202.391846	217.190399
1201.470825	195.436813
1200.549683	200.830109
1199.628296	249.636536
1198.706787	225.175751
1197.785156	244.123306
1196.863281	254.928146
1195.941284	238.613937
1195.019165	216.883392
1194.096802	230.397842
1193.174438	235.777267
1192.251709	203.220306
1191.328979	216.729980
1190.406006	235.652161
1189.482788	259.983978
1188.559570	189.538101
1187.636108	230.112686
1186.712402	224.658508
1185.788696	238.149994
1184.864746	224.578995
1183.940552	224.539246
1183.016357	265.071686
1182.091919	240.685760
1181.167236	248.754715
1180.242554	237.897171
1179.317505	221.637650
1178.392456	240.515350
1177.467163	240.472748
1176.541748	199.908234
1175.616211	243.088577
1174.690430	261.949066
1173.764526	261.902649
1172.838501	294.250854
1171.912231	323.888489
1170.985840	318.433929
1170.059204	396.622833
1169.132446	437.017090
1168.205566	504.368591
1167.278564	407.198730
1166.351318	404.430359
1165.423828	358.531372
1164.496338	283.000885
1163.568604	293.729797
1162.640747	280.206268
1161.712646	253.218460
1160.784424	242.400223
1159.856079	269.285828
1158.927490	255.776169
1157.998779	271.882233
1157.069946	263.759735
1156.140869	234.112503
1155.211670	209.856735
1154.282349	231.339462
1153.352783	260.883118
1152.423096	201.677948
1151.493164	279.610474
1150.563232	258.056183
1149.632935	217.696259
1148.702637	249.903198
1147.772095	263.292114
1146.841431	239.069794
1145.910522	247.084457
1144.979492	230.929245
1144.048340	230.888245
1143.116943	244.268616
1142.185425	244.225235
1141.253784	257.598450
1140.321899	270.966919
1139.389893	281.648254
1138.457764	268.188782
1137.525391	340.539246
1136.592896	305.626617
1135.660278	327.015991
1134.727417	353.757721
1133.794434	482.311188
1132.861206	535.806091
1131.927856	747.316711
1130.994385	956.073975
1130.060669	1210.276367
1129.126831	1424.231323
1128.192871	1490.894409
1127.258667	1423.725098
1126.324341	1236.172974
1125.389893	997.858337
1124.455200	818.472839
1123.520386	649.848145
1122.585327	553.475891
1121.650146	467.831207
1120.714844	430.328156
1119.779297	379.476593
1118.843628	371.393402
1117.907837	307.213257
1116.971802	325.855225
1116.035645	331.138184
1115.099365	291.029358
1114.162842	266.951904
1113.226196	285.587708
1112.289307	314.891144
1111.352417	293.490356
1110.415161	298.773346
1109.477905	240.042999
1108.540405	290.666992
1107.602661	258.620911
1106.664917	231.917664
1105.726807	274.520294
1104.788696	247.823700
1103.850342	266.429657
1102.911865	293.020416
1101.973145	261.008057
1101.034302	268.950195
1100.095337	290.201477
1099.156128	252.882843
1098.216797	242.191986
1097.277344	271.419586
1096.337646	255.408203
1095.397827	263.342773
1094.457764	292.550934
1093.517700	231.339966
1092.577271	263.202026
1091.636841	303.027100
1090.696167	292.342438
1089.755249	268.375671
1088.814209	294.894928
1087.873047	318.748474
1086.931763	308.068604
1085.990234	286.771332
1085.048584	289.375031
1084.106689	329.138550
1083.164673	289.271820
1082.222412	336.981354
1081.280151	363.450470
1080.337524	342.166046
1079.394897	307.629303
1078.452026	304.922913
1077.509033	323.425720
1076.565796	310.115204
1075.622437	307.409790
1074.678955	368.295990
1073.735229	331.142334
1072.791382	309.893890
1071.847290	323.079529
1070.903076	320.374146
1069.958740	330.905945
1069.014160	344.080719
1068.069458	402.237946
1067.124512	425.978577
1066.179565	505.263214
1065.234253	653.286560
1064.288940	856.789612
1063.343384	1128.962402
1062.397583	1239.786377
1061.451660	1332.069702
1060.505615	1315.976563
1059.559448	1125.513794
1058.613037	935.119019
1057.666382	771.203247
1056.719727	633.752441
1055.772827	501.630981
1054.825684	395.953674
1053.878418	351.016174
1052.931030	308.733459
1051.983398	300.763458
1051.035645	303.347473
1050.087769	282.194580
1049.139648	250.501801
1048.191406	216.183929
1047.242920	250.412216
1046.294312	245.096527
1045.345581	181.813293
1044.396606	263.450378
1043.447510	237.062927
1042.498291	229.119843
1041.548828	234.345032
1040.599121	223.772614
1039.649414	239.525467
1038.699341	218.429184
1037.749268	184.184418
1036.798950	263.073517
1035.848511	199.900085
1034.897827	220.902649
1033.947021	234.009705
1032.996094	215.565857
1032.044922	199.756973
1031.093506	204.977020
1030.142090	225.959839
1029.190430	233.800293
1028.238525	173.348938
1027.286499	189.074066
1026.334351	223.172455
1025.381958	215.257217
1024.429443	209.969421
1023.476807	220.428391
1022.523926	194.152115
1021.570923	204.610168
1020.617737	215.064438
1019.664368	180.936432
1018.710815	217.609161
1017.757080	209.706177
1016.803223	196.564301
1015.849121	201.769836
1014.894897	227.932846
1013.940491	214.794739
1012.985962	222.613174
1012.031189	199.006668
1011.076294	206.825104
1010.121216	183.229889
1009.165955	219.836426
1008.210510	193.630692
1007.254944	193.595963
1006.299133	251.106461
1005.343201	203.987396
1004.387085	201.336044
1003.430786	206.528488
1002.474365	193.422348
1001.517700	196.000992
1000.560913	190.740051
999.603943	175.031372
998.646790	193.283539
997.689514	172.357071
996.731995	185.381149
995.774353	198.400528
994.816528	180.094452
993.858521	190.500504
992.900330	198.293671
991.942017	221.735992
990.983459	203.438843
990.024780	190.363693
989.065918	169.471466
988.106873	192.902100
987.147705	216.324295
986.188293	211.073730
985.228760	190.192764
984.269043	200.578232
983.309143	192.728867
982.349060	200.506149
981.388794	182.245560
980.428406	195.228012
979.467834	210.808350
978.507019	228.985184
977.546082	223.740753
976.585022	215.897018
975.623718	208.056091
974.662292	187.216812
973.700623	176.784088
972.738831	207.943878
971.776855	207.906479
970.814758	176.688721
969.852417	189.646408
968.889954	189.612305
967.927246	163.608566
966.964417	186.947586
966.001404	181.721893
965.038208	202.453674
964.074890	197.227051
963.111328	217.948563
962.147644	220.503494
961.183777	199.714279
960.219727	212.644440
959.255493	194.456863
958.291077	191.829559
957.326538	217.713272
956.361755	171.029617
955.396851	196.907745
954.431763	186.510574
953.466492	176.117157
952.501038	181.264420
951.535461	181.231766
950.569641	214.850388
949.603699	199.283127
948.637573	207.010101
947.671265	186.275528
946.704773	175.895187
945.738098	193.967087
944.771240	212.032455
943.804260	199.067764
942.837097	206.786377
941.869751	206.749100
940.902222	204.127930
939.934509	165.339645
938.966614	216.969162
937.998535	196.270035
937.030334	211.726852
936.061951	211.688675
935.093323	211.650497
934.124573	209.031677
933.155640	180.612076
932.186584	234.753357
931.217285	268.241150
930.247864	180.514359
929.278198	193.373337
928.308411	164.982147
927.338440	206.190460
926.368286	195.845596
925.397949	193.233795
924.427429	270.478485
923.456787	216.343735
922.485901	231.755005
921.514893	223.989395
920.543701	172.466446
919.572327	208.466553
918.600769	218.721695
917.629028	246.982254
916.657104	223.787247
915.685059	228.890427
914.712769	249.419785
913.740356	210.811630
912.767761	228.766418
911.794983	259.564423
910.822021	249.239609
909.848877	200.383255
908.875549	220.895462
907.902039	215.719376
906.928406	233.653748
905.954590	272.118927
904.980530	223.302521
904.006348	197.599838
903.031982	236.050629
902.057434	210.354904
901.082703	210.316879
900.107849	251.308868
899.132751	228.188217
898.157532	235.837296
897.182068	248.609558
896.206482	210.126770
895.230713	243.395523
894.254761	251.036270
893.278625	225.379547
892.302307	233.020767
891.325806	256.020447
890.349182	261.093597
889.372314	235.453583
888.395325	253.322662
887.418091	222.576599
886.440735	235.325760
885.463196	217.381180
884.485474	276.151978
883.507568	242.867477
882.529480	230.043320
881.551270	235.112808
880.572815	258.066223
879.594238	204.371887
878.615417	245.201843
877.636475	245.157425
876.657349	252.772812
875.677979	247.621414
874.698486	257.785889
873.718811	227.116714
872.739014	265.346741
871.758972	272.951508
870.778748	295.856415
869.798401	244.802307
868.817810	247.307495
867.837097	209.026184
866.856140	229.377396
865.875061	224.239456
864.893799	254.771362
863.912354	257.272430
862.930725	282.693665
861.948914	269.910767
860.966919	257.132507
859.984741	251.995056
859.002441	231.589798
858.019897	239.181244
857.037231	246.769913
856.054321	223.833115
855.071289	267.025146
854.088074	244.092987
853.104614	223.711304
852.121033	251.629547
851.137268	274.455139
850.153320	243.915848
849.169189	246.411911
848.184937	251.446915
847.200439	228.546600
846.215759	271.667175
845.230896	238.617569
844.245911	187.813766
843.260681	233.455795
842.275330	228.339188
841.289795	251.127487
840.304016	253.618057
839.318115	248.500549
838.332031	235.779114
837.345764	230.666687
836.359314	243.296463
835.372681	278.726563
834.385864	220.407303
833.398865	233.032043
832.411743	220.327209
831.424377	238.011414
830.436829	240.499725
829.449158	220.207092
828.461243	258.126892
827.473206	253.019577
826.484924	273.211456
825.496521	235.222641
824.507935	232.651047
823.519104	242.722168
822.530151	222.454849
821.541016	265.380798
820.551697	232.481842
819.562195	234.966064
818.572510	239.975433
817.582642	234.880585
816.592590	207.061325
815.602356	247.418503
814.611938	254.946136
813.621399	222.090866
812.630615	242.236847
811.639648	262.375488
810.648560	247.193436
809.657227	234.538818
808.665771	252.146378
807.674072	226.890411
806.682251	224.328552
805.690186	259.568909
804.697998	249.443146
803.705566	261.993561
802.713013	221.646484
801.720276	236.715607
800.727356	241.708069
799.734253	249.216049
798.740906	276.856262
797.747437	236.543152
796.753784	261.659637
795.759949	221.363953
794.765930	259.049225
793.771729	243.914520
792.777344	256.440674
791.782776	268.962280
790.788025	208.596252
789.793091	218.609222
788.798035	248.716858
787.802734	241.136017
786.807251	268.717163
785.811584	236.026230
784.815796	261.087799
783.819763	248.490158
782.823547	253.463913
781.827148	238.363159
780.830627	225.776535
779.833862	245.800705
778.836975	243.248154
777.839844	235.681992
776.842529	250.679779
775.845093	225.570618
774.847412	268.129456
773.849609	240.520844
772.851563	242.981903
771.853394	227.910477
770.854980	227.868866
769.856445	230.330872
768.857666	232.791946
767.858765	265.284302
766.859680	262.733643
765.860352	212.650284
764.860901	242.627182
763.861206	262.589691
762.861389	250.039734
761.861389	269.993591
760.861145	249.948380
759.860779	252.401749
758.860168	247.358475
757.859436	237.320816
756.858521	202.310242
755.857361	272.194885
754.856079	277.138641
753.854614	264.606537
752.852905	242.095673
751.851074	257.023651
750.848999	281.925873
749.846802	274.390930
748.844421	271.846741
747.841797	274.290558
746.839050	216.899231
745.836121	254.249130
744.832947	269.155731
743.829651	256.647858
742.826111	256.600891
741.822449	261.535583
740.818604	271.449158
739.814514	283.848999
738.810303	238.987000
737.805847	253.877213
736.801270	313.555634
735.796448	288.617432
734.791504	278.614075
733.786316	276.075928
732.781006	305.865936
731.775452	248.625977
730.769775	298.296539
729.763855	288.300507
728.757751	300.672180
727.751526	293.163788
726.745056	265.786285
725.738403	280.638763
724.731628	265.688904
723.724609	270.605469
722.717407	300.341858
721.710083	268.024597
720.702515	295.269287
719.694763	262.964783
718.686829	310.043152
717.678711	307.506439
716.670410	292.573456
715.661987	307.393707
714.653320	267.680908
713.644470	302.324860
712.635437	265.105133
711.626221	274.965179
710.616821	297.205139
709.607178	307.055664
708.597412	267.386536
707.587463	259.911438
706.577332	289.562469
705.567017	287.034912
704.556458	259.768433
703.545776	289.403137
702.534912	272.038483
701.523804	276.933807
700.512573	281.827332
699.501099	274.360474
698.489502	284.195160
697.477661	284.142975
696.465698	276.679749
695.453491	311.207581
694.441101	259.292023
693.428589	261.713409
692.415833	291.287842
691.402893	281.362000
690.389771	313.389587
689.376465	281.258667
688.362976	303.407562
687.349304	300.885529
686.335449	253.979645
685.321411	288.448151
684.307190	278.535492
683.292725	261.233063
682.278137	335.105347
681.263367	312.871765
680.248352	325.129761
679.233215	312.756744
678.217834	327.472443
677.202332	320.027008
676.186584	324.890778
675.170654	290.379242
674.154541	317.390137
673.138306	312.411896
672.121826	275.462189
671.105164	255.739273
670.088318	280.278015
669.071289	270.393951
668.054016	275.259552
667.036621	299.781158
666.019043	314.466614
665.001282	314.408752
663.983276	267.689423
662.965149	284.828064
661.946777	267.590912
660.928223	331.358948
659.909546	319.027649
658.890625	318.968933
657.871521	343.441742
656.852234	311.493378
655.832764	321.245026
654.813110	365.318268
653.793274	303.967285
652.773254	299.009491
651.752991	321.008453
650.732605	306.249359
649.711975	306.192932
648.691223	330.627441
647.670227	328.117889
646.649048	352.539337
645.627747	332.892456
644.606201	320.594666
643.584473	345.003967
642.562561	322.922913
641.540466	320.417450
640.518127	335.031281
639.495667	356.974823
638.473022	347.130676
637.450134	388.616913
636.427063	349.446350
635.403870	349.381927
634.380432	329.775238
633.356812	327.272095
632.333008	351.630524
631.309021	373.538513
630.284851	390.556458
629.260498	344.114380
628.235901	368.451660
627.211182	412.296967
626.186218	436.612640
625.161133	421.899719
624.135803	399.877350
623.110291	409.554840
622.084595	421.666138
621.058716	414.277527
620.032654	426.383423
619.006409	431.176758
617.979919	448.146179
616.953308	445.628296
615.926453	499.108917
614.899414	523.359009
613.872253	489.189453
612.844849	481.799103
611.817261	467.112823
610.789490	471.891388
609.761475	428.028564
608.733337	466.853973
607.705017	486.216370
606.676453	435.083221
605.647705	432.572632
604.618774	427.633209
603.589722	480.998444
602.560425	449.334656
601.530884	432.252899
600.501221	454.024414
599.471375	463.650421
598.441284	456.283569
597.411011	448.919434
596.380615	422.148834
595.349976	419.645050
594.319153	414.716949
593.288147	387.967468
592.256897	431.533966
591.225525	460.540924
590.193970	428.950867
589.162170	377.988434
588.130188	421.524475
587.098022	368.160126
586.065674	370.513641
585.033142	380.129913
584.000427	370.376495
582.967468	367.887604
581.934387	440.415466
580.901062	375.009674
579.867554	387.035065
578.833862	420.822693
577.799988	382.055603
576.765930	384.402466
575.731628	396.417145
574.697205	396.343719
573.662537	389.021454
572.627747	401.028564
571.592712	340.569580
570.557434	371.900696
569.522034	386.318726
568.486450	391.075226
567.450623	362.039581
566.414673	393.343445
565.378479	405.334045
564.342102	390.785370
563.305542	412.419189
562.268799	412.342743
561.231812	409.855377
560.194702	424.242157
559.157349	424.163513
558.119812	428.903992
557.082092	419.187927
556.044189	404.658112
555.006042	392.541870
553.967773	409.323547
552.929260	380.359558
551.890625	401.951019
550.851746	425.940887
549.812683	413.831848
548.773376	461.866089
547.733948	416.083344
546.694275	416.006134
545.654419	435.162598
544.614441	430.274292
543.574158	459.034271
542.533752	437.323151
541.493164	425.229828
540.452332	396.327057
539.411316	449.087250
538.370178	412.987488
537.328735	417.712097
536.287170	429.635498
535.245422	429.555664
534.203430	453.468933
533.161255	446.188110
532.118896	441.308350
531.076355	436.430420
530.033630	455.529510
528.990723	426.679901
527.947571	440.980408
526.904236	457.671722
525.860718	438.420715
524.817017	469.478058
523.773132	426.283478
522.729004	464.514679
521.684692	497.943756
520.640198	435.619751
519.595520	471.434814
518.550659	445.028229
517.505615	449.729828
516.460327	416.161865
515.414856	463.910248
514.369202	430.352112
513.323364	494.812836
512.277283	456.481476
511.231079	437.280457
510.184631	461.089722
509.138000	446.672180
508.091187	437.036316
507.044159	427.404053
505.996948	487.006683
504.949554	455.887024
503.901947	443.870148
502.854126	455.717285
501.806152	453.246918
500.757965	484.168335
499.709564	488.847412
