3.992094e+002,0.000000e+000
4.011380e+002,0.000000e+000
4.030665e+002,0.000000e+000
4.049951e+002,0.000000e+000
4.069236e+002,0.000000e+000
4.088522e+002,0.000000e+000
4.107807e+002,0.000000e+000
4.127093e+002,0.000000e+000
4.146378e+002,0.000000e+000
4.165664e+002,0.000000e+000
4.184949e+002,0.000000e+000
4.204235e+002,0.000000e+000
4.223520e+002,0.000000e+000
4.242806e+002,0.000000e+000
4.262091e+002,0.000000e+000
4.281377e+002,0.000000e+000
4.300662e+002,0.000000e+000
4.319948e+002,0.000000e+000
4.339233e+002,0.000000e+000
4.358519e+002,0.000000e+000
4.377804e+002,0.000000e+000
4.397090e+002,0.000000e+000
4.416375e+002,0.000000e+000
4.435660e+002,0.000000e+000
4.454946e+002,0.000000e+000
4.474232e+002,0.000000e+000
4.493517e+002,0.000000e+000
4.512802e+002,0.000000e+000
4.532088e+002,0.000000e+000
4.551373e+002,0.000000e+000
4.570659e+002,0.000000e+000
4.589944e+002,0.000000e+000
4.609230e+002,0.000000e+000
4.628515e+002,0.000000e+000
4.647801e+002,0.000000e+000
4.667086e+002,0.000000e+000
4.686372e+002,0.000000e+000
4.705657e+002,0.000000e+000
4.724943e+002,0.000000e+000
4.744228e+002,0.000000e+000
4.763514e+002,0.000000e+000
4.782799e+002,0.000000e+000
4.802085e+002,0.000000e+000
4.821370e+002,0.000000e+000
4.840656e+002,0.000000e+000
4.859941e+002,0.000000e+000
4.879226e+002,0.000000e+000
4.898512e+002,0.000000e+000
4.917798e+002,0.000000e+000
4.937083e+002,0.000000e+000
4.956368e+002,0.000000e+000
4.975654e+002,0.000000e+000
4.994939e+002,0.000000e+000
5.014225e+002,0.000000e+000
5.033510e+002,0.000000e+000
5.052796e+002,0.000000e+000
5.072081e+002,0.000000e+000
5.091367e+002,0.000000e+000
5.110652e+002,0.000000e+000
5.129938e+002,0.000000e+000
5.149223e+002,0.000000e+000
5.168509e+002,0.000000e+000
5.187794e+002,0.000000e+000
5.207079e+002,0.000000e+000
5.226365e+002,0.000000e+000
5.245651e+002,0.000000e+000
5.264936e+002,0.000000e+000
5.284221e+002,0.000000e+000
5.303507e+002,0.000000e+000
5.322792e+002,0.000000e+000
5.342078e+002,0.000000e+000
5.361364e+002,0.000000e+000
5.380649e+002,0.000000e+000
5.399934e+002,0.000000e+000
5.419220e+002,0.000000e+000
5.438505e+002,0.000000e+000
5.457791e+002,0.000000e+000
5.477076e+002,0.000000e+000
5.496362e+002,0.000000e+000
5.515647e+002,0.000000e+000
5.534933e+002,0.000000e+000
5.554218e+002,0.000000e+000
5.573503e+002,0.000000e+000
5.592789e+002,0.000000e+000
5.612075e+002,0.000000e+000
5.631360e+002,0.000000e+000
5.650646e+002,0.000000e+000
5.669931e+002,0.000000e+000
5.689216e+002,0.000000e+000
5.708502e+002,0.000000e+000
5.727787e+002,0.000000e+000
5.747073e+002,0.000000e+000
5.766359e+002,0.000000e+000
5.785644e+002,0.000000e+000
5.804929e+002,0.000000e+000
5.824215e+002,0.000000e+000
5.843500e+002,0.000000e+000
5.862786e+002,0.000000e+000
5.882072e+002,0.000000e+000
5.901357e+002,0.000000e+000
5.920642e+002,0.000000e+000
5.939928e+002,0.000000e+000
5.959213e+002,0.000000e+000
5.978499e+002,0.000000e+000
5.997784e+002,0.000000e+000
6.017070e+002,0.000000e+000
6.036355e+002,0.000000e+000
6.055641e+002,0.000000e+000
6.074926e+002,0.000000e+000
6.094211e+002,0.000000e+000
6.113497e+002,0.000000e+000
6.132783e+002,0.000000e+000
6.152068e+002,0.000000e+000
6.171354e+002,0.000000e+000
6.190639e+002,0.000000e+000
6.209924e+002,0.000000e+000
6.229210e+002,0.000000e+000
6.248495e+002,0.000000e+000
6.267781e+002,0.000000e+000
6.287067e+002,0.000000e+000
6.306352e+002,0.000000e+000
6.325637e+002,0.000000e+000
6.344923e+002,0.000000e+000
6.364208e+002,0.000000e+000
6.383494e+002,0.000000e+000
6.402780e+002,0.000000e+000
6.422065e+002,0.000000e+000
6.441350e+002,0.000000e+000
6.460636e+002,0.000000e+000
6.479921e+002,0.000000e+000
6.499207e+002,0.000000e+000
6.518492e+002,0.000000e+000
6.537778e+002,0.000000e+000
6.557063e+002,0.000000e+000
6.576349e+002,0.000000e+000
6.595634e+002,0.000000e+000
6.614919e+002,0.000000e+000
6.634205e+002,0.000000e+000
6.653491e+002,0.000000e+000
6.672776e+002,0.000000e+000
6.692062e+002,0.000000e+000
6.711347e+002,0.000000e+000
6.730632e+002,0.000000e+000
6.749918e+002,6.991561e-003
6.769203e+002,7.124955e-003
6.788489e+002,7.214828e-003
6.807775e+002,6.804689e-003
6.827060e+002,6.636839e-003
6.846345e+002,7.320288e-003
6.865631e+002,7.262771e-003
6.884916e+002,6.938396e-003
6.904202e+002,6.963479e-003
6.923488e+002,7.272474e-003
6.942773e+002,6.943379e-003
6.962058e+002,6.972705e-003
6.981344e+002,7.440839e-003
7.000629e+002,7.681100e-003
7.019915e+002,8.012104e-003
7.039200e+002,8.458286e-003
7.058486e+002,8.790018e-003
7.077771e+002,9.416456e-003
7.097057e+002,1.078419e-002
7.116342e+002,1.321156e-002
7.135627e+002,1.712504e-002
7.154913e+002,2.401701e-002
7.174199e+002,3.379609e-002
7.193484e+002,3.654238e-002
7.212770e+002,2.574086e-002
7.232055e+002,1.572990e-002
7.251340e+002,1.291511e-002
7.270626e+002,1.493525e-002
7.289911e+002,2.071406e-002
7.309197e+002,2.143797e-002
7.328483e+002,1.213891e-002
7.347768e+002,4.324444e-003
7.367053e+002,1.269629e-003
7.386339e+002,3.909993e-005
7.405624e+002,-4.777666e-005
7.424910e+002,7.718803e-004
7.444196e+002,3.024512e-003
7.463481e+002,6.411548e-003
7.482766e+002,9.139939e-003
7.502052e+002,9.906488e-003
7.521337e+002,8.519948e-003
7.540623e+002,6.212791e-003
7.559908e+002,3.902012e-003
7.579194e+002,2.566777e-003
7.598479e+002,1.989444e-003
7.617765e+002,1.665059e-003
7.637050e+002,1.456261e-003
7.656335e+002,1.709565e-003
7.675621e+002,2.164998e-003
7.694907e+002,2.134230e-003
7.714192e+002,1.751314e-003
7.733478e+002,1.349390e-003
7.752763e+002,5.948982e-004
7.772048e+002,-4.662107e-004
7.791334e+002,-1.816448e-003
7.810620e+002,-2.955319e-003
7.829905e+002,-3.663772e-003
7.849191e+002,-4.296244e-003
7.868476e+002,-4.975721e-003
7.887761e+002,-5.232620e-003
7.907047e+002,-5.092351e-003
7.926332e+002,-4.953544e-003
7.945618e+002,-4.825735e-003
7.964904e+002,-4.510590e-003
7.984189e+002,-3.990268e-003
8.003474e+002,-3.396541e-003
8.022760e+002,-2.999678e-003
8.042045e+002,-2.647705e-003
8.061331e+002,-2.378134e-003
8.080616e+002,-2.284108e-003
8.099902e+002,-2.434776e-003
8.119187e+002,-2.462123e-003
8.138473e+002,-2.886006e-003
8.157758e+002,-3.653456e-003
8.177043e+002,-4.046996e-003
8.196329e+002,-4.217858e-003
8.215615e+002,-4.409744e-003
8.234900e+002,-4.432441e-003
8.254186e+002,-4.255855e-003
8.273471e+002,-4.229967e-003
8.292756e+002,-4.635935e-003
8.312042e+002,-4.759637e-003
8.331328e+002,-4.651768e-003
8.350613e+002,-4.611511e-003
8.369899e+002,-4.024575e-003
8.389184e+002,-2.880477e-003
8.408469e+002,-1.895168e-003
8.427755e+002,-1.535266e-003
8.447040e+002,-1.708406e-003
8.466326e+002,-1.908991e-003
8.485612e+002,-2.461233e-003
8.504896e+002,-3.168914e-003
8.524182e+002,-3.769719e-003
8.543468e+002,-4.209754e-003
8.562753e+002,-4.502982e-003
8.582039e+002,-4.685827e-003
8.601324e+002,-4.921702e-003
8.620609e+002,-5.197525e-003
8.639895e+002,-5.436525e-003
8.659181e+002,-5.562584e-003
8.678466e+002,-5.831658e-003
8.697751e+002,-6.172797e-003
8.717037e+002,-6.353959e-003
8.736322e+002,-6.456967e-003
8.755608e+002,-6.553520e-003
8.774894e+002,-6.519380e-003
8.794178e+002,-6.623164e-003
8.813464e+002,-6.950345e-003
8.832750e+002,-7.295135e-003
8.852035e+002,-7.495502e-003
8.871321e+002,-7.532041e-003
8.890607e+002,-7.610546e-003
8.909891e+002,-7.667813e-003
8.929177e+002,-7.727676e-003
8.948463e+002,-7.729564e-003
8.967748e+002,-7.490356e-003
8.987034e+002,-7.085224e-003
9.006320e+002,-6.605215e-003
9.025604e+002,-6.121246e-003
9.044890e+002,-5.494701e-003
9.064176e+002,-4.648523e-003
9.083461e+002,-3.739071e-003
9.102747e+002,-3.113156e-003
9.122032e+002,-2.844236e-003
9.141317e+002,-2.755283e-003
9.160603e+002,-2.858983e-003
9.179889e+002,-3.239891e-003
9.199174e+002,-3.511624e-003
9.218459e+002,-3.688052e-003
9.237745e+002,-3.796358e-003
9.257030e+002,-3.717521e-003
9.276316e+002,-3.530128e-003
9.295602e+002,-3.317269e-003
9.314886e+002,-3.091674e-003
9.334172e+002,-3.002936e-003
9.353458e+002,-2.826690e-003
9.372743e+002,-2.634236e-003
9.392029e+002,-2.393687e-003
9.411315e+002,-1.961539e-003
9.430599e+002,-1.298171e-003
9.449885e+002,-4.846792e-004
9.469171e+002,1.598349e-004
9.488456e+002,6.205467e-004
9.507742e+002,1.145229e-003
9.527028e+002,1.811999e-003
9.546312e+002,2.730694e-003
9.565598e+002,3.828131e-003
9.584884e+002,5.153609e-003
9.604169e+002,6.455164e-003
9.623455e+002,7.566415e-003
9.642740e+002,8.587061e-003
9.662025e+002,9.466166e-003
9.681311e+002,9.685017e-003
9.700597e+002,9.141530e-003
9.719882e+002,8.120492e-003
9.739167e+002,7.070562e-003
9.758453e+002,6.448505e-003
9.777738e+002,6.399543e-003
9.797024e+002,6.952739e-003
9.816310e+002,7.888391e-003
9.835594e+002,8.728689e-003
9.854880e+002,9.307574e-003
9.874166e+002,9.714766e-003
9.893451e+002,1.001735e-002
9.912737e+002,1.006052e-002
9.932023e+002,9.768237e-003
9.951307e+002,9.003794e-003
9.970593e+002,7.783232e-003
9.989879e+002,6.036871e-003
1.000916e+003,4.161664e-003
1.002845e+003,2.500355e-003
1.004774e+003,1.056238e-003
1.006702e+003,6.802951e-005
1.008631e+003,-4.017631e-004
1.010559e+003,-5.553688e-004
1.012488e+003,-5.043715e-004
1.014416e+003,-2.987331e-004
1.016345e+003,1.144932e-004
1.018273e+003,5.077113e-004
1.020202e+003,7.955476e-004
1.022130e+003,9.781905e-004
1.024059e+003,1.154299e-003
1.025988e+003,1.382396e-003
1.027916e+003,1.700018e-003
1.029845e+003,1.805311e-003
1.031773e+003,1.871561e-003
1.033702e+003,2.134463e-003
1.035630e+003,2.531482e-003
1.037559e+003,2.919356e-003
1.039487e+003,3.293121e-003
1.041416e+003,3.622969e-003
1.043344e+003,4.006269e-003
1.045273e+003,4.486180e-003
1.047202e+003,5.127893e-003
1.049130e+003,6.046816e-003
1.051059e+003,7.234941e-003
1.052987e+003,8.693092e-003
1.054916e+003,1.058961e-002
1.056844e+003,1.277702e-002
1.058773e+003,1.468598e-002
1.060701e+003,1.606016e-002
1.062630e+003,1.692897e-002
1.064558e+003,1.736079e-002
1.066487e+003,1.744615e-002
1.068416e+003,1.733779e-002
1.070344e+003,1.725410e-002
1.072273e+003,1.723642e-002
1.074201e+003,1.721191e-002
1.076130e+003,1.729965e-002
1.078058e+003,1.740528e-002
1.079987e+003,1.745874e-002
1.081915e+003,1.765629e-002
1.083844e+003,1.795106e-002
1.085773e+003,1.839154e-002
1.087701e+003,1.897536e-002
1.089630e+003,1.964454e-002
1.091558e+003,2.036987e-002
1.093487e+003,2.123278e-002
1.095415e+003,2.211895e-002
1.097344e+003,2.294636e-002
1.099272e+003,2.372887e-002
1.101201e+003,2.454274e-002
1.103129e+003,2.542080e-002
1.105058e+003,2.632860e-002
1.106987e+003,2.729661e-002
1.108915e+003,2.844488e-002
1.110844e+003,2.969654e-002
1.112772e+003,3.097944e-002
1.114701e+003,3.230625e-002
1.116629e+003,3.379458e-002
1.118558e+003,3.530431e-002
1.120486e+003,3.667521e-002
1.122415e+003,3.805024e-002
1.124344e+003,3.957425e-002
1.126272e+003,4.125630e-002
1.128201e+003,4.334670e-002
1.130129e+003,4.609883e-002
1.132058e+003,4.976549e-002
1.133986e+003,5.447741e-002
1.135915e+003,6.031122e-002
1.137843e+003,6.712692e-002
1.139772e+003,7.476077e-002
1.141700e+003,8.316953e-002
1.143629e+003,9.180641e-002
1.145557e+003,9.964979e-002
1.147486e+003,1.054443e-001
1.149415e+003,1.078296e-001
1.151343e+003,1.063143e-001
1.153272e+003,1.013590e-001
1.155200e+003,9.462795e-002
1.157129e+003,8.769114e-002
1.159057e+003,8.145945e-002
1.160986e+003,7.649963e-002
1.162914e+003,7.285600e-002
1.164843e+003,7.023109e-002
1.166771e+003,6.839336e-002
1.168700e+003,6.706165e-002
1.170629e+003,6.608456e-002
1.172557e+003,6.537011e-002
1.174486e+003,6.485499e-002
1.176414e+003,6.438721e-002
1.178343e+003,6.354934e-002
1.180271e+003,6.242075e-002
1.182200e+003,6.157207e-002
1.184128e+003,6.141560e-002
1.186057e+003,6.208144e-002
1.187986e+003,6.342562e-002
1.189914e+003,6.473982e-002
1.191843e+003,6.495214e-002
1.193771e+003,6.377293e-002
1.195700e+003,6.132859e-002
1.197628e+003,5.779251e-002
1.199557e+003,5.373105e-002
1.201485e+003,4.977611e-002
1.203414e+003,4.617721e-002
1.205343e+003,4.285488e-002
1.207271e+003,3.989147e-002
1.209200e+003,3.752009e-002
1.211128e+003,3.567548e-002
1.213057e+003,3.419425e-002
1.214985e+003,3.296239e-002
1.216914e+003,3.214020e-002
1.218842e+003,3.185191e-002
1.220771e+003,3.177914e-002
1.222699e+003,3.189327e-002
1.224628e+003,3.254874e-002
1.226557e+003,3.379677e-002
1.228485e+003,3.552939e-002
1.230414e+003,3.768011e-002
1.232342e+003,4.024059e-002
1.234271e+003,4.294917e-002
1.236199e+003,4.555343e-002
1.238128e+003,4.779422e-002
1.240056e+003,4.927344e-002
1.241985e+003,4.985170e-002
1.243913e+003,4.942972e-002
1.245842e+003,4.804882e-002
1.247771e+003,4.600791e-002
1.249699e+003,4.357247e-002
1.251628e+003,4.115644e-002
1.253556e+003,3.923643e-002
1.255485e+003,3.790216e-002
1.257413e+003,3.710562e-002
1.259342e+003,3.679958e-002
1.261270e+003,3.683410e-002
1.263199e+003,3.702252e-002
1.265127e+003,3.720192e-002
1.267056e+003,3.750286e-002
1.268985e+003,3.791076e-002
1.270913e+003,3.829636e-002
1.272842e+003,3.833067e-002
1.274770e+003,3.740967e-002
1.276699e+003,3.537947e-002
1.278627e+003,3.249921e-002
1.280556e+003,2.916220e-002
1.282484e+003,2.588221e-002
1.284413e+003,2.303848e-002
1.286342e+003,2.056736e-002
1.288270e+003,1.832866e-002
1.290199e+003,1.640360e-002
1.292127e+003,1.471765e-002
1.294056e+003,1.322413e-002
1.295984e+003,1.205186e-002
1.297913e+003,1.124286e-002
1.299841e+003,1.062580e-002
1.301770e+003,1.004770e-002
1.303698e+003,9.460104e-003
1.305627e+003,8.955963e-003
1.307556e+003,8.521334e-003
1.309484e+003,8.110601e-003
1.311413e+003,7.681369e-003
1.313341e+003,7.371308e-003
1.315270e+003,7.195323e-003
1.317198e+003,7.078611e-003
1.319127e+003,7.066554e-003
1.321055e+003,7.133510e-003
1.322984e+003,7.259199e-003
1.324912e+003,7.410876e-003
1.326841e+003,7.570191e-003
1.328770e+003,7.805226e-003
1.330698e+003,8.048220e-003
1.332627e+003,8.289119e-003
1.334555e+003,8.417271e-003
1.336484e+003,8.489065e-003
1.338412e+003,8.590644e-003
1.340341e+003,8.600918e-003
1.342269e+003,8.495992e-003
1.344198e+003,8.363696e-003
1.346126e+003,8.312457e-003
1.348055e+003,8.295164e-003
1.349984e+003,8.324447e-003
1.351912e+003,8.402069e-003
1.353841e+003,8.481327e-003
1.355769e+003,8.582127e-003
1.357698e+003,8.799046e-003
1.359626e+003,9.106304e-003
1.361555e+003,9.464506e-003
1.363483e+003,9.933472e-003
1.365412e+003,1.034637e-002
1.367341e+003,1.061565e-002
1.369269e+003,1.082536e-002
1.371198e+003,1.097870e-002
1.373126e+003,1.117356e-002
1.375055e+003,1.159030e-002
1.376983e+003,1.215216e-002
1.378912e+003,1.259750e-002
1.380840e+003,1.270288e-002
1.382769e+003,1.238127e-002
1.384698e+003,1.186923e-002
1.386626e+003,1.129322e-002
1.388555e+003,1.049625e-002
1.390483e+003,9.462949e-003
1.392412e+003,8.300129e-003
1.394340e+003,7.268532e-003
1.396269e+003,6.547018e-003
1.398197e+003,5.967934e-003
1.400126e+003,5.417031e-003
1.402054e+003,4.913168e-003
1.403983e+003,4.364404e-003
1.405911e+003,3.869550e-003
1.407840e+003,3.643050e-003
1.409769e+003,3.709915e-003
1.411697e+003,4.118144e-003
1.413626e+003,4.799078e-003
1.415554e+003,5.609113e-003
1.417483e+003,6.509514e-003
1.419411e+003,7.602021e-003
1.421340e+003,9.051189e-003
1.423268e+003,1.100718e-002
1.425197e+003,1.372542e-002
1.427125e+003,1.741656e-002
1.429054e+003,2.194340e-002
1.430983e+003,2.667966e-002
1.432911e+003,3.059224e-002
1.434840e+003,3.264254e-002
1.436768e+003,3.282993e-002
1.438697e+003,3.205783e-002
1.440625e+003,3.143679e-002
1.442554e+003,3.149140e-002
1.444482e+003,3.216828e-002
1.446411e+003,3.309167e-002
1.448340e+003,3.391780e-002
1.450268e+003,3.436176e-002
1.452197e+003,3.452996e-002
1.454125e+003,3.472563e-002
1.456054e+003,3.512709e-002
1.457982e+003,3.628244e-002
1.459911e+003,3.902838e-002
1.461839e+003,4.035297e-002
1.463768e+003,3.714633e-002
1.465697e+003,3.407224e-002
1.467625e+003,3.336068e-002
1.469554e+003,3.365059e-002
1.471482e+003,3.503043e-002
1.473411e+003,3.306728e-002
1.475339e+003,2.671637e-002
1.477268e+003,2.226911e-002
1.479196e+003,2.024574e-002
1.481125e+003,1.885734e-002
1.483053e+003,1.775037e-002
1.484982e+003,1.682036e-002
1.486911e+003,1.573179e-002
1.488839e+003,1.410385e-002
1.490768e+003,1.204011e-002
1.492696e+003,1.011325e-002
1.494625e+003,8.809832e-003
1.496553e+003,8.270578e-003
1.498482e+003,8.604669e-003
1.500410e+003,9.634097e-003
1.502339e+003,1.113369e-002
1.504267e+003,1.294266e-002
1.506196e+003,1.509276e-002
1.508125e+003,1.734624e-002
1.510053e+003,1.942817e-002
1.511982e+003,2.144744e-002
1.513910e+003,2.328743e-002
1.515839e+003,2.481665e-002
1.517767e+003,2.596279e-002
1.519696e+003,2.660011e-002
1.521624e+003,2.693987e-002
1.523553e+003,2.687909e-002
1.525481e+003,2.641971e-002
1.527410e+003,2.588598e-002
1.529339e+003,2.526091e-002
1.531267e+003,2.467385e-002
1.533196e+003,2.428032e-002
1.535124e+003,2.413500e-002
1.537053e+003,2.408229e-002
1.538981e+003,2.402184e-002
1.540910e+003,2.373829e-002
1.542838e+003,2.317973e-002
1.544767e+003,2.253425e-002
1.546696e+003,2.189671e-002
1.548624e+003,2.125160e-002
1.550553e+003,2.055781e-002
1.552481e+003,1.985156e-002
1.554410e+003,1.912651e-002
1.556338e+003,1.824037e-002
1.558267e+003,1.722870e-002
1.560195e+003,1.625305e-002
1.562124e+003,1.531759e-002
1.564052e+003,1.438742e-002
1.565981e+003,1.340029e-002
1.567910e+003,1.244595e-002
1.569838e+003,1.153194e-002
1.571767e+003,1.068332e-002
1.573695e+003,9.817954e-003
1.575624e+003,8.854502e-003
1.577552e+003,7.795679e-003
1.579481e+003,6.482574e-003
1.581409e+003,5.083035e-003
1.583338e+003,3.857147e-003
1.585266e+003,2.787814e-003
1.587195e+003,1.786679e-003
1.589124e+003,1.025947e-003
1.591052e+003,5.210470e-004
1.592981e+003,1.979547e-004
1.594909e+003,3.615074e-005
1.596838e+003,-1.351848e-005
1.598766e+003,-6.295012e-005
1.600695e+003,-2.670521e-005
1.602623e+003,2.488748e-004
1.604552e+003,6.047858e-004
1.606480e+003,9.900462e-004
1.608409e+003,1.504469e-003
1.610338e+003,2.134263e-003
1.612266e+003,2.921625e-003
1.614195e+003,3.851397e-003
1.616123e+003,4.889678e-003
1.618052e+003,6.095436e-003
1.619980e+003,7.428200e-003
1.621909e+003,8.884328e-003
1.623837e+003,1.043831e-002
1.625766e+003,1.203013e-002
1.627695e+003,1.362219e-002
1.629623e+003,1.499218e-002
1.631552e+003,1.613849e-002
1.633480e+003,1.705973e-002
1.635409e+003,1.789281e-002
1.637337e+003,1.859626e-002
1.639266e+003,1.895366e-002
1.641194e+003,1.915605e-002
1.643123e+003,1.935132e-002
1.645052e+003,1.941951e-002
1.646980e+003,1.919189e-002
1.648909e+003,1.874057e-002
1.650837e+003,1.822240e-002
1.652766e+003,1.791726e-002
1.654694e+003,1.777937e-002
1.656623e+003,1.769412e-002
1.658551e+003,1.774326e-002
1.660480e+003,1.784831e-002
1.662408e+003,1.810697e-002
1.664337e+003,1.851807e-002
1.666266e+003,1.890444e-002
1.668194e+003,1.933182e-002
1.670123e+003,1.985738e-002
1.672051e+003,2.052852e-002
1.673980e+003,2.169478e-002
1.675908e+003,2.352913e-002
1.677837e+003,2.577018e-002
1.679765e+003,2.825823e-002
1.681694e+003,3.065980e-002
1.683622e+003,3.271573e-002
1.685551e+003,3.420293e-002
1.687479e+003,3.463021e-002
1.689408e+003,3.418006e-002
1.691337e+003,3.301987e-002
1.693265e+003,3.133938e-002
1.695194e+003,2.943060e-002
1.697122e+003,2.740755e-002
1.699051e+003,2.537341e-002
1.700979e+003,2.358944e-002
1.702908e+003,2.230883e-002
1.704836e+003,2.174946e-002
1.706765e+003,2.216009e-002
1.708694e+003,2.371067e-002
1.710622e+003,2.650994e-002
1.712551e+003,3.048727e-002
1.714479e+003,3.579650e-002
1.716408e+003,4.251995e-002
1.718336e+003,5.042281e-002
1.720265e+003,5.875265e-002
1.722193e+003,6.687493e-002
1.724122e+003,7.413098e-002
1.726051e+003,7.957094e-002
1.727979e+003,8.267764e-002
1.729908e+003,8.297937e-002
1.731836e+003,8.077854e-002
1.733765e+003,7.673327e-002
1.735693e+003,7.109203e-002
1.737622e+003,6.392262e-002
1.739550e+003,5.528364e-002
1.741479e+003,4.584567e-002
1.743407e+003,3.652836e-002
1.745336e+003,2.798455e-002
1.747265e+003,2.068821e-002
1.749193e+003,1.486053e-002
1.751122e+003,1.030498e-002
1.753050e+003,6.811252e-003
1.754979e+003,4.225196e-003
1.756907e+003,2.213185e-003
1.758836e+003,6.234666e-004
1.760764e+003,-5.564609e-004
1.762693e+003,-1.538832e-003
1.764621e+003,-2.447066e-003
1.766550e+003,-3.309674e-003
1.768479e+003,-4.043287e-003
1.770407e+003,-4.730272e-003
1.772336e+003,-5.362109e-003
1.774264e+003,-5.973649e-003
1.776193e+003,-6.605738e-003
1.778121e+003,-7.140539e-003
1.780050e+003,-7.531552e-003
1.781978e+003,-7.859905e-003
1.783907e+003,-8.201178e-003
1.785835e+003,-8.478176e-003
1.787764e+003,-8.697874e-003
1.789693e+003,-8.901619e-003
1.791621e+003,-9.067013e-003
1.793550e+003,-9.193515e-003
1.795478e+003,-9.249211e-003
1.797407e+003,-9.370083e-003
1.799335e+003,-9.520225e-003
1.801264e+003,-9.574162e-003
1.803192e+003,-9.618077e-003
1.805121e+003,-9.711014e-003
1.807049e+003,-9.791362e-003
1.808978e+003,-9.837361e-003
1.810907e+003,-9.852520e-003
1.812835e+003,-9.890804e-003
1.814764e+003,-9.983878e-003
1.816692e+003,-1.007259e-002
1.818621e+003,-1.009461e-002
1.820549e+003,-1.013659e-002
1.822478e+003,-1.017679e-002
1.824406e+003,-1.016113e-002
1.826335e+003,-1.017375e-002
1.828264e+003,-1.025042e-002
1.830192e+003,-1.029789e-002
1.832121e+003,-1.029284e-002
1.834049e+003,-1.032494e-002
1.835978e+003,-1.037632e-002
1.837906e+003,-1.039224e-002
1.839835e+003,-1.043723e-002
1.841763e+003,-1.049406e-002
1.843692e+003,-1.054500e-002
1.845620e+003,-1.057964e-002
1.847549e+003,-1.062759e-002
1.849478e+003,-1.055972e-002
1.851406e+003,-1.053061e-002
1.853335e+003,-1.058908e-002
1.855263e+003,-1.068287e-002
1.857192e+003,-1.074581e-002
1.859120e+003,-1.075457e-002
1.861049e+003,-1.082784e-002
1.862977e+003,-1.081411e-002
1.864906e+003,-1.070182e-002
1.866834e+003,-1.074662e-002
1.868763e+003,-1.084895e-002
1.870692e+003,-1.088333e-002
1.872620e+003,-1.089076e-002
1.874549e+003,-1.090912e-002
1.876477e+003,-1.093073e-002
1.878406e+003,-1.088117e-002
1.880334e+003,-1.078764e-002
1.882263e+003,-1.077836e-002
1.884191e+003,-1.081770e-002
1.886120e+003,-1.082471e-002
1.888048e+003,-1.084417e-002
1.889977e+003,-1.086087e-002
1.891906e+003,-1.082248e-002
1.893834e+003,-1.081682e-002
1.895763e+003,-1.083017e-002
1.897691e+003,-1.083870e-002
1.899620e+003,-1.085435e-002
1.901548e+003,-1.086485e-002
1.903477e+003,-1.087002e-002
1.905405e+003,-1.083657e-002
1.907334e+003,-1.081243e-002
1.909263e+003,-1.082015e-002
1.911191e+003,-1.081818e-002
1.913120e+003,-1.082801e-002
1.915048e+003,-1.088666e-002
1.916977e+003,-1.088708e-002
1.918905e+003,-1.085441e-002
1.920834e+003,-1.087626e-002
1.922762e+003,-1.084947e-002
1.924691e+003,-1.077497e-002
1.926620e+003,-1.074882e-002
1.928548e+003,-1.074937e-002
1.930477e+003,-1.073411e-002
1.932405e+003,-1.071407e-002
1.934334e+003,-1.068142e-002
1.936262e+003,-1.059655e-002
1.938191e+003,-1.056453e-002
1.940119e+003,-1.059428e-002
1.942048e+003,-1.057181e-002
1.943976e+003,-1.047825e-002
1.945905e+003,-1.038696e-002
1.947833e+003,-1.041495e-002
1.949762e+003,-1.037587e-002
1.951691e+003,-1.029349e-002
1.953619e+003,-1.028618e-002
1.955548e+003,-1.029941e-002
1.957476e+003,-1.029492e-002
1.959405e+003,-1.029443e-002
1.961333e+003,-1.026605e-002
1.963262e+003,-1.022586e-002
1.965190e+003,-1.024825e-002
1.967119e+003,-1.027883e-002
1.969047e+003,-1.028213e-002
1.970976e+003,-1.026945e-002
1.972905e+003,-1.023631e-002
1.974833e+003,-1.018395e-002
1.976762e+003,-1.008904e-002
1.978690e+003,-1.009587e-002
1.980619e+003,-1.015151e-002
1.982547e+003,-1.017265e-002
1.984476e+003,-1.014604e-002
1.986404e+003,-1.010736e-002
1.988333e+003,-1.008004e-002
1.990262e+003,-1.007149e-002
1.992190e+003,-1.003666e-002
1.994119e+003,-9.981837e-003
1.996047e+003,-1.002374e-002
1.997976e+003,-1.004533e-002
1.999904e+003,-1.000402e-002
2.001833e+003,-1.001059e-002
2.003761e+003,-1.003892e-002
2.005690e+003,-1.008823e-002
2.007619e+003,-1.001512e-002
2.009547e+003,-9.931514e-003
2.011476e+003,-9.945408e-003
2.013404e+003,-9.928211e-003
2.015333e+003,-9.876554e-003
2.017261e+003,-9.884456e-003
2.019190e+003,-9.905249e-003
2.021118e+003,-9.894950e-003
2.023047e+003,-9.830041e-003
2.024975e+003,-9.837782e-003
2.026904e+003,-9.851743e-003
2.028833e+003,-9.828227e-003
2.030761e+003,-9.791783e-003
2.032690e+003,-9.789451e-003
2.034618e+003,-9.824274e-003
2.036547e+003,-9.847241e-003
2.038475e+003,-9.784170e-003
2.040404e+003,-9.731718e-003
2.042332e+003,-9.747983e-003
2.044261e+003,-9.799623e-003
2.046189e+003,-9.792593e-003
2.048118e+003,-9.719924e-003
2.050046e+003,-9.679486e-003
2.051975e+003,-9.671839e-003
2.053904e+003,-9.628642e-003
2.055832e+003,-9.608387e-003
2.057761e+003,-9.609975e-003
2.059689e+003,-9.628642e-003
2.061618e+003,-9.632531e-003
2.063546e+003,-9.599571e-003
2.065475e+003,-9.606410e-003
2.067403e+003,-9.620410e-003
2.069332e+003,-9.633146e-003
2.071260e+003,-9.620540e-003
2.073189e+003,-9.594580e-003
2.075118e+003,-9.595132e-003
2.077046e+003,-9.562364e-003
2.078975e+003,-9.558150e-003
2.080903e+003,-9.608937e-003
2.082832e+003,-9.589557e-003
2.084760e+003,-9.489786e-003
2.086689e+003,-9.459896e-003
2.088617e+003,-9.498700e-003
2.090546e+003,-9.520615e-003
2.092475e+003,-9.499900e-003
2.094403e+003,-9.476170e-003
2.096332e+003,-9.491601e-003
2.098260e+003,-9.541392e-003
2.100189e+003,-9.506903e-003
2.102117e+003,-9.426469e-003
2.104046e+003,-9.430879e-003
2.105974e+003,-9.459377e-003
2.107903e+003,-9.410031e-003
2.109832e+003,-9.369304e-003
2.111760e+003,-9.385161e-003
2.113688e+003,-9.356885e-003
2.115617e+003,-9.303797e-003
2.117546e+003,-9.265397e-003
2.119474e+003,-9.296143e-003
2.121403e+003,-9.366418e-003
2.123331e+003,-9.374720e-003
2.125260e+003,-9.326790e-003
2.127188e+003,-9.246389e-003
2.129117e+003,-9.185340e-003
2.131045e+003,-9.156824e-003
2.132974e+003,-9.197862e-003
2.134903e+003,-9.241199e-003
2.136831e+003,-9.244184e-003
2.138760e+003,-9.254142e-003
2.140688e+003,-9.273991e-003
2.142617e+003,-9.254173e-003
2.144545e+003,-9.241621e-003
2.146474e+003,-9.221996e-003
2.148402e+003,-9.206297e-003
2.150331e+003,-9.188682e-003
2.152260e+003,-9.183459e-003
2.154188e+003,-9.138039e-003
2.156117e+003,-9.077430e-003
2.158045e+003,-9.072594e-003
2.159974e+003,-9.121720e-003
2.161902e+003,-9.145826e-003
2.163831e+003,-9.123569e-003
2.165759e+003,-9.117307e-003
2.167688e+003,-9.093459e-003
2.169616e+003,-9.070031e-003
2.171545e+003,-9.072010e-003
2.173474e+003,-9.063086e-003
2.175402e+003,-9.067954e-003
2.177331e+003,-9.122953e-003
2.179259e+003,-9.169444e-003
2.181188e+003,-9.109357e-003
2.183116e+003,-9.076975e-003
2.185045e+003,-9.071297e-003
2.186973e+003,-9.072205e-003
2.188902e+003,-9.139531e-003
2.190831e+003,-9.124153e-003
2.192759e+003,-9.073925e-003
2.194688e+003,-9.116204e-003
2.196616e+003,-9.178852e-003
2.198545e+003,-9.210027e-003
2.200473e+003,-9.161268e-003
2.202402e+003,-9.085444e-003
2.204330e+003,-9.055883e-003
2.206259e+003,-9.051762e-003
2.208188e+003,-9.123439e-003
2.210116e+003,-9.155494e-003
2.212044e+003,-9.154748e-003
2.213973e+003,-9.146507e-003
2.215902e+003,-9.152411e-003
2.217830e+003,-9.191114e-003
2.219759e+003,-9.203085e-003
2.221687e+003,-9.185795e-003
2.223616e+003,-9.174149e-003
2.225544e+003,-9.172364e-003
2.227473e+003,-9.165162e-003
2.229401e+003,-9.146410e-003
2.231330e+003,-9.122076e-003
2.233259e+003,-9.160620e-003
2.235187e+003,-9.142711e-003
2.237116e+003,-9.130545e-003
2.239044e+003,-9.150692e-003
2.240973e+003,-9.101214e-003
2.242901e+003,-9.037126e-003
2.244830e+003,-9.004089e-003
2.246758e+003,-9.038489e-003
2.248687e+003,-9.055915e-003
2.250615e+003,-8.999805e-003
2.252544e+003,-8.955210e-003
2.254473e+003,-8.884317e-003
2.256401e+003,-8.793995e-003
2.258330e+003,-8.684525e-003
2.260258e+003,-8.602966e-003
2.262187e+003,-8.582954e-003
2.264115e+003,-8.580973e-003
2.266044e+003,-8.617583e-003
2.267972e+003,-8.611801e-003
2.269901e+003,-8.520382e-003
2.271830e+003,-8.485389e-003
2.273758e+003,-8.526653e-003
2.275687e+003,-8.612256e-003
2.277615e+003,-8.636813e-003
2.279544e+003,-8.657145e-003
2.281472e+003,-8.743924e-003
2.283401e+003,-8.843021e-003
2.285329e+003,-8.867111e-003
2.287258e+003,-8.889317e-003
2.289187e+003,-8.933918e-003
2.291115e+003,-8.952938e-003
2.293043e+003,-8.971407e-003
2.294972e+003,-9.007659e-003
2.296901e+003,-9.050399e-003
2.298829e+003,-9.075548e-003
2.300758e+003,-9.127008e-003
2.302686e+003,-9.127365e-003
2.304615e+003,-9.138039e-003
2.306543e+003,-9.125483e-003
2.308472e+003,-9.024730e-003
2.310400e+003,-9.015772e-003
2.312329e+003,-9.013241e-003
2.314258e+003,-8.979619e-003
2.316186e+003,-8.958716e-003
2.318115e+003,-8.925965e-003
2.320043e+003,-8.943136e-003
2.321972e+003,-8.991529e-003
2.323900e+003,-8.954691e-003
2.325829e+003,-8.893633e-003
2.327757e+003,-8.860229e-003
2.329686e+003,-8.838866e-003
2.331615e+003,-8.825165e-003
2.333543e+003,-8.832048e-003
2.335472e+003,-8.793443e-003
2.337400e+003,-8.772760e-003
2.339329e+003,-8.769155e-003
2.341257e+003,-8.798086e-003
2.343186e+003,-8.823833e-003
2.345114e+003,-8.784839e-003
2.347043e+003,-8.748081e-003
2.348971e+003,-8.725024e-003
2.350900e+003,-8.752042e-003
2.352829e+003,-8.877500e-003
2.354757e+003,-8.855229e-003
2.356686e+003,-8.766070e-003
2.358614e+003,-8.756653e-003
2.360543e+003,-8.738046e-003
2.362471e+003,-8.718854e-003
2.364400e+003,-8.734409e-003
2.366328e+003,-8.672087e-003
2.368257e+003,-8.627815e-003
2.370186e+003,-8.632330e-003
2.372114e+003,-8.622390e-003
2.374042e+003,-8.622001e-003
2.375971e+003,-8.627621e-003
2.377900e+003,-8.619240e-003
2.379828e+003,-8.614107e-003
2.381757e+003,-8.611574e-003
2.383685e+003,-8.581428e-003
2.385614e+003,-8.598126e-003
2.387542e+003,-8.618038e-003
2.389471e+003,-8.542281e-003
2.391399e+003,-8.478176e-003
2.393328e+003,-8.431805e-003
2.395257e+003,-8.422836e-003
2.397185e+003,-8.417246e-003
2.399114e+003,-8.422576e-003
2.401042e+003,-8.444771e-003
2.402971e+003,-8.387022e-003
2.404899e+003,-8.278263e-003
2.406828e+003,-8.259342e-003
2.408756e+003,-8.327672e-003
2.410685e+003,-8.319124e-003
2.412614e+003,-8.244062e-003
2.414542e+003,-8.137511e-003
2.416471e+003,-8.091884e-003
2.418399e+003,-8.109478e-003
2.420328e+003,-8.087201e-003
2.422256e+003,-8.059881e-003
2.424185e+003,-8.089608e-003
2.426113e+003,-8.146811e-003
2.428042e+003,-8.152404e-003
2.429970e+003,-8.076338e-003
2.431899e+003,-8.059458e-003
2.433828e+003,-8.042155e-003
2.435756e+003,-8.030348e-003
2.437685e+003,-8.061962e-003
2.439613e+003,-8.072077e-003
2.441542e+003,-8.061962e-003
2.443470e+003,-8.033080e-003
2.445399e+003,-7.988483e-003
2.447327e+003,-7.958326e-003
2.449256e+003,-8.005236e-003
2.451185e+003,-8.146096e-003
2.453113e+003,-8.178743e-003
2.455042e+003,-8.090876e-003
2.456970e+003,-8.023191e-003
2.458899e+003,-8.056433e-003
2.460827e+003,-8.103527e-003
2.462756e+003,-8.098909e-003
2.464684e+003,-8.059978e-003
2.466613e+003,-8.029794e-003
2.468542e+003,-8.010441e-003
2.470470e+003,-7.965939e-003
2.472398e+003,-8.017272e-003
2.474327e+003,-8.050025e-003
2.476256e+003,-7.966167e-003
2.478184e+003,-7.927777e-003
2.480113e+003,-7.949543e-003
2.482041e+003,-7.955724e-003
2.483970e+003,-8.009301e-003
2.485898e+003,-8.006146e-003
2.487827e+003,-7.915024e-003
2.489755e+003,-7.909233e-003
2.491684e+003,-7.971242e-003
2.493613e+003,-8.000064e-003
2.495541e+003,-7.966915e-003
2.497470e+003,-7.894721e-003
2.499398e+003,-7.874841e-003
2.501327e+003,-7.885936e-003
2.503255e+003,-7.913690e-003
2.505184e+003,-7.890394e-003
2.507112e+003,-7.851119e-003
2.509041e+003,-7.812622e-003
2.510969e+003,-7.784959e-003
2.512898e+003,-7.782876e-003
2.514827e+003,-7.813696e-003
2.516755e+003,-7.765952e-003
2.518684e+003,-7.657395e-003
2.520612e+003,-7.609635e-003
2.522541e+003,-7.613542e-003
2.524469e+003,-7.630179e-003
2.526398e+003,-7.674030e-003
2.528326e+003,-7.607486e-003
2.530255e+003,-7.498010e-003
2.532184e+003,-7.515856e-003
2.534112e+003,-7.594006e-003
2.536041e+003,-7.606216e-003
2.537969e+003,-7.557929e-003
2.539898e+003,-7.617253e-003
2.541826e+003,-7.655735e-003
2.543755e+003,-7.565613e-003
2.545683e+003,-7.524193e-003
2.547612e+003,-7.565385e-003
2.549541e+003,-7.535200e-003
2.551469e+003,-7.376486e-003
2.553397e+003,-7.364498e-003
2.555326e+003,-7.444727e-003
2.557255e+003,-7.416976e-003
2.559183e+003,-7.381665e-003
2.561112e+003,-7.364465e-003
2.563040e+003,-7.361663e-003
2.564969e+003,-7.299209e-003
2.566897e+003,-7.193598e-003
2.568826e+003,-7.126491e-003
2.570754e+003,-7.125773e-003
2.572683e+003,-7.111562e-003
2.574612e+003,-7.098458e-003
2.576540e+003,-7.010861e-003
2.578469e+003,-6.894778e-003
2.580397e+003,-6.906779e-003
2.582326e+003,-6.938932e-003
2.584254e+003,-6.906779e-003
2.586183e+003,-6.908866e-003
2.588111e+003,-6.836528e-003
2.590040e+003,-6.741082e-003
2.591969e+003,-6.741180e-003
2.593897e+003,-6.721801e-003
2.595826e+003,-6.689044e-003
2.597754e+003,-6.716092e-003
2.599683e+003,-6.732208e-003
2.601611e+003,-6.741604e-003
2.603540e+003,-6.681833e-003
2.605468e+003,-6.577052e-003
2.607397e+003,-6.500513e-003
2.609325e+003,-6.451189e-003
2.611254e+003,-6.449361e-003
2.613183e+003,-6.523362e-003
2.615111e+003,-6.502341e-003
2.617040e+003,-6.417889e-003
2.618968e+003,-6.467674e-003
2.620897e+003,-6.405940e-003
2.622825e+003,-6.247009e-003
2.624754e+003,-6.292927e-003
2.626682e+003,-6.272157e-003
2.628611e+003,-6.250797e-003
2.630540e+003,-6.338514e-003
2.632468e+003,-6.320946e-003
2.634396e+003,-6.216176e-003
2.636325e+003,-6.181290e-003
2.638254e+003,-6.144768e-003
2.640182e+003,-6.112327e-003
2.642111e+003,-6.145683e-003
2.644039e+003,-6.111380e-003
2.645968e+003,-6.027309e-003
2.647896e+003,-5.948157e-003
2.649825e+003,-5.897756e-003
2.651753e+003,-5.903836e-003
2.653682e+003,-5.920343e-003
2.655611e+003,-5.866507e-003
2.657539e+003,-5.822602e-003
2.659468e+003,-5.813056e-003
2.661396e+003,-5.831658e-003
2.663325e+003,-5.881707e-003
2.665253e+003,-5.839112e-003
2.667182e+003,-5.765615e-003
2.669110e+003,-5.802986e-003
2.671039e+003,-5.849638e-003
2.672968e+003,-5.779805e-003
2.674896e+003,-5.682230e-003
2.676825e+003,-5.653450e-003
2.678753e+003,-5.684878e-003
2.680682e+003,-5.684323e-003
2.682610e+003,-5.568309e-003
2.684539e+003,-5.484951e-003
2.686467e+003,-5.521038e-003
2.688396e+003,-5.549303e-003
2.690324e+003,-5.531604e-003
2.692253e+003,-5.514691e-003
2.694182e+003,-5.471340e-003
2.696110e+003,-5.418364e-003
2.698039e+003,-5.343553e-003
2.699967e+003,-5.238251e-003
2.701896e+003,-5.283523e-003
2.703824e+003,-5.369800e-003
2.705753e+003,-5.319889e-003
2.707681e+003,-5.257074e-003
2.709610e+003,-5.221326e-003
2.711539e+003,-5.222897e-003
2.713467e+003,-5.223126e-003
2.715396e+003,-5.160952e-003
2.717324e+003,-5.097100e-003
2.719253e+003,-5.077418e-003
2.721181e+003,-5.012701e-003
2.723110e+003,-4.925043e-003
2.725038e+003,-4.935854e-003
2.726967e+003,-4.941128e-003
2.728896e+003,-4.848869e-003
2.730824e+003,-4.748822e-003
2.732752e+003,-4.683303e-003
2.734681e+003,-4.624986e-003
2.736610e+003,-4.528855e-003
2.738538e+003,-4.488816e-003
2.740467e+003,-4.560070e-003
2.742395e+003,-4.556791e-003
2.744324e+003,-4.467992e-003
2.746252e+003,-4.437360e-003
2.748181e+003,-4.444477e-003
2.750109e+003,-4.447560e-003
2.752038e+003,-4.443493e-003
2.753967e+003,-4.360903e-003
2.755895e+003,-4.252312e-003
2.757824e+003,-4.109297e-003
2.759752e+003,-3.979171e-003
2.761681e+003,-3.985245e-003
2.763609e+003,-4.019487e-003
2.765538e+003,-3.962755e-003
2.767466e+003,-3.855640e-003
2.769395e+003,-3.715057e-003
2.771323e+003,-3.686672e-003
2.773252e+003,-3.619744e-003
2.775181e+003,-3.488583e-003
2.777109e+003,-3.389669e-003
2.779038e+003,-3.300467e-003
2.780966e+003,-3.151447e-003
2.782895e+003,-3.044626e-003
2.784823e+003,-2.987964e-003
2.786752e+003,-2.871425e-003
2.788680e+003,-2.751134e-003
2.790609e+003,-2.602058e-003
2.792538e+003,-2.422322e-003
2.794466e+003,-2.274055e-003
2.796395e+003,-2.106449e-003
2.798323e+003,-1.953424e-003
2.800252e+003,-1.761275e-003
2.802180e+003,-1.513507e-003
2.804109e+003,-1.305439e-003
2.806037e+003,-1.153817e-003
2.807966e+003,-9.599249e-004
2.809895e+003,-6.317709e-004
2.811823e+003,-2.802898e-004
2.813751e+003,4.552856e-005
2.815680e+003,3.664182e-004
2.817609e+003,6.728770e-004
2.819537e+003,9.800170e-004
2.821466e+003,1.397820e-003
2.823394e+003,1.879780e-003
2.825323e+003,2.407287e-003
2.827251e+003,3.013134e-003
2.829180e+003,3.717200e-003
2.831108e+003,4.572026e-003
2.833037e+003,5.526216e-003
2.834966e+003,6.710492e-003
2.836894e+003,8.205709e-003
2.838823e+003,9.980732e-003
2.840751e+003,1.218160e-002
2.842680e+003,1.504216e-002
2.844608e+003,1.876333e-002
2.846537e+003,2.285506e-002
2.848465e+003,2.547888e-002
2.850394e+003,2.474750e-002
2.852323e+003,2.177810e-002
2.854251e+003,1.883734e-002
2.856180e+003,1.635209e-002
2.858108e+003,1.416067e-002
2.860037e+003,1.233470e-002
2.861965e+003,1.082951e-002
2.863894e+003,9.761596e-003
2.865822e+003,9.188094e-003
2.867751e+003,8.944835e-003
2.869679e+003,9.035965e-003
2.871608e+003,9.320845e-003
2.873537e+003,9.486316e-003
2.875465e+003,9.414289e-003
2.877394e+003,9.318509e-003
2.879322e+003,9.452248e-003
2.881251e+003,9.804059e-003
2.883179e+003,1.023132e-002
2.885108e+003,1.079798e-002
2.887036e+003,1.155685e-002
2.888965e+003,1.229213e-002
2.890894e+003,1.310360e-002
2.892822e+003,1.402599e-002
2.894750e+003,1.501712e-002
2.896679e+003,1.608588e-002
2.898608e+003,1.729251e-002
2.900536e+003,1.864337e-002
2.902465e+003,2.013699e-002
2.904393e+003,2.175476e-002
2.906322e+003,2.376621e-002
2.908250e+003,2.640510e-002
2.910179e+003,2.956788e-002
2.912107e+003,3.338791e-002
2.914036e+003,3.766670e-002
2.915965e+003,4.096538e-002
2.917893e+003,4.193235e-002
2.919822e+003,4.099283e-002
2.921750e+003,3.911452e-002
2.923679e+003,3.689314e-002
2.925607e+003,3.487336e-002
2.927536e+003,3.296153e-002
2.929464e+003,3.089799e-002
2.931393e+003,2.882053e-002
2.933322e+003,2.673674e-002
2.935250e+003,2.460690e-002
2.937179e+003,2.253317e-002
2.939107e+003,2.053880e-002
2.941036e+003,1.883063e-002
2.942964e+003,1.757131e-002
2.944893e+003,1.675045e-002
2.946821e+003,1.631022e-002
2.948750e+003,1.605280e-002
2.950678e+003,1.574265e-002
2.952607e+003,1.531669e-002
2.954536e+003,1.458964e-002
2.956464e+003,1.366377e-002
2.958393e+003,1.263451e-002
2.960321e+003,1.134947e-002
2.962250e+003,9.991954e-003
2.964178e+003,8.710264e-003
2.966107e+003,7.377611e-003
2.968035e+003,6.051722e-003
2.969964e+003,4.852149e-003
2.971893e+003,3.874297e-003
2.973821e+003,3.082138e-003
2.975750e+003,2.332560e-003
2.977678e+003,1.838285e-003
2.979607e+003,1.553415e-003
2.981535e+003,1.375217e-003
2.983464e+003,1.186592e-003
2.985392e+003,1.029235e-003
2.987321e+003,9.832714e-004
2.989250e+003,9.999759e-004
2.991178e+003,8.419231e-004
2.993106e+003,7.077894e-004
2.995035e+003,7.210648e-004
2.996964e+003,7.887759e-004
2.998892e+003,6.948794e-004
3.000821e+003,3.663519e-004
3.002749e+003,5.898259e-005
3.004678e+003,-2.430695e-004
3.006606e+003,-5.423967e-004
3.008535e+003,-9.102316e-004
3.010463e+003,-1.272205e-003
3.012392e+003,-1.619286e-003
3.014321e+003,-2.090852e-003
3.016249e+003,-2.634894e-003
3.018178e+003,-2.933730e-003
3.020106e+003,-3.137565e-003
3.022035e+003,-3.421821e-003
3.023963e+003,-3.738414e-003
3.025892e+003,-4.045913e-003
3.027820e+003,-4.296408e-003
3.029749e+003,-4.525182e-003
3.031677e+003,-4.662422e-003
3.033606e+003,-4.769403e-003
3.035535e+003,-4.855618e-003
3.037463e+003,-4.945714e-003
3.039392e+003,-5.054428e-003
3.041320e+003,-5.264603e-003
3.043249e+003,-5.458415e-003
3.045177e+003,-5.392839e-003
3.047106e+003,-5.381614e-003
3.049034e+003,-5.548158e-003
3.050963e+003,-5.588132e-003
3.052892e+003,-5.541255e-003
3.054820e+003,-5.438456e-003
3.056749e+003,-5.446244e-003
3.058677e+003,-5.525225e-003
3.060606e+003,-5.583324e-003
3.062534e+003,-5.562944e-003
3.064463e+003,-5.554504e-003
3.066391e+003,-5.515345e-003
3.068320e+003,-5.484526e-003
3.070249e+003,-5.582505e-003
3.072177e+003,-5.587314e-003
3.074105e+003,-5.440976e-003
3.076034e+003,-5.393003e-003
3.077963e+003,-5.480894e-003
3.079891e+003,-5.525323e-003
3.081820e+003,-5.513971e-003
3.083748e+003,-5.508867e-003
3.085677e+003,-5.394181e-003
3.087605e+003,-5.286830e-003
3.089534e+003,-5.243063e-003
3.091462e+003,-5.252688e-003
3.093391e+003,-5.244962e-003
3.095320e+003,-5.278450e-003
3.097248e+003,-5.318187e-003
3.099177e+003,-5.216251e-003
3.101105e+003,-5.264276e-003
3.103034e+003,-5.334748e-003
3.104962e+003,-5.217528e-003
3.106891e+003,-5.035072e-003
3.108819e+003,-4.961832e-003
3.110748e+003,-5.091991e-003
3.112677e+003,-5.163146e-003
3.114605e+003,-5.048270e-003
3.116534e+003,-4.978538e-003
3.118462e+003,-4.890644e-003
3.120391e+003,-4.824490e-003
3.122319e+003,-4.811088e-003
3.124248e+003,-4.786248e-003
3.126176e+003,-4.749019e-003
3.128105e+003,-4.704248e-003
3.130033e+003,-4.665733e-003
3.131962e+003,-4.670781e-003
3.133891e+003,-4.706837e-003
3.135819e+003,-4.566562e-003
3.137748e+003,-4.397280e-003
3.139676e+003,-4.382454e-003
3.141605e+003,-4.375959e-003
3.143533e+003,-4.285483e-003
3.145462e+003,-4.215594e-003
3.147390e+003,-4.234462e-003
3.149319e+003,-4.139722e-003
3.151248e+003,-3.948209e-003
3.153176e+003,-3.877282e-003
3.155104e+003,-3.828940e-003
3.157033e+003,-3.797245e-003
3.158962e+003,-3.745772e-003
3.160890e+003,-3.683847e-003
3.162819e+003,-3.620795e-003
3.164747e+003,-3.548664e-003
3.166676e+003,-3.405844e-003
3.168604e+003,-3.259985e-003
3.170533e+003,-3.232229e-003
3.172461e+003,-3.204898e-003
3.174390e+003,-3.100557e-003
3.176319e+003,-3.024522e-003
3.178247e+003,-2.964007e-003
3.180176e+003,-2.794297e-003
3.182104e+003,-2.698089e-003
3.184033e+003,-2.702930e-003
3.185961e+003,-2.653007e-003
3.187890e+003,-2.574951e-003
3.189818e+003,-2.490226e-003
3.191747e+003,-2.363041e-003
3.193676e+003,-2.184722e-003
3.195604e+003,-2.007715e-003
3.197532e+003,-2.056623e-003
3.199461e+003,-2.045081e-003
3.201390e+003,-1.920768e-003
3.203318e+003,-1.812620e-003
3.205247e+003,-1.702696e-003
3.207175e+003,-1.635032e-003
3.209104e+003,-1.574720e-003
3.211032e+003,-1.520210e-003
3.212961e+003,-1.547614e-003
3.214889e+003,-1.462259e-003
3.216818e+003,-1.276797e-003
3.218747e+003,-1.254992e-003
3.220675e+003,-1.254530e-003
3.222604e+003,-1.086199e-003
3.224532e+003,-1.063294e-003
3.226461e+003,-1.130056e-003
3.228389e+003,-9.677933e-004
3.230318e+003,-7.599597e-004
3.232246e+003,-6.607862e-004
3.234175e+003,-5.746609e-004
3.236104e+003,-6.133086e-004
3.238032e+003,-5.820399e-004
3.239961e+003,-4.266562e-004
3.241889e+003,-2.282667e-004
3.243818e+003,-1.247649e-004
3.245746e+003,-1.326153e-004
3.247675e+003,-1.045253e-004
3.249603e+003,-8.292658e-005
3.251532e+003,-8.531177e-005
3.253460e+003,-7.573781e-005
3.255389e+003,5.447578e-005
3.257318e+003,2.335584e-004
3.259246e+003,3.829664e-004
3.261175e+003,4.798471e-004
3.263103e+003,5.926088e-004
3.265032e+003,6.243626e-004
3.266960e+003,6.106255e-004
3.268889e+003,8.028836e-004
3.270817e+003,1.039830e-003
3.272746e+003,1.083342e-003
3.274675e+003,1.053282e-003
3.276603e+003,9.689585e-004
3.278531e+003,8.847179e-004
3.280460e+003,1.001869e-003
3.282389e+003,1.182240e-003
3.284317e+003,1.253346e-003
3.286246e+003,1.332673e-003
3.288174e+003,1.368336e-003
3.290103e+003,1.449014e-003
3.292031e+003,1.656843e-003
3.293960e+003,1.733549e-003
3.295888e+003,1.675137e-003
3.297817e+003,1.717448e-003
3.299746e+003,1.822580e-003
3.301674e+003,1.846670e-003
3.303603e+003,1.843975e-003
3.305531e+003,1.970006e-003
3.307460e+003,2.037013e-003
3.309388e+003,1.989478e-003
3.311317e+003,1.930931e-003
3.313245e+003,2.009350e-003
3.315174e+003,2.113320e-003
3.317103e+003,2.253284e-003
3.319031e+003,2.254783e-003
3.320960e+003,2.204993e-003
3.322888e+003,2.303546e-003
3.324817e+003,2.360877e-003
3.326745e+003,2.366574e-003
3.328674e+003,2.378534e-003
3.330602e+003,2.291522e-003
3.332531e+003,2.259279e-003
3.334459e+003,2.304845e-003
3.336388e+003,2.366840e-003
3.338317e+003,2.446471e-003
3.340245e+003,2.441073e-003
3.342174e+003,2.405055e-003
3.344102e+003,2.377835e-003
3.346031e+003,2.345453e-003
3.347959e+003,2.292887e-003
3.349888e+003,2.288990e-003
3.351816e+003,2.267206e-003
3.353745e+003,2.286692e-003
3.355674e+003,2.383432e-003
3.357602e+003,2.513052e-003
3.359531e+003,2.486625e-003
3.361459e+003,2.418482e-003
3.363388e+003,2.437474e-003
3.365316e+003,2.501754e-003
3.367245e+003,2.480460e-003
3.369173e+003,2.337557e-003
3.371102e+003,2.279497e-003
3.373031e+003,2.418215e-003
3.374959e+003,2.459133e-003
3.376887e+003,2.416316e-003
3.378816e+003,2.407220e-003
3.380745e+003,2.393726e-003
3.382673e+003,2.323466e-003
3.384602e+003,2.330595e-003
3.386530e+003,2.249620e-003
3.388459e+003,2.265574e-003
3.390387e+003,2.339223e-003
3.392316e+003,2.173289e-003
3.394244e+003,2.168994e-003
3.396173e+003,2.223309e-003
3.398102e+003,2.145818e-003
3.400030e+003,2.070470e-003
3.401959e+003,2.000262e-003
3.403887e+003,1.880446e-003
3.405816e+003,1.691602e-003
3.407744e+003,1.473183e-003
3.409673e+003,1.457591e-003
3.411601e+003,1.520363e-003
3.413530e+003,1.573001e-003
3.415458e+003,1.566084e-003
3.417387e+003,1.324929e-003
3.419316e+003,1.224769e-003
3.421244e+003,1.253312e-003
3.423173e+003,1.036376e-003
3.425101e+003,8.679846e-004
3.427030e+003,8.201456e-004
3.428958e+003,6.992602e-004
3.430887e+003,6.289416e-004
3.432815e+003,5.400892e-004
3.434744e+003,2.517260e-004
3.436673e+003,4.970109e-007
3.438601e+003,-1.837888e-004
3.440530e+003,-5.357119e-004
3.442458e+003,-8.118530e-004
3.444387e+003,-9.462044e-004
3.446315e+003,-1.024488e-003
3.448244e+003,-1.077936e-003
3.450172e+003,-1.213758e-003
3.452101e+003,-1.278482e-003
3.454030e+003,-1.351619e-003
3.455958e+003,-1.504328e-003
3.457886e+003,-1.525691e-003
3.459815e+003,-1.537544e-003
3.461744e+003,-1.480751e-003
3.463672e+003,-1.533714e-003
3.465601e+003,-1.690320e-003
3.467529e+003,-1.780778e-003
3.469458e+003,-1.993335e-003
3.471386e+003,-2.099228e-003
3.473315e+003,-1.908100e-003
3.475243e+003,-1.930268e-003
3.477172e+003,-2.084818e-003
3.479101e+003,-2.110868e-003
3.481029e+003,-2.066483e-003
3.482958e+003,-2.010518e-003
3.484886e+003,-1.970840e-003
3.486815e+003,-2.036572e-003
3.488743e+003,-1.945277e-003
3.490672e+003,-1.858812e-003
3.492600e+003,-2.000822e-003
3.494529e+003,-2.175886e-003
3.496458e+003,-2.192997e-003
3.498386e+003,-2.086929e-003
3.500315e+003,-2.139389e-003
3.502243e+003,-2.177996e-003
3.504172e+003,-2.085016e-003
3.506100e+003,-2.059195e-003
3.508029e+003,-2.090325e-003
3.509957e+003,-2.169425e-003
3.511886e+003,-2.186239e-003
3.513814e+003,-2.324351e-003
3.515743e+003,-2.524388e-003
3.517672e+003,-2.570735e-003
3.519600e+003,-2.579431e-003
3.521529e+003,-2.448944e-003
3.523457e+003,-2.299731e-003
3.525386e+003,-2.366336e-003
3.527314e+003,-2.363832e-003
3.529243e+003,-2.289382e-003
3.531171e+003,-2.417841e-003
3.533100e+003,-2.551927e-003
3.535029e+003,-2.690318e-003
3.536957e+003,-2.801111e-003
3.538885e+003,-2.774675e-003
3.540814e+003,-2.848976e-003
3.542743e+003,-3.040217e-003
3.544671e+003,-3.092266e-003
3.546600e+003,-2.923132e-003
3.548528e+003,-2.942616e-003
3.550457e+003,-3.130164e-003
3.552385e+003,-3.236175e-003
3.554314e+003,-3.255414e-003
3.556242e+003,-3.177663e-003
3.558171e+003,-3.254428e-003
3.560100e+003,-3.434741e-003
3.562028e+003,-3.516718e-003
3.563957e+003,-3.662918e-003
3.565885e+003,-3.846346e-003
3.567814e+003,-3.946338e-003
3.569742e+003,-3.957928e-003
3.571671e+003,-3.978941e-003
3.573599e+003,-4.026939e-003
3.575528e+003,-4.060389e-003
3.577457e+003,-4.045453e-003
3.579385e+003,-3.943514e-003
3.581314e+003,-3.954415e-003
3.583242e+003,-4.117010e-003
3.585171e+003,-4.231411e-003
3.587099e+003,-4.306349e-003
3.589028e+003,-4.289190e-003
3.590956e+003,-4.296605e-003
3.592885e+003,-4.377305e-003
3.594813e+003,-4.575906e-003
3.596742e+003,-4.742104e-003
3.598671e+003,-4.643769e-003
3.600599e+003,-4.675698e-003
3.602528e+003,-4.821934e-003
3.604456e+003,-4.902667e-003
3.606385e+003,-4.918491e-003
3.608313e+003,-4.916755e-003
3.610242e+003,-5.082199e-003
3.612170e+003,-5.214582e-003
3.614099e+003,-5.202239e-003
3.616028e+003,-5.332293e-003
3.617956e+003,-5.446080e-003
3.619885e+003,-5.560850e-003
3.621813e+003,-5.574131e-003
3.623742e+003,-5.566477e-003
3.625670e+003,-5.620481e-003
3.627599e+003,-5.639157e-003
3.629527e+003,-5.569061e-003
3.631456e+003,-5.670096e-003
3.633385e+003,-5.837020e-003
3.635313e+003,-5.884616e-003
3.637241e+003,-5.938712e-003
3.639170e+003,-5.989990e-003
3.641099e+003,-6.000414e-003
3.643027e+003,-6.036132e-003
3.644956e+003,-6.087137e-003
3.646884e+003,-6.179493e-003
3.648813e+003,-6.263437e-003
3.650741e+003,-6.141828e-003
3.652670e+003,-6.119351e-003
3.654598e+003,-6.389321e-003
3.656527e+003,-6.530967e-003
3.658456e+003,-6.525353e-003
3.660384e+003,-6.534982e-003
3.662313e+003,-6.516083e-003
3.664241e+003,-6.533317e-003
3.666170e+003,-6.680626e-003
3.668098e+003,-6.806422e-003
3.670027e+003,-6.751391e-003
3.671955e+003,-6.771454e-003
3.673884e+003,-6.849933e-003
3.675813e+003,-6.839334e-003
3.677741e+003,-6.932443e-003
3.679670e+003,-7.015556e-003
3.681598e+003,-6.998439e-003
3.683527e+003,-6.989408e-003
3.685455e+003,-6.955106e-003
3.687384e+003,-6.971931e-003
3.689312e+003,-6.961790e-003
3.691241e+003,-6.996222e-003
3.693169e+003,-7.070522e-003
3.695098e+003,-7.205525e-003
3.697027e+003,-7.187015e-003
3.698955e+003,-7.078802e-003
3.700884e+003,-7.045387e-003
3.702812e+003,-7.145362e-003
3.704741e+003,-7.217974e-003
3.706669e+003,-7.316802e-003
3.708598e+003,-7.307452e-003
3.710526e+003,-7.255612e-003
3.712455e+003,-7.227001e-003
3.714384e+003,-7.171795e-003
3.716312e+003,-7.159084e-003
3.718240e+003,-7.237853e-003
3.720169e+003,-7.373228e-003
3.722098e+003,-7.416520e-003
3.724026e+003,-7.253037e-003
3.725955e+003,-7.204450e-003
3.727883e+003,-7.282298e-003
3.729812e+003,-7.287120e-003
3.731740e+003,-7.386649e-003
3.733669e+003,-7.526440e-003
3.735597e+003,-7.549104e-003
3.737526e+003,-7.357428e-003
3.739455e+003,-7.279789e-003
3.741383e+003,-7.268352e-003
3.743312e+003,-7.302466e-003
3.745240e+003,-7.194510e-003
3.747169e+003,-7.231857e-003
3.749097e+003,-7.213575e-003
3.751026e+003,-7.064751e-003
3.752954e+003,-6.939519e-003
3.754883e+003,-6.975844e-003
3.756812e+003,-7.086462e-003
3.758740e+003,-7.116288e-003
3.760669e+003,-7.113583e-003
3.762597e+003,-7.154097e-003
3.764526e+003,-7.258577e-003
3.766454e+003,-7.229804e-003
3.768383e+003,-7.173946e-003
3.770311e+003,-7.181344e-003
3.772240e+003,-7.229282e-003
3.774168e+003,-7.304682e-003
3.776097e+003,-7.320288e-003
3.778026e+003,-7.272686e-003
3.779954e+003,-7.150708e-003
3.781883e+003,-7.125089e-003
3.783811e+003,-7.196303e-003
3.785740e+003,-7.247530e-003
3.787668e+003,-7.181800e-003
3.789597e+003,-7.046626e-003
3.791525e+003,-7.119156e-003
3.793454e+003,-7.226447e-003
3.795383e+003,-7.204646e-003
3.797311e+003,-7.150577e-003
3.799240e+003,-7.224818e-003
3.801168e+003,-7.187015e-003
3.803097e+003,-7.079128e-003
3.805025e+003,-7.255123e-003
3.806954e+003,-7.265029e-003
3.808882e+003,-7.140734e-003
3.810811e+003,-7.165994e-003
3.812740e+003,-7.311882e-003
3.814668e+003,-7.399874e-003
3.816596e+003,-7.176488e-003
3.818525e+003,-7.022990e-003
3.820454e+003,-7.093927e-003
3.822382e+003,-7.154293e-003
3.824311e+003,-7.160290e-003
3.826239e+003,-7.141093e-003
3.828168e+003,-7.166320e-003
3.830096e+003,-7.056406e-003
3.832025e+003,-6.928073e-003
3.833953e+003,-6.966290e-003
3.835882e+003,-7.038834e-003
3.837811e+003,-6.958595e-003
3.839739e+003,-6.953150e-003
3.841668e+003,-7.082224e-003
3.843596e+003,-7.202919e-003
3.845525e+003,-7.209501e-003
3.847453e+003,-7.314228e-003
3.849382e+003,-7.437333e-003
3.851310e+003,-7.433360e-003
3.853239e+003,-7.298068e-003
3.855167e+003,-7.048843e-003
3.857096e+003,-7.035444e-003
3.859025e+003,-6.998374e-003
3.860953e+003,-6.881439e-003
3.862882e+003,-7.013763e-003
3.864810e+003,-7.187895e-003
3.866739e+003,-7.047376e-003
3.868667e+003,-7.082224e-003
3.870596e+003,-7.115539e-003
3.872524e+003,-7.105532e-003
3.874453e+003,-7.153739e-003
3.876382e+003,-7.205786e-003
3.878310e+003,-7.293604e-003
3.880239e+003,-7.271350e-003
3.882167e+003,-7.005058e-003
3.884096e+003,-6.867285e-003
3.886024e+003,-6.931824e-003
3.887953e+003,-7.064197e-003
3.889881e+003,-7.106868e-003
3.891810e+003,-6.945584e-003
3.893739e+003,-6.844650e-003
3.895667e+003,-6.936128e-003
3.897595e+003,-7.181377e-003
3.899524e+003,-7.274348e-003
3.901453e+003,-7.289369e-003
3.903381e+003,-7.271090e-003
3.905310e+003,-7.078867e-003
3.907238e+003,-6.980604e-003
3.909167e+003,-7.057873e-003
3.911095e+003,-7.125871e-003
3.913024e+003,-7.167884e-003
3.914952e+003,-7.199008e-003
3.916881e+003,-7.253135e-003
3.918810e+003,-7.341693e-003
3.920738e+003,-7.350424e-003
3.922667e+003,-7.179486e-003
3.924595e+003,-7.213216e-003
3.926524e+003,-7.293898e-003
3.928452e+003,-7.249355e-003
3.930381e+003,-7.016306e-003
3.932309e+003,-6.820122e-003
3.934238e+003,-7.050701e-003
3.936167e+003,-7.273728e-003
3.938095e+003,-7.240394e-003
3.940024e+003,-7.064197e-003
3.941952e+003,-6.964888e-003
3.943881e+003,-7.088581e-003
3.945809e+003,-7.206894e-003
3.947738e+003,-7.069478e-003
3.949666e+003,-7.080432e-003
3.951595e+003,-7.083333e-003
3.953523e+003,-7.202104e-003
3.955452e+003,-7.347394e-003
3.957380e+003,-7.170719e-003
3.959309e+003,-7.116255e-003
3.961238e+003,-7.211620e-003
3.963166e+003,-7.249258e-003
3.965095e+003,-7.261933e-003
3.967023e+003,-7.267179e-003
3.968952e+003,-7.151653e-003
3.970880e+003,-6.980245e-003
3.972809e+003,-7.051972e-003
3.974737e+003,-7.287349e-003
3.976666e+003,-7.322504e-003
3.978594e+003,-7.254308e-003
3.980523e+003,-7.322406e-003
3.982452e+003,-7.356158e-003
3.984380e+003,-7.374140e-003
3.986309e+003,-7.387626e-003
3.988237e+003,-7.320126e-003
3.990166e+003,-7.372283e-003
3.992094e+003,-7.403197e-003
3.994023e+003,-7.220223e-003
3.995951e+003,-7.177009e-003
3.997880e+003,-7.380134e-003
3.999809e+003,-7.441763e-003
4.001737e+003,0.000000e+000
