3.992094e+002,0.000000e+000
4.011380e+002,0.000000e+000
4.030665e+002,0.000000e+000
4.049951e+002,0.000000e+000
4.069236e+002,0.000000e+000
4.088522e+002,0.000000e+000
4.107807e+002,0.000000e+000
4.127093e+002,0.000000e+000
4.146378e+002,0.000000e+000
4.165664e+002,0.000000e+000
4.184949e+002,0.000000e+000
4.204235e+002,0.000000e+000
4.223520e+002,0.000000e+000
4.242806e+002,0.000000e+000
4.262091e+002,0.000000e+000
4.281377e+002,0.000000e+000
4.300662e+002,0.000000e+000
4.319948e+002,0.000000e+000
4.339233e+002,0.000000e+000
4.358519e+002,0.000000e+000
4.377804e+002,0.000000e+000
4.397090e+002,0.000000e+000
4.416375e+002,0.000000e+000
4.435660e+002,0.000000e+000
4.454946e+002,0.000000e+000
4.474232e+002,0.000000e+000
4.493517e+002,0.000000e+000
4.512802e+002,0.000000e+000
4.532088e+002,0.000000e+000
4.551373e+002,0.000000e+000
4.570659e+002,0.000000e+000
4.589944e+002,0.000000e+000
4.609230e+002,0.000000e+000
4.628515e+002,0.000000e+000
4.647801e+002,0.000000e+000
4.667086e+002,0.000000e+000
4.686372e+002,0.000000e+000
4.705657e+002,0.000000e+000
4.724943e+002,0.000000e+000
4.744228e+002,0.000000e+000
4.763514e+002,0.000000e+000
4.782799e+002,0.000000e+000
4.802085e+002,0.000000e+000
4.821370e+002,0.000000e+000
4.840656e+002,0.000000e+000
4.859941e+002,0.000000e+000
4.879226e+002,0.000000e+000
4.898512e+002,0.000000e+000
4.917798e+002,0.000000e+000
4.937083e+002,0.000000e+000
4.956368e+002,0.000000e+000
4.975654e+002,0.000000e+000
4.994939e+002,0.000000e+000
5.014225e+002,0.000000e+000
5.033510e+002,0.000000e+000
5.052796e+002,0.000000e+000
5.072081e+002,0.000000e+000
5.091367e+002,0.000000e+000
5.110652e+002,0.000000e+000
5.129938e+002,0.000000e+000
5.149223e+002,0.000000e+000
5.168509e+002,0.000000e+000
5.187794e+002,0.000000e+000
5.207079e+002,0.000000e+000
5.226365e+002,0.000000e+000
5.245651e+002,0.000000e+000
5.264936e+002,0.000000e+000
5.284221e+002,0.000000e+000
5.303507e+002,0.000000e+000
5.322792e+002,0.000000e+000
5.342078e+002,0.000000e+000
5.361364e+002,0.000000e+000
5.380649e+002,0.000000e+000
5.399934e+002,0.000000e+000
5.419220e+002,0.000000e+000
5.438505e+002,0.000000e+000
5.457791e+002,0.000000e+000
5.477076e+002,0.000000e+000
5.496362e+002,0.000000e+000
5.515647e+002,0.000000e+000
5.534933e+002,0.000000e+000
5.554218e+002,0.000000e+000
5.573503e+002,0.000000e+000
5.592789e+002,0.000000e+000
5.612075e+002,0.000000e+000
5.631360e+002,0.000000e+000
5.650646e+002,0.000000e+000
5.669931e+002,0.000000e+000
5.689216e+002,0.000000e+000
5.708502e+002,0.000000e+000
5.727787e+002,0.000000e+000
5.747073e+002,0.000000e+000
5.766359e+002,0.000000e+000
5.785644e+002,0.000000e+000
5.804929e+002,0.000000e+000
5.824215e+002,0.000000e+000
5.843500e+002,0.000000e+000
5.862786e+002,0.000000e+000
5.882072e+002,0.000000e+000
5.901357e+002,0.000000e+000
5.920642e+002,0.000000e+000
5.939928e+002,0.000000e+000
5.959213e+002,0.000000e+000
5.978499e+002,0.000000e+000
5.997784e+002,0.000000e+000
6.017070e+002,0.000000e+000
6.036355e+002,0.000000e+000
6.055641e+002,0.000000e+000
6.074926e+002,0.000000e+000
6.094211e+002,0.000000e+000
6.113497e+002,0.000000e+000
6.132783e+002,0.000000e+000
6.152068e+002,0.000000e+000
6.171354e+002,0.000000e+000
6.190639e+002,0.000000e+000
6.209924e+002,0.000000e+000
6.229210e+002,0.000000e+000
6.248495e+002,0.000000e+000
6.267781e+002,0.000000e+000
6.287067e+002,0.000000e+000
6.306352e+002,0.000000e+000
6.325637e+002,0.000000e+000
6.344923e+002,0.000000e+000
6.364208e+002,0.000000e+000
6.383494e+002,0.000000e+000
6.402780e+002,0.000000e+000
6.422065e+002,0.000000e+000
6.441350e+002,0.000000e+000
6.460636e+002,0.000000e+000
6.479921e+002,0.000000e+000
6.499207e+002,0.000000e+000
6.518492e+002,0.000000e+000
6.537778e+002,0.000000e+000
6.557063e+002,0.000000e+000
6.576349e+002,0.000000e+000
6.595634e+002,0.000000e+000
6.614919e+002,0.000000e+000
6.634205e+002,0.000000e+000
6.653491e+002,0.000000e+000
6.672776e+002,0.000000e+000
6.692062e+002,0.000000e+000
6.711347e+002,0.000000e+000
6.730632e+002,0.000000e+000
6.749918e+002,-5.752732e-003
6.769203e+002,-5.186131e-003
6.788489e+002,-4.466909e-003
6.807775e+002,-4.045093e-003
6.827060e+002,-4.551316e-003
6.846345e+002,-4.879897e-003
6.865631e+002,-4.883992e-003
6.884916e+002,-4.404956e-003
6.904202e+002,-4.037345e-003
6.923488e+002,-3.813601e-003
6.942773e+002,-3.644124e-003
6.962058e+002,-3.384212e-003
6.981344e+002,-2.793210e-003
7.000629e+002,-2.104405e-003
7.019915e+002,-1.346995e-003
7.039200e+002,-2.984683e-004
7.058486e+002,7.222596e-004
7.077771e+002,2.327963e-003
7.097057e+002,5.105028e-003
7.116342e+002,8.966212e-003
7.135627e+002,1.569493e-002
7.154913e+002,2.863584e-002
7.174199e+002,4.883559e-002
7.193484e+002,5.827150e-002
7.212770e+002,3.814733e-002
7.232055e+002,1.728772e-002
7.251340e+002,1.132648e-002
7.270626e+002,1.577443e-002
7.289911e+002,3.021534e-002
7.309197e+002,3.725185e-002
7.328483e+002,2.000995e-002
7.347768e+002,2.049264e-003
7.367053e+002,-4.508229e-003
7.386339e+002,-6.601038e-003
7.405624e+002,-7.729564e-003
7.424910e+002,-8.365441e-003
7.444196e+002,-8.587113e-003
7.463481e+002,-8.577237e-003
7.482766e+002,-8.572559e-003
7.502052e+002,-8.579511e-003
7.521337e+002,-8.815522e-003
7.540623e+002,-9.044655e-003
7.559908e+002,-9.188649e-003
7.579194e+002,-9.262380e-003
7.598479e+002,-9.338952e-003
7.617765e+002,-9.302110e-003
7.637050e+002,-9.283625e-003
7.656335e+002,-9.444593e-003
7.675621e+002,-9.621155e-003
7.694907e+002,-9.479444e-003
7.714192e+002,-9.086969e-003
7.733478e+002,-8.731356e-003
7.752763e+002,-8.719081e-003
7.772048e+002,-8.595397e-003
7.791334e+002,-8.400607e-003
7.810620e+002,-8.287853e-003
7.829905e+002,-8.295459e-003
7.849191e+002,-8.317921e-003
7.868476e+002,-8.401192e-003
7.887761e+002,-8.437915e-003
7.907047e+002,-8.552904e-003
7.926332e+002,-8.645323e-003
7.945618e+002,-8.667019e-003
7.964904e+002,-8.556218e-003
7.984189e+002,-8.520611e-003
8.003474e+002,-8.435218e-003
8.022760e+002,-8.469857e-003
8.042045e+002,-8.526393e-003
8.061331e+002,-8.293639e-003
8.080616e+002,-8.106226e-003
8.099902e+002,-8.096730e-003
8.119187e+002,-8.225888e-003
8.138473e+002,-8.364239e-003
8.157758e+002,-8.267535e-003
8.177043e+002,-8.099624e-003
8.196329e+002,-7.865599e-003
8.215615e+002,-7.750883e-003
8.234900e+002,-7.984514e-003
8.254186e+002,-8.228164e-003
8.273471e+002,-8.076306e-003
8.292756e+002,-7.975764e-003
8.312042e+002,-8.096210e-003
8.331328e+002,-8.157119e-003
8.350613e+002,-8.132860e-003
8.369899e+002,-8.130909e-003
8.389184e+002,-7.954455e-003
8.408469e+002,-7.795927e-003
8.427755e+002,-7.899927e-003
8.447040e+002,-7.957936e-003
8.466326e+002,-7.876923e-003
8.485612e+002,-7.863159e-003
8.504896e+002,-7.685327e-003
8.524182e+002,-7.438734e-003
8.543468e+002,-7.383131e-003
8.562753e+002,-7.301392e-003
8.582039e+002,-7.167818e-003
8.601324e+002,-7.294517e-003
8.620609e+002,-7.352607e-003
8.639895e+002,-7.368537e-003
8.659181e+002,-7.337620e-003
8.678466e+002,-7.419874e-003
8.697751e+002,-7.460230e-003
8.717037e+002,-7.324914e-003
8.736322e+002,-7.231140e-003
8.755608e+002,-7.352704e-003
8.774894e+002,-7.545229e-003
8.794178e+002,-7.723314e-003
8.813464e+002,-7.947949e-003
8.832750e+002,-8.121576e-003
8.852035e+002,-8.145868e-003
8.871321e+002,-8.088339e-003
8.890607e+002,-8.039910e-003
8.909891e+002,-8.159330e-003
8.929177e+002,-8.224360e-003
8.948463e+002,-8.162777e-003
8.967748e+002,-7.965288e-003
8.987034e+002,-7.762014e-003
9.006320e+002,-7.558254e-003
9.025604e+002,-7.395542e-003
9.044890e+002,-7.113811e-003
9.064176e+002,-6.693253e-003
9.083461e+002,-6.426998e-003
9.102747e+002,-6.639512e-003
9.122032e+002,-7.149208e-003
9.141317e+002,-7.649354e-003
9.160603e+002,-7.854959e-003
9.179889e+002,-7.887303e-003
9.199174e+002,-7.823947e-003
9.218459e+002,-7.746261e-003
9.237745e+002,-7.754756e-003
9.257030e+002,-7.813012e-003
9.276316e+002,-7.877704e-003
9.295602e+002,-7.983018e-003
9.314886e+002,-7.972803e-003
9.334172e+002,-8.000161e-003
9.353458e+002,-8.082842e-003
9.372743e+002,-8.252483e-003
9.392029e+002,-8.457477e-003
9.411315e+002,-8.599294e-003
9.430599e+002,-8.606149e-003
9.449885e+002,-8.641977e-003
9.469171e+002,-8.646914e-003
9.488456e+002,-8.674165e-003
9.507742e+002,-8.766103e-003
9.527028e+002,-8.773214e-003
9.546312e+002,-8.713073e-003
9.565598e+002,-8.741586e-003
9.584884e+002,-8.686506e-003
9.604169e+002,-8.621416e-003
9.623455e+002,-8.610762e-003
9.642740e+002,-8.664681e-003
9.662025e+002,-8.638274e-003
9.681311e+002,-8.474829e-003
9.700597e+002,-8.290843e-003
9.719882e+002,-8.200236e-003
9.739167e+002,-8.121478e-003
9.758453e+002,-8.014278e-003
9.777738e+002,-7.874548e-003
9.797024e+002,-7.681355e-003
9.816310e+002,-7.335601e-003
9.835594e+002,-6.941476e-003
9.854880e+002,-6.615364e-003
9.874166e+002,-6.349421e-003
9.893451e+002,-5.999173e-003
9.912737e+002,-5.693218e-003
9.932023e+002,-5.493785e-003
9.951307e+002,-5.416532e-003
9.970593e+002,-5.365546e-003
9.989879e+002,-5.333734e-003
1.000916e+003,-5.214942e-003
1.002845e+003,-5.102307e-003
1.004774e+003,-5.053969e-003
1.006702e+003,-4.954068e-003
1.008631e+003,-4.804796e-003
1.010559e+003,-4.642917e-003
1.012488e+003,-4.438574e-003
1.014416e+003,-4.212182e-003
1.016345e+003,-3.942825e-003
1.018273e+003,-3.741305e-003
1.020202e+003,-3.675994e-003
1.022130e+003,-3.651353e-003
1.024059e+003,-3.582447e-003
1.025988e+003,-3.485099e-003
1.027916e+003,-3.278993e-003
1.029845e+003,-3.052555e-003
1.031773e+003,-2.873038e-003
1.033702e+003,-2.697826e-003
1.035630e+003,-2.441004e-003
1.037559e+003,-2.229556e-003
1.039487e+003,-2.057415e-003
1.041416e+003,-1.879960e-003
1.043344e+003,-1.659260e-003
1.045273e+003,-1.590467e-003
1.047202e+003,-1.562009e-003
1.049130e+003,-1.424182e-003
1.051059e+003,-1.333815e-003
1.052987e+003,-1.394722e-003
1.054916e+003,-1.454201e-003
1.056844e+003,-1.437029e-003
1.058773e+003,-1.361958e-003
1.060701e+003,-1.355285e-003
1.062630e+003,-1.353469e-003
1.064558e+003,-1.426560e-003
1.066487e+003,-1.509875e-003
1.068416e+003,-1.571682e-003
1.070344e+003,-1.602748e-003
1.072273e+003,-1.537544e-003
1.074201e+003,-1.354724e-003
1.076130e+003,-1.240092e-003
1.078058e+003,-1.183491e-003
1.079987e+003,-1.198427e-003
1.081915e+003,-1.272502e-003
1.083844e+003,-1.360207e-003
1.085773e+003,-1.393236e-003
1.087701e+003,-1.454333e-003
1.089630e+003,-1.532690e-003
1.091558e+003,-1.676853e-003
1.093487e+003,-1.807671e-003
1.095415e+003,-1.924858e-003
1.097344e+003,-1.962429e-003
1.099272e+003,-1.915721e-003
1.101201e+003,-1.895927e-003
1.103129e+003,-1.928553e-003
1.105058e+003,-1.949796e-003
1.106987e+003,-1.862012e-003
1.108915e+003,-1.745303e-003
1.110844e+003,-1.645760e-003
1.112772e+003,-1.486200e-003
1.114701e+003,-1.425635e-003
1.116629e+003,-1.309403e-003
1.118558e+003,-1.081241e-003
1.120486e+003,-8.801747e-004
1.122415e+003,-8.291494e-004
1.124344e+003,-8.610286e-004
1.126272e+003,-9.395258e-004
1.128201e+003,-1.118092e-003
1.130129e+003,-1.321692e-003
1.132058e+003,-1.544312e-003
1.133986e+003,-1.856800e-003
1.135915e+003,-2.104702e-003
1.137843e+003,-2.353122e-003
1.139772e+003,-2.546393e-003
1.141700e+003,-2.658244e-003
1.143629e+003,-2.773457e-003
1.145557e+003,-2.842590e-003
1.147486e+003,-2.853387e-003
1.149415e+003,-2.912074e-003
1.151343e+003,-2.976644e-003
1.153272e+003,-3.098912e-003
1.155200e+003,-3.234860e-003
1.157129e+003,-3.347257e-003
1.159057e+003,-3.440296e-003
1.160986e+003,-3.608900e-003
1.162914e+003,-3.721266e-003
1.164843e+003,-3.812846e-003
1.166771e+003,-3.938556e-003
1.168700e+003,-4.076343e-003
1.170629e+003,-4.164172e-003
1.172557e+003,-4.241812e-003
1.174486e+003,-4.232329e-003
1.176414e+003,-4.286598e-003
1.178343e+003,-4.479011e-003
1.180271e+003,-4.622002e-003
1.182200e+003,-4.660816e-003
1.184128e+003,-4.653702e-003
1.186057e+003,-4.684909e-003
1.187986e+003,-4.773041e-003
1.189914e+003,-4.803256e-003
1.191843e+003,-4.836516e-003
1.193771e+003,-4.841332e-003
1.195700e+003,-4.826391e-003
1.197628e+003,-4.786150e-003
1.199557e+003,-4.749543e-003
1.201485e+003,-4.779891e-003
1.203414e+003,-4.798832e-003
1.205343e+003,-4.753214e-003
1.207271e+003,-4.733746e-003
1.209200e+003,-4.755213e-003
1.211128e+003,-4.771435e-003
1.213057e+003,-4.738564e-003
1.214985e+003,-4.700380e-003
1.216914e+003,-4.693005e-003
1.218842e+003,-4.697299e-003
1.220771e+003,-4.635410e-003
1.222699e+003,-4.572300e-003
1.224628e+003,-4.545217e-003
1.226557e+003,-4.503245e-003
1.228485e+003,-4.436081e-003
1.230414e+003,-4.395903e-003
1.232342e+003,-4.334037e-003
1.234271e+003,-4.247751e-003
1.236199e+003,-4.188522e-003
1.238128e+003,-4.178907e-003
1.240056e+003,-4.099352e-003
1.241985e+003,-3.982881e-003
1.243913e+003,-3.912320e-003
1.245842e+003,-3.876100e-003
1.247771e+003,-3.775106e-003
1.249699e+003,-3.660224e-003
1.251628e+003,-3.554481e-003
1.253556e+003,-3.435365e-003
1.255485e+003,-3.286754e-003
1.257413e+003,-3.085390e-003
1.259342e+003,-2.870306e-003
1.261270e+003,-2.736318e-003
1.263199e+003,-2.721040e-003
1.265127e+003,-2.782708e-003
1.267056e+003,-2.889857e-003
1.268985e+003,-3.048837e-003
1.270913e+003,-3.159046e-003
1.272842e+003,-3.202102e-003
1.274770e+003,-3.244397e-003
1.276699e+003,-3.281986e-003
1.278627e+003,-3.279454e-003
1.280556e+003,-3.312173e-003
1.282484e+003,-3.261926e-003
1.284413e+003,-3.165526e-003
1.286342e+003,-3.111182e-003
1.288270e+003,-3.000304e-003
1.290199e+003,-2.838376e-003
1.292127e+003,-2.719855e-003
1.294056e+003,-2.623532e-003
1.295984e+003,-2.526990e-003
1.297913e+003,-2.415270e-003
1.299841e+003,-2.335260e-003
1.301770e+003,-2.250389e-003
1.303698e+003,-2.182645e-003
1.305627e+003,-2.089764e-003
1.307556e+003,-2.024271e-003
1.309484e+003,-2.022523e-003
1.311413e+003,-2.016884e-003
1.313341e+003,-1.977998e-003
1.315270e+003,-1.978361e-003
1.317198e+003,-1.987695e-003
1.319127e+003,-2.042344e-003
1.321055e+003,-2.100778e-003
1.322984e+003,-2.093161e-003
1.324912e+003,-2.076409e-003
1.326841e+003,-2.100283e-003
1.328770e+003,-2.108263e-003
1.330698e+003,-2.092040e-003
1.332627e+003,-1.977074e-003
1.334555e+003,-1.848914e-003
1.336484e+003,-1.682002e-003
1.338412e+003,-1.447498e-003
1.340341e+003,-1.216996e-003
1.342269e+003,-9.960920e-004
1.344198e+003,-7.323733e-004
1.346126e+003,-5.089718e-004
1.348055e+003,-2.851242e-004
1.349984e+003,-6.513664e-005
1.351912e+003,1.119412e-004
1.353841e+003,1.981868e-004
1.355769e+003,2.304090e-004
1.357698e+003,3.042439e-004
1.359626e+003,4.369595e-004
1.361555e+003,6.234666e-004
1.363483e+003,9.029460e-004
1.365412e+003,1.239821e-003
1.367341e+003,1.447152e-003
1.369269e+003,1.441068e-003
1.371198e+003,1.289435e-003
1.373126e+003,1.098722e-003
1.375055e+003,1.043185e-003
1.376983e+003,1.067166e-003
1.378912e+003,9.518567e-004
1.380840e+003,7.389209e-004
1.382769e+003,6.585079e-004
1.384698e+003,7.026453e-004
1.386626e+003,7.295945e-004
1.388555e+003,8.181538e-004
1.390483e+003,1.028006e-003
1.392412e+003,1.206494e-003
1.394340e+003,1.316620e-003
1.396269e+003,1.463376e-003
1.398197e+003,1.574797e-003
1.400126e+003,1.764022e-003
1.402054e+003,1.948105e-003
1.403983e+003,2.051960e-003
1.405911e+003,2.197000e-003
1.407840e+003,2.371871e-003
1.409769e+003,2.517584e-003
1.411697e+003,2.635010e-003
1.413626e+003,2.729927e-003
1.415554e+003,2.766506e-003
1.417483e+003,2.747299e-003
1.419411e+003,2.806122e-003
1.421340e+003,2.997720e-003
1.423268e+003,3.120182e-003
1.425197e+003,3.268783e-003
1.427125e+003,3.520307e-003
1.429054e+003,3.873495e-003
1.430983e+003,4.302792e-003
1.432911e+003,4.673966e-003
1.434840e+003,4.850072e-003
1.436768e+003,5.021221e-003
1.438697e+003,5.335579e-003
1.440625e+003,5.618108e-003
1.442554e+003,5.917951e-003
1.444482e+003,6.302476e-003
1.446411e+003,6.753735e-003
1.448340e+003,7.367635e-003
1.450268e+003,8.400381e-003
1.452197e+003,9.963203e-003
1.454125e+003,1.207080e-002
1.456054e+003,1.484960e-002
1.457982e+003,2.059144e-002
1.459911e+003,3.487680e-002
1.461839e+003,4.831089e-002
1.463768e+003,4.035031e-002
1.465697e+003,2.747501e-002
1.467625e+003,2.493475e-002
1.469554e+003,2.935097e-002
1.471482e+003,4.260843e-002
1.473411e+003,4.598758e-002
1.475339e+003,2.540137e-002
1.477268e+003,7.939175e-003
1.479196e+003,2.192671e-003
1.481125e+003,3.194633e-004
1.483053e+003,-5.149289e-004
1.484982e+003,-9.629334e-004
1.486911e+003,-1.306199e-003
1.488839e+003,-1.563528e-003
1.490768e+003,-1.664212e-003
1.492696e+003,-1.715502e-003
1.494625e+003,-1.850069e-003
1.496553e+003,-1.951808e-003
1.498482e+003,-1.952369e-003
1.500410e+003,-1.994654e-003
1.502339e+003,-2.061933e-003
1.504267e+003,-2.228270e-003
1.506196e+003,-2.369533e-003
1.508125e+003,-2.283911e-003
1.510053e+003,-2.107999e-003
1.511982e+003,-1.996336e-003
1.513910e+003,-1.889890e-003
1.515839e+003,-1.827732e-003
1.517767e+003,-1.798828e-003
1.519696e+003,-1.862639e-003
1.521624e+003,-1.828755e-003
1.523553e+003,-1.656950e-003
1.525481e+003,-1.507630e-003
1.527410e+003,-1.332361e-003
1.529339e+003,-1.121067e-003
1.531267e+003,-9.625037e-004
1.533196e+003,-7.414036e-004
1.535124e+003,-3.848139e-004
1.537053e+003,-2.030642e-004
1.538981e+003,-1.671953e-004
1.540910e+003,9.888323e-005
1.542838e+003,3.910251e-004
1.544767e+003,4.998163e-004
1.546696e+003,5.583028e-004
1.548624e+003,6.444048e-004
1.550553e+003,7.782534e-004
1.552481e+003,8.824934e-004
1.554410e+003,9.699216e-004
1.556338e+003,1.028671e-003
1.558267e+003,1.007183e-003
1.560195e+003,1.416435e-003
1.562124e+003,1.915522e-003
1.564052e+003,2.221211e-003
1.565981e+003,2.552812e-003
1.567910e+003,2.895006e-003
1.569838e+003,3.271054e-003
1.571767e+003,3.762953e-003
1.573695e+003,4.128012e-003
1.575624e+003,4.472789e-003
1.577552e+003,4.940179e-003
1.579481e+003,5.281242e-003
1.581409e+003,5.543297e-003
1.583338e+003,5.797922e-003
1.585266e+003,6.013085e-003
1.587195e+003,6.222035e-003
1.589124e+003,6.369752e-003
1.591052e+003,6.475982e-003
1.592981e+003,6.556100e-003
1.594909e+003,6.651979e-003
1.596838e+003,6.678728e-003
1.598766e+003,6.642424e-003
1.600695e+003,6.577191e-003
1.602623e+003,6.543183e-003
1.604552e+003,6.500971e-003
1.606480e+003,6.446824e-003
1.608409e+003,6.353747e-003
1.610338e+003,6.264657e-003
1.612266e+003,6.156967e-003
1.614195e+003,5.975996e-003
1.616123e+003,5.821596e-003
1.618052e+003,5.870191e-003
1.619980e+003,5.833215e-003
1.621909e+003,5.691421e-003
1.623837e+003,5.668795e-003
1.625766e+003,5.731574e-003
1.627695e+003,5.711665e-003
1.629623e+003,5.697766e-003
1.631552e+003,5.711967e-003
1.633480e+003,5.615926e-003
1.635409e+003,5.545244e-003
1.637337e+003,5.721737e-003
1.639266e+003,5.825492e-003
1.641194e+003,5.840570e-003
1.643123e+003,5.787916e-003
1.645052e+003,5.619216e-003
1.646980e+003,5.520209e-003
1.648909e+003,5.514605e-003
1.650837e+003,5.262125e-003
1.652766e+003,5.048675e-003
1.654694e+003,5.241399e-003
1.656623e+003,5.377309e-003
1.658551e+003,5.289761e-003
1.660480e+003,5.132453e-003
1.662408e+003,4.978151e-003
1.664337e+003,4.899965e-003
1.666266e+003,4.681200e-003
1.668194e+003,4.378227e-003
1.670123e+003,4.200104e-003
1.672051e+003,4.091720e-003
1.673980e+003,3.887703e-003
1.675908e+003,3.715930e-003
1.677837e+003,3.542488e-003
1.679765e+003,3.320833e-003
1.681694e+003,2.982173e-003
1.683622e+003,2.563911e-003
1.685551e+003,2.491290e-003
1.687479e+003,2.441040e-003
1.689408e+003,2.206524e-003
1.691337e+003,2.001594e-003
1.693265e+003,1.708666e-003
1.695194e+003,1.377676e-003
1.697122e+003,1.179083e-003
1.699051e+003,8.777788e-004
1.700979e+003,7.254790e-004
1.702908e+003,6.869478e-004
1.704836e+003,4.970298e-004
1.706765e+003,4.447871e-004
1.708694e+003,4.052858e-004
1.710622e+003,3.358771e-004
1.712551e+003,2.628324e-004
1.714479e+003,1.441570e-004
1.716408e+003,-8.819385e-005
1.718336e+003,-1.753099e-004
1.720265e+003,-1.013452e-004
1.722193e+003,-1.049891e-004
1.724122e+003,-1.311579e-004
1.726051e+003,-9.799943e-005
1.727979e+003,-9.163909e-005
1.729908e+003,-9.591245e-005
1.731836e+003,-2.346581e-004
1.733765e+003,-3.049249e-004
1.735693e+003,-1.948238e-005
1.737622e+003,1.911260e-004
1.739550e+003,1.689502e-004
1.741479e+003,1.598017e-004
1.743407e+003,1.552607e-004
1.745336e+003,1.510844e-004
1.747265e+003,1.061082e-004
1.749193e+003,-3.167499e-005
1.751122e+003,-1.961092e-004
1.753050e+003,-3.111497e-004
1.754979e+003,-5.339580e-004
1.756907e+003,-6.927107e-004
1.758836e+003,-7.426605e-004
1.760764e+003,-8.560352e-004
1.762693e+003,-9.592968e-004
1.764621e+003,-9.747029e-004
1.766550e+003,-1.034867e-003
1.768479e+003,-1.076515e-003
1.770407e+003,-1.137855e-003
1.772336e+003,-1.219640e-003
1.774264e+003,-1.153486e-003
1.776193e+003,-1.120042e-003
1.778121e+003,-1.149950e-003
1.780050e+003,-1.195387e-003
1.781978e+003,-1.189637e-003
1.783907e+003,-1.138681e-003
1.785835e+003,-1.141424e-003
1.787764e+003,-1.184317e-003
1.789693e+003,-1.270553e-003
1.791621e+003,-1.301607e-003
1.793550e+003,-1.194561e-003
1.795478e+003,-1.135211e-003
1.797407e+003,-1.191190e-003
1.799335e+003,-1.206720e-003
1.801264e+003,-1.168886e-003
1.803192e+003,-1.114655e-003
1.805121e+003,-1.114523e-003
1.807049e+003,-1.134914e-003
1.808978e+003,-1.159401e-003
1.810907e+003,-1.146381e-003
1.812835e+003,-1.113532e-003
1.814764e+003,-1.102493e-003
1.816692e+003,-1.115812e-003
1.818621e+003,-1.134650e-003
1.820549e+003,-1.161649e-003
1.822478e+003,-1.186961e-003
1.824406e+003,-1.261236e-003
1.826335e+003,-1.254794e-003
1.828264e+003,-1.235631e-003
1.830192e+003,-1.240488e-003
1.832121e+003,-1.223770e-003
1.834049e+003,-1.272304e-003
1.835978e+003,-1.320568e-003
1.837906e+003,-1.268307e-003
1.839835e+003,-1.252250e-003
1.841763e+003,-1.273031e-003
1.843692e+003,-1.303127e-003
1.845620e+003,-1.264243e-003
1.847549e+003,-1.194032e-003
1.849478e+003,-1.135641e-003
1.851406e+003,-1.125396e-003
1.853335e+003,-1.128503e-003
1.855263e+003,-1.105534e-003
1.857192e+003,-1.082200e-003
1.859120e+003,-1.084679e-003
1.861049e+003,-1.034570e-003
1.862977e+003,-9.923234e-004
1.864906e+003,-1.008323e-003
1.866834e+003,-1.026405e-003
1.868763e+003,-1.007398e-003
1.870692e+003,-9.728846e-004
1.872620e+003,-9.447497e-004
1.874549e+003,-9.164807e-004
1.876477e+003,-8.522653e-004
1.878406e+003,-7.983263e-004
1.880334e+003,-7.801357e-004
1.882263e+003,-7.598605e-004
1.884191e+003,-7.160986e-004
1.886120e+003,-6.354434e-004
1.888048e+003,-5.511331e-004
1.889977e+003,-4.630001e-004
1.891906e+003,-3.526349e-004
1.893834e+003,-2.686009e-004
1.895763e+003,-2.413475e-004
1.897691e+003,-2.320419e-004
1.899620e+003,-1.852129e-004
1.901548e+003,-1.359277e-004
1.903477e+003,-1.047572e-004
1.905405e+003,-1.016765e-004
1.907334e+003,-1.462290e-004
1.909263e+003,-1.851467e-004
1.911191e+003,-2.086943e-004
1.913120e+003,-2.186296e-004
1.915048e+003,-1.808411e-004
1.916977e+003,-1.607697e-004
1.918905e+003,-1.317872e-004
1.920834e+003,-1.610678e-004
1.922762e+003,-2.016070e-004
1.924691e+003,-1.854447e-004
1.926620e+003,-1.803443e-004
1.928548e+003,-1.549403e-004
1.930477e+003,-1.294023e-004
1.932405e+003,-1.191005e-004
1.934334e+003,-6.874769e-005
1.936262e+003,-1.593718e-005
1.938191e+003,-1.119916e-005
1.940119e+003,-5.817948e-005
1.942048e+003,-8.514614e-005
1.943976e+003,-8.832636e-005
1.945905e+003,-6.470596e-005
1.947833e+003,-2.309381e-005
1.949762e+003,2.750212e-005
1.951691e+003,8.141797e-005
1.953619e+003,1.100521e-004
1.955548e+003,1.400139e-004
1.957476e+003,1.363680e-004
1.959405e+003,9.530396e-005
1.961333e+003,9.043221e-005
1.963262e+003,1.088258e-004
1.965190e+003,1.376606e-004
1.967119e+003,1.188681e-004
1.969047e+003,5.016783e-005
1.970976e+003,3.866915e-005
1.972905e+003,6.577605e-005
1.974833e+003,8.191507e-005
1.976762e+003,7.031612e-005
1.978690e+003,2.339326e-005
1.980619e+003,-2.504861e-005
1.982547e+003,-5.022830e-005
1.984476e+003,-3.260267e-005
1.986404e+003,-3.001840e-005
1.988333e+003,-7.918963e-006
1.990262e+003,3.287021e-005
1.992190e+003,3.843719e-005
1.994119e+003,-1.206062e-005
1.996047e+003,-9.310565e-006
1.997976e+003,3.711028e-006
1.999904e+003,4.741740e-005
2.001833e+003,1.567192e-004
2.003761e+003,2.056122e-004
2.005690e+003,2.096565e-004
2.007619e+003,2.525548e-004
2.009547e+003,3.071286e-004
2.011476e+003,3.832648e-004
2.013404e+003,4.970962e-004
2.015333e+003,5.862053e-004
2.017261e+003,5.879637e-004
2.019190e+003,5.824892e-004
2.021118e+003,5.682227e-004
2.023047e+003,5.164359e-004
2.024975e+003,4.965322e-004
2.026904e+003,5.031003e-004
2.028833e+003,4.992523e-004
2.030761e+003,4.498618e-004
2.032690e+003,4.157329e-004
2.034618e+003,4.369595e-004
2.036547e+003,4.436926e-004
2.038475e+003,4.029311e-004
2.040404e+003,3.152854e-004
2.042332e+003,2.985409e-004
2.044261e+003,3.449629e-004
2.046189e+003,3.400884e-004
2.048118e+003,3.374024e-004
2.050046e+003,3.563371e-004
2.051975e+003,3.382646e-004
2.053904e+003,3.418127e-004
2.055832e+003,3.391599e-004
2.057761e+003,3.456261e-004
2.059689e+003,3.778593e-004
2.061618e+003,4.032296e-004
2.063546e+003,3.832648e-004
2.065475e+003,3.925175e-004
2.067403e+003,3.883057e-004
2.069332e+003,3.700329e-004
2.071260e+003,3.880072e-004
2.073189e+003,4.315533e-004
2.075118e+003,4.316528e-004
2.077046e+003,4.270426e-004
2.078975e+003,4.486678e-004
2.080903e+003,4.903291e-004
2.082832e+003,5.125214e-004
2.084760e+003,4.976933e-004
2.086689e+003,4.509232e-004
2.088617e+003,4.631625e-004
2.090546e+003,4.601110e-004
2.092475e+003,4.370922e-004
2.094403e+003,4.758003e-004
2.096332e+003,5.308666e-004
2.098260e+003,5.123555e-004
2.100189e+003,4.858842e-004
2.102117e+003,4.753691e-004
2.104046e+003,4.915565e-004
2.105974e+003,4.893008e-004
2.107903e+003,4.945419e-004
2.109832e+003,5.077113e-004
2.111760e+003,5.575398e-004
2.113688e+003,6.030604e-004
2.115617e+003,6.148063e-004
2.117546e+003,6.253248e-004
2.119474e+003,6.289748e-004
2.121403e+003,6.119196e-004
2.123331e+003,6.488182e-004
2.125260e+003,7.103117e-004
2.127188e+003,7.550186e-004
2.129117e+003,7.709841e-004
2.131045e+003,7.610263e-004
2.132974e+003,7.229234e-004
2.134903e+003,7.713492e-004
2.136831e+003,8.705079e-004
2.138760e+003,8.786088e-004
2.140688e+003,8.306358e-004
2.142617e+003,8.009915e-004
2.144545e+003,7.873485e-004
2.146474e+003,8.005600e-004
2.148402e+003,8.343208e-004
2.150331e+003,8.962722e-004
2.152260e+003,9.104167e-004
2.154188e+003,8.774800e-004
2.156117e+003,8.630378e-004
2.158045e+003,8.642994e-004
2.159974e+003,8.439482e-004
2.161902e+003,8.168260e-004
2.163831e+003,8.315986e-004
2.165759e+003,8.647642e-004
2.167688e+003,9.074948e-004
2.169616e+003,9.381758e-004
2.171545e+003,9.347224e-004
2.173474e+003,9.525541e-004
2.175402e+003,9.961568e-004
2.177331e+003,1.017047e-003
2.179259e+003,9.898802e-004
2.181188e+003,9.492334e-004
2.183116e+003,9.691246e-004
2.185045e+003,1.023888e-003
2.186973e+003,1.037439e-003
2.188902e+003,1.043019e-003
2.190831e+003,1.039531e-003
2.192759e+003,1.077263e-003
2.194688e+003,1.098788e-003
2.196616e+003,1.088624e-003
2.198545e+003,1.078858e-003
2.200473e+003,1.087295e-003
2.202402e+003,1.093440e-003
2.204330e+003,1.139947e-003
2.206259e+003,1.200514e-003
2.208188e+003,1.189483e-003
2.210116e+003,1.173934e-003
2.212044e+003,1.206926e-003
2.213973e+003,1.245204e-003
2.215902e+003,1.267535e-003
2.217830e+003,1.267801e-003
2.219759e+003,1.274181e-003
2.221687e+003,1.257234e-003
2.223616e+003,1.281027e-003
2.225544e+003,1.284849e-003
2.227473e+003,1.250854e-003
2.229401e+003,1.237628e-003
2.231330e+003,1.261886e-003
2.233259e+003,1.290133e-003
2.235187e+003,1.343142e-003
2.237116e+003,1.410185e-003
2.239044e+003,1.468363e-003
2.240973e+003,1.472651e-003
2.242901e+003,1.469160e-003
2.244830e+003,1.484587e-003
2.246758e+003,1.511153e-003
2.248687e+003,1.513946e-003
2.250615e+003,1.470922e-003
2.252544e+003,1.484454e-003
2.254473e+003,1.544636e-003
2.256401e+003,1.536888e-003
2.258330e+003,1.526481e-003
2.260258e+003,1.568246e-003
2.262187e+003,1.606024e-003
2.264115e+003,1.567381e-003
2.266044e+003,1.543971e-003
2.267972e+003,1.587600e-003
2.269901e+003,1.628905e-003
2.271830e+003,1.667420e-003
2.273758e+003,1.685116e-003
2.275687e+003,1.654981e-003
2.277615e+003,1.674871e-003
2.279544e+003,1.711095e-003
2.281472e+003,1.724368e-003
2.283401e+003,1.764488e-003
2.285329e+003,1.752811e-003
2.287258e+003,1.692833e-003
2.289187e+003,1.671545e-003
2.291115e+003,1.709398e-003
2.293043e+003,1.761660e-003
2.294972e+003,1.758300e-003
2.296901e+003,1.779093e-003
2.298829e+003,1.829168e-003
2.300758e+003,1.820883e-003
2.302686e+003,1.799854e-003
2.304615e+003,1.840514e-003
2.306543e+003,1.884140e-003
2.308472e+003,1.843376e-003
2.310400e+003,1.787078e-003
2.312329e+003,1.795829e-003
2.314258e+003,1.813064e-003
2.316186e+003,1.799988e-003
2.318115e+003,1.812864e-003
2.320043e+003,1.857851e-003
2.321972e+003,1.862443e-003
2.323900e+003,1.869398e-003
2.325829e+003,1.907601e-003
2.327757e+003,1.927503e-003
2.329686e+003,1.918018e-003
2.331615e+003,1.876120e-003
2.333543e+003,1.850763e-003
2.335472e+003,1.819518e-003
2.337400e+003,1.837719e-003
2.339329e+003,1.862809e-003
2.341257e+003,1.882376e-003
2.343186e+003,1.915589e-003
2.345114e+003,1.960819e-003
2.347043e+003,2.025561e-003
2.348971e+003,2.033051e-003
2.350900e+003,1.959654e-003
2.352829e+003,1.828602e-003
2.354757e+003,1.692034e-003
2.356686e+003,1.595049e-003
2.358614e+003,1.536157e-003
2.360543e+003,1.498850e-003
2.362471e+003,1.489873e-003
2.364400e+003,1.502807e-003
2.366328e+003,1.488078e-003
2.368257e+003,1.473715e-003
2.370186e+003,1.530837e-003
2.372114e+003,1.585272e-003
2.374042e+003,1.581182e-003
2.375971e+003,1.585206e-003
2.377900e+003,1.661134e-003
2.379828e+003,1.712226e-003
2.381757e+003,1.705739e-003
2.383685e+003,1.701382e-003
2.385614e+003,1.721440e-003
2.387542e+003,1.784550e-003
2.389471e+003,1.844308e-003
2.391399e+003,1.880945e-003
2.393328e+003,1.897118e-003
2.395257e+003,1.846038e-003
2.397185e+003,1.822946e-003
2.399114e+003,1.858117e-003
2.401042e+003,1.879814e-003
2.402971e+003,1.877118e-003
2.404899e+003,1.883541e-003
2.406828e+003,1.910031e-003
2.408756e+003,1.923476e-003
2.410685e+003,1.928635e-003
2.412614e+003,1.958423e-003
2.414542e+003,1.979126e-003
2.416471e+003,1.986848e-003
2.418399e+003,2.015675e-003
2.420328e+003,2.001061e-003
2.422256e+003,1.950069e-003
2.424185e+003,1.946008e-003
2.426113e+003,1.952166e-003
2.428042e+003,1.943246e-003
2.429970e+003,1.976729e-003
2.431899e+003,2.011081e-003
2.433828e+003,2.000296e-003
2.435756e+003,1.998265e-003
2.437685e+003,1.999730e-003
2.439613e+003,2.003059e-003
2.441542e+003,2.024762e-003
2.443470e+003,2.057587e-003
2.445399e+003,2.096106e-003
2.447327e+003,2.107593e-003
2.449256e+003,2.048731e-003
2.451185e+003,2.007086e-003
2.453113e+003,2.069272e-003
2.455042e+003,2.142155e-003
2.456970e+003,2.118347e-003
2.458899e+003,2.092843e-003
2.460827e+003,2.111922e-003
2.462756e+003,2.139591e-003
2.464684e+003,2.185944e-003
2.466613e+003,2.230237e-003
2.468542e+003,2.260512e-003
2.470470e+003,2.293520e-003
2.472398e+003,2.305812e-003
2.474327e+003,2.288057e-003
2.476256e+003,2.238296e-003
2.478184e+003,2.250586e-003
2.480113e+003,2.319203e-003
2.482041e+003,2.323067e-003
2.483970e+003,2.306078e-003
2.485898e+003,2.337691e-003
2.487827e+003,2.387563e-003
2.489755e+003,2.442139e-003
2.491684e+003,2.527382e-003
2.493613e+003,2.526349e-003
2.495541e+003,2.476528e-003
2.497470e+003,2.496122e-003
2.499398e+003,2.520617e-003
2.501327e+003,2.527116e-003
2.503255e+003,2.555545e-003
2.505184e+003,2.615776e-003
2.507112e+003,2.640344e-003
2.509041e+003,2.631276e-003
2.510969e+003,2.617476e-003
2.512898e+003,2.640910e-003
2.514827e+003,2.684983e-003
2.516755e+003,2.697252e-003
2.518684e+003,2.735362e-003
2.520612e+003,2.795084e-003
2.522541e+003,2.838105e-003
2.524469e+003,2.840406e-003
2.526398e+003,2.817328e-003
2.528326e+003,2.807323e-003
2.530255e+003,2.855048e-003
2.532184e+003,2.923293e-003
2.534112e+003,2.914853e-003
2.536041e+003,2.864787e-003
2.537969e+003,2.894706e-003
2.539898e+003,2.962523e-003
2.541826e+003,2.989113e-003
2.543755e+003,3.017305e-003
2.545683e+003,3.045800e-003
2.547612e+003,3.099591e-003
2.549541e+003,3.143610e-003
2.551469e+003,3.144511e-003
2.553397e+003,3.129459e-003
2.555326e+003,3.123753e-003
2.557255e+003,3.169944e-003
2.559183e+003,3.217208e-003
2.561112e+003,3.245716e-003
2.563040e+003,3.282037e-003
2.564969e+003,3.332586e-003
2.566897e+003,3.332552e-003
2.568826e+003,3.285810e-003
2.570754e+003,3.291352e-003
2.572683e+003,3.344706e-003
2.574612e+003,3.368748e-003
2.576540e+003,3.403711e-003
2.578469e+003,3.468535e-003
2.580397e+003,3.512725e-003
2.582326e+003,3.533435e-003
2.584254e+003,3.529427e-003
2.586183e+003,3.558890e-003
2.588111e+003,3.607767e-003
2.590040e+003,3.673190e-003
2.591969e+003,3.752792e-003
2.593897e+003,3.805802e-003
2.595826e+003,3.850194e-003
2.597754e+003,3.859487e-003
2.599683e+003,3.852267e-003
2.601611e+003,3.892049e-003
2.603540e+003,3.942635e-003
2.605468e+003,3.960557e-003
2.607397e+003,3.964603e-003
2.609325e+003,3.988746e-003
2.611254e+003,4.101018e-003
2.613183e+003,4.180867e-003
2.615111e+003,4.169024e-003
2.617040e+003,4.187391e-003
2.618968e+003,4.241290e-003
2.620897e+003,4.276859e-003
2.622825e+003,4.331371e-003
2.624754e+003,4.412099e-003
2.626682e+003,4.468303e-003
2.628611e+003,4.550228e-003
2.630540e+003,4.602800e-003
2.632468e+003,4.622390e-003
2.634396e+003,4.659229e-003
2.636325e+003,4.649952e-003
2.638254e+003,4.599317e-003
2.640182e+003,4.608158e-003
2.642111e+003,4.642953e-003
2.644039e+003,4.678956e-003
2.645968e+003,4.710508e-003
2.647896e+003,4.692487e-003
2.649825e+003,4.690143e-003
2.651753e+003,4.726686e-003
2.653682e+003,4.767186e-003
2.655611e+003,4.786984e-003
2.657539e+003,4.813015e-003
2.659468e+003,4.869539e-003
2.661396e+003,4.878553e-003
2.663325e+003,4.878787e-003
2.665253e+003,4.870578e-003
2.667182e+003,4.837675e-003
2.669110e+003,4.808057e-003
2.671039e+003,4.751642e-003
2.672968e+003,4.692588e-003
2.674896e+003,4.724308e-003
2.676825e+003,4.766850e-003
2.678753e+003,4.761558e-003
2.680682e+003,4.743602e-003
2.682610e+003,4.710775e-003
2.684539e+003,4.718547e-003
2.686467e+003,4.721092e-003
2.688396e+003,4.718949e-003
2.690324e+003,4.730773e-003
2.692253e+003,4.746215e-003
2.694182e+003,4.748694e-003
2.696110e+003,4.778408e-003
2.698039e+003,4.855835e-003
2.699967e+003,4.938906e-003
2.701896e+003,5.019512e-003
2.703824e+003,5.080990e-003
2.705753e+003,5.089237e-003
2.707681e+003,5.108011e-003
2.709610e+003,5.200218e-003
2.711539e+003,5.266921e-003
2.713467e+003,5.273662e-003
2.715396e+003,5.291404e-003
2.717324e+003,5.350070e-003
2.719253e+003,5.395324e-003
2.721181e+003,5.459205e-003
2.723110e+003,5.566957e-003
2.725038e+003,5.632306e-003
2.726967e+003,5.635898e-003
2.728896e+003,5.663357e-003
2.730824e+003,5.725665e-003
2.732752e+003,5.815148e-003
2.734681e+003,5.899847e-003
2.736610e+003,5.964575e-003
2.738538e+003,6.001763e-003
2.740467e+003,6.007608e-003
2.742395e+003,6.001561e-003
2.744324e+003,6.055922e-003
2.746252e+003,6.113246e-003
2.748181e+003,6.083272e-003
2.750109e+003,6.144868e-003
2.752038e+003,6.251144e-003
2.753967e+003,6.299820e-003
2.755895e+003,6.365246e-003
2.757824e+003,6.480690e-003
2.759752e+003,6.572549e-003
2.761681e+003,6.676238e-003
2.763609e+003,6.749932e-003
2.765538e+003,6.835486e-003
2.767466e+003,6.971863e-003
2.769395e+003,7.101243e-003
2.771323e+003,7.206170e-003
2.773252e+003,7.313110e-003
2.775181e+003,7.489380e-003
2.777109e+003,7.681673e-003
2.779038e+003,7.824489e-003
2.780966e+003,8.000899e-003
2.782895e+003,8.273652e-003
2.784823e+003,8.556781e-003
2.786752e+003,8.726660e-003
2.788680e+003,8.932523e-003
2.790609e+003,9.167383e-003
2.792538e+003,9.378838e-003
2.794466e+003,9.621325e-003
2.796395e+003,9.862727e-003
2.798323e+003,1.011993e-002
2.800252e+003,1.046723e-002
2.802180e+003,1.080226e-002
2.804109e+003,1.109935e-002
2.806037e+003,1.144896e-002
2.807966e+003,1.189093e-002
2.809895e+003,1.230515e-002
2.811823e+003,1.276484e-002
2.813751e+003,1.324924e-002
2.815680e+003,1.376523e-002
2.817609e+003,1.440749e-002
2.819537e+003,1.506861e-002
2.821466e+003,1.583993e-002
2.823394e+003,1.679109e-002
2.825323e+003,1.791094e-002
2.827251e+003,1.922888e-002
2.829180e+003,2.084020e-002
2.831108e+003,2.283854e-002
2.833037e+003,2.531296e-002
2.834966e+003,2.858556e-002
2.836894e+003,3.304758e-002
2.838823e+003,3.939996e-002
2.840751e+003,4.906390e-002
2.842680e+003,6.425960e-002
2.844608e+003,8.756594e-002
2.846537e+003,1.163914e-001
2.848465e+003,1.314453e-001
2.850394e+003,1.155654e-001
2.852323e+003,8.536710e-002
2.854251e+003,6.116743e-002
2.856180e+003,4.541473e-002
2.858108e+003,3.502421e-002
2.860037e+003,2.819550e-002
2.861965e+003,2.383208e-002
2.863894e+003,2.107901e-002
2.865822e+003,1.952662e-002
2.867751e+003,1.897467e-002
2.869679e+003,1.913960e-002
2.871608e+003,1.981195e-002
2.873537e+003,2.100984e-002
2.875465e+003,2.280327e-002
2.877394e+003,2.506826e-002
2.879322e+003,2.762208e-002
2.881251e+003,3.039110e-002
2.883179e+003,3.325043e-002
2.885108e+003,3.610526e-002
2.887036e+003,3.892668e-002
2.888965e+003,4.173380e-002
2.890894e+003,4.449559e-002
2.892822e+003,4.722054e-002
2.894750e+003,4.996205e-002
2.896679e+003,5.259389e-002
2.898608e+003,5.527582e-002
2.900536e+003,5.829041e-002
2.902465e+003,6.187209e-002
2.904393e+003,6.647014e-002
2.906322e+003,7.286561e-002
2.908250e+003,8.204181e-002
2.910179e+003,9.540548e-002
2.912107e+003,1.139624e-001
2.914036e+003,1.349578e-001
2.915965e+003,1.483445e-001
2.917893e+003,1.443780e-001
2.919822e+003,1.265804e-001
2.921750e+003,1.051434e-001
2.923679e+003,8.593557e-002
2.925607e+003,7.059441e-002
2.927536e+003,5.872397e-002
2.929464e+003,4.923410e-002
2.931393e+003,4.136314e-002
2.933322e+003,3.468942e-002
2.935250e+003,2.904918e-002
2.937179e+003,2.436509e-002
2.939107e+003,2.043658e-002
2.941036e+003,1.717326e-002
2.942964e+003,1.449905e-002
2.944893e+003,1.222086e-002
2.946821e+003,1.054255e-002
2.948750e+003,9.499286e-003
2.950678e+003,8.839251e-003
2.952607e+003,8.312491e-003
2.954536e+003,7.732399e-003
2.956464e+003,7.237266e-003
2.958393e+003,6.847806e-003
2.960321e+003,6.492159e-003
2.962250e+003,6.151052e-003
2.964178e+003,5.787479e-003
2.966107e+003,5.404080e-003
2.968035e+003,5.082801e-003
2.969964e+003,4.811575e-003
2.971893e+003,4.543096e-003
2.973821e+003,4.346699e-003
2.975750e+003,4.190702e-003
2.977678e+003,3.957113e-003
2.979607e+003,3.760780e-003
2.981535e+003,3.653876e-003
2.983464e+003,3.588456e-003
2.985392e+003,3.473945e-003
2.987321e+003,3.376562e-003
2.989250e+003,3.376495e-003
2.991178e+003,3.293622e-003
2.993106e+003,3.165438e-003
2.995035e+003,3.121149e-003
2.996964e+003,3.085509e-003
2.998892e+003,3.103596e-003
3.000821e+003,3.159730e-003
3.002749e+003,3.103663e-003
3.004678e+003,3.027615e-003
3.006606e+003,3.006462e-003
3.008535e+003,3.038759e-003
3.010463e+003,3.081137e-003
3.012392e+003,3.128025e-003
3.014321e+003,3.174182e-003
3.016249e+003,3.188702e-003
3.018178e+003,3.209430e-003
3.020106e+003,3.217441e-003
3.022035e+003,3.219211e-003
3.023963e+003,3.212535e-003
3.025892e+003,3.228824e-003
3.027820e+003,3.268884e-003
3.029749e+003,3.334021e-003
3.031677e+003,3.386413e-003
3.033606e+003,3.343270e-003
3.035535e+003,3.303404e-003
3.037463e+003,3.383107e-003
3.039392e+003,3.456611e-003
3.041320e+003,3.406917e-003
3.043249e+003,3.363071e-003
3.045177e+003,3.356259e-003
3.047106e+003,3.314623e-003
3.049034e+003,3.238905e-003
3.050963e+003,3.246250e-003
3.052892e+003,3.346042e-003
3.054820e+003,3.460285e-003
3.056749e+003,3.505810e-003
3.058677e+003,3.542822e-003
3.060606e+003,3.608469e-003
3.062534e+003,3.571919e-003
3.064463e+003,3.529427e-003
3.066391e+003,3.596809e-003
3.068320e+003,3.710784e-003
3.070249e+003,3.776723e-003
3.072177e+003,3.778595e-003
3.074105e+003,3.787653e-003
3.076034e+003,3.791597e-003
3.077963e+003,3.712321e-003
3.079891e+003,3.766128e-003
3.081820e+003,3.956311e-003
3.083748e+003,3.928425e-003
3.085677e+003,3.804733e-003
3.087605e+003,3.879345e-003
3.089534e+003,4.014629e-003
3.091462e+003,3.994699e-003
3.093391e+003,3.937118e-003
3.095320e+003,3.940061e-003
3.097248e+003,4.012957e-003
3.099177e+003,4.071986e-003
3.101105e+003,4.044360e-003
3.103034e+003,3.992057e-003
3.104962e+003,3.971726e-003
3.106891e+003,3.977946e-003
3.108819e+003,3.995534e-003
3.110748e+003,4.008610e-003
3.112677e+003,4.037070e-003
3.114605e+003,4.029511e-003
3.116534e+003,4.021552e-003
3.118462e+003,4.079511e-003
3.120391e+003,4.109380e-003
3.122319e+003,4.113194e-003
3.124248e+003,4.172436e-003
3.126176e+003,4.234464e-003
3.128105e+003,4.263507e-003
3.130033e+003,4.299212e-003
3.131962e+003,4.290511e-003
3.133891e+003,4.292184e-003
3.135819e+003,4.363232e-003
3.137748e+003,4.381507e-003
3.139676e+003,4.432183e-003
3.141605e+003,4.511791e-003
3.143533e+003,4.571524e-003
3.145462e+003,4.625069e-003
3.147390e+003,4.604675e-003
3.149319e+003,4.643455e-003
3.151248e+003,4.706555e-003
3.153176e+003,4.711847e-003
3.155104e+003,4.717475e-003
3.157033e+003,4.778040e-003
3.158962e+003,4.900468e-003
3.160890e+003,4.938436e-003
3.162819e+003,4.850239e-003
3.164747e+003,4.850675e-003
3.166676e+003,4.989580e-003
3.168604e+003,5.049110e-003
3.170533e+003,5.022864e-003
3.172461e+003,5.063793e-003
3.174390e+003,5.119210e-003
3.176319e+003,5.168027e-003
3.178247e+003,5.225101e-003
3.180176e+003,5.275808e-003
3.182104e+003,5.317969e-003
3.184033e+003,5.356779e-003
3.185961e+003,5.354330e-003
3.187890e+003,5.369963e-003
3.189818e+003,5.383683e-003
3.191747e+003,5.367815e-003
3.193676e+003,5.437430e-003
3.195604e+003,5.565817e-003
3.197532e+003,5.601594e-003
3.199461e+003,5.578402e-003
3.201390e+003,5.630863e-003
3.203318e+003,5.742385e-003
3.205247e+003,5.845036e-003
3.207175e+003,5.838756e-003
3.209104e+003,5.749369e-003
3.211032e+003,5.740606e-003
3.212961e+003,5.843693e-003
3.214889e+003,5.927793e-003
3.216818e+003,5.967699e-003
3.218747e+003,6.014596e-003
3.220675e+003,6.038518e-003
3.222604e+003,6.005156e-003
3.224532e+003,6.050814e-003
3.226461e+003,6.164629e-003
3.228389e+003,6.185634e-003
3.230318e+003,6.162646e-003
3.232246e+003,6.146280e-003
3.234175e+003,6.152564e-003
3.236104e+003,6.284491e-003
3.238032e+003,6.385925e-003
3.239961e+003,6.361648e-003
3.241889e+003,6.397559e-003
3.243818e+003,6.410034e-003
3.245746e+003,6.361783e-003
3.247675e+003,6.401494e-003
3.249603e+003,6.492394e-003
3.251532e+003,6.572314e-003
3.253460e+003,6.529258e-003
3.255389e+003,6.532588e-003
3.257318e+003,6.633811e-003
3.259246e+003,6.681117e-003
3.261175e+003,6.698850e-003
3.263103e+003,6.725030e-003
3.265032e+003,6.744211e-003
3.266960e+003,6.762989e-003
3.268889e+003,6.773759e-003
3.270817e+003,6.808997e-003
3.272746e+003,6.849994e-003
3.274675e+003,6.914156e-003
3.276603e+003,6.951897e-003
3.278531e+003,6.968867e-003
3.280460e+003,6.936713e-003
3.282389e+003,6.951661e-003
3.284317e+003,7.003481e-003
3.286246e+003,7.065982e-003
3.288174e+003,7.084808e-003
3.290103e+003,7.030116e-003
3.292031e+003,7.040118e-003
3.293960e+003,7.097168e-003
3.295888e+003,7.097875e-003
3.297817e+003,7.080228e-003
3.299746e+003,7.075917e-003
3.301674e+003,7.074670e-003
3.303603e+003,7.122698e-003
3.305531e+003,7.167801e-003
3.307460e+003,7.139809e-003
3.309388e+003,7.166925e-003
3.311317e+003,7.242252e-003
3.313245e+003,7.303574e-003
3.315174e+003,7.247575e-003
3.317103e+003,7.116737e-003
3.319031e+003,7.113806e-003
3.320960e+003,7.218803e-003
3.322888e+003,7.360693e-003
3.324817e+003,7.431941e-003
3.326745e+003,7.401708e-003
3.328674e+003,7.374679e-003
3.330602e+003,7.342798e-003
3.332531e+003,7.301350e-003
3.334459e+003,7.297981e-003
3.336388e+003,7.316817e-003
3.338317e+003,7.442154e-003
3.340245e+003,7.445659e-003
3.342174e+003,7.384385e-003
3.344102e+003,7.339024e-003
3.346031e+003,7.378487e-003
3.347959e+003,7.504819e-003
3.349888e+003,7.522350e-003
3.351816e+003,7.601481e-003
3.353745e+003,7.659145e-003
3.355674e+003,7.566752e-003
3.357602e+003,7.457120e-003
3.359531e+003,7.507618e-003
3.361459e+003,7.568033e-003
3.363388e+003,7.533071e-003
3.365316e+003,7.453918e-003
3.367245e+003,7.465008e-003
3.369173e+003,7.474952e-003
3.371102e+003,7.434436e-003
3.373031e+003,7.470604e-003
3.374959e+003,7.516652e-003
3.376887e+003,7.564628e-003
3.378816e+003,7.487863e-003
3.380745e+003,7.335890e-003
3.382673e+003,7.351762e-003
3.384602e+003,7.384823e-003
3.386530e+003,7.370129e-003
3.388459e+003,7.384587e-003
3.390387e+003,7.360794e-003
3.392316e+003,7.290938e-003
3.394244e+003,7.291646e-003
3.396173e+003,7.378858e-003
3.398102e+003,7.410404e-003
3.400030e+003,7.294274e-003
3.401959e+003,7.205260e-003
3.403887e+003,7.309067e-003
3.405816e+003,7.390148e-003
3.407744e+003,7.383542e-003
3.409673e+003,7.341551e-003
3.411601e+003,7.303069e-003
3.413530e+003,7.189933e-003
3.415458e+003,7.130176e-003
3.417387e+003,7.173089e-003
3.419316e+003,7.177367e-003
3.421244e+003,7.140617e-003
3.423173e+003,7.053050e-003
3.425101e+003,6.918701e-003
3.427030e+003,6.831279e-003
3.428958e+003,6.824917e-003
3.430887e+003,6.881333e-003
3.432815e+003,6.828452e-003
3.434744e+003,6.611034e-003
3.436673e+003,6.542746e-003
3.438601e+003,6.508303e-003
3.440530e+003,6.421804e-003
3.442458e+003,6.418677e-003
3.444387e+003,6.421233e-003
3.446315e+003,6.378561e-003
3.448244e+003,6.383975e-003
3.450172e+003,6.366591e-003
3.452101e+003,6.299013e-003
3.454030e+003,6.291987e-003
3.455958e+003,6.255312e-003
3.457886e+003,6.153236e-003
3.459815e+003,6.244824e-003
3.461744e+003,6.268792e-003
3.463672e+003,6.093924e-003
3.465601e+003,6.009758e-003
3.467529e+003,5.942975e-003
3.469458e+003,5.814309e-003
3.471386e+003,5.740102e-003
3.473315e+003,5.755412e-003
3.475243e+003,5.804336e-003
3.477172e+003,5.696189e-003
3.479101e+003,5.486920e-003
3.481029e+003,5.487122e-003
3.482958e+003,5.535780e-003
3.484886e+003,5.401363e-003
3.486815e+003,5.278659e-003
3.488743e+003,5.234457e-003
3.490672e+003,5.253740e-003
3.492600e+003,5.215643e-003
3.494529e+003,5.096244e-003
3.496458e+003,4.944737e-003
3.498386e+003,4.860593e-003
3.500315e+003,4.864379e-003
3.502243e+003,4.921513e-003
3.504172e+003,4.886662e-003
3.506100e+003,4.758409e-003
3.508029e+003,4.756164e-003
3.509957e+003,4.803735e-003
3.511886e+003,4.740587e-003
3.513814e+003,4.670348e-003
3.515743e+003,4.575810e-003
3.517672e+003,4.510854e-003
3.519600e+003,4.498500e-003
3.521529e+003,4.462545e-003
3.523457e+003,4.355836e-003
3.525386e+003,4.240487e-003
3.527314e+003,4.179127e-003
3.529243e+003,4.137445e-003
3.531171e+003,4.109046e-003
3.533100e+003,4.061183e-003
3.535029e+003,3.888004e-003
3.536957e+003,3.833814e-003
3.538885e+003,3.812220e-003
3.540814e+003,3.618759e-003
3.542743e+003,3.517368e-003
3.544671e+003,3.484634e-003
3.546600e+003,3.366945e-003
3.548528e+003,3.351918e-003
3.550457e+003,3.435771e-003
3.552385e+003,3.404913e-003
3.554314e+003,3.341668e-003
3.556242e+003,3.302803e-003
3.558171e+003,3.119114e-003
3.560100e+003,3.003959e-003
3.562028e+003,3.022277e-003
3.563957e+003,2.939538e-003
3.565885e+003,2.813359e-003
3.567814e+003,2.763938e-003
3.569742e+003,2.741831e-003
3.571671e+003,2.774775e-003
3.573599e+003,2.708421e-003
3.575528e+003,2.546813e-003
3.577457e+003,2.480793e-003
3.579385e+003,2.318103e-003
3.581314e+003,2.162800e-003
3.583242e+003,2.091412e-003
3.585171e+003,1.987514e-003
3.587099e+003,1.958423e-003
3.589028e+003,2.105029e-003
3.590956e+003,2.174355e-003
3.592885e+003,1.986881e-003
3.594813e+003,1.847868e-003
3.596742e+003,1.883907e-003
3.598671e+003,1.977828e-003
3.600599e+003,1.988712e-003
3.602528e+003,1.954861e-003
3.604456e+003,1.881777e-003
3.606385e+003,1.830199e-003
3.608313e+003,1.695494e-003
3.610242e+003,1.471321e-003
3.612170e+003,1.327920e-003
3.614099e+003,1.279631e-003
3.616028e+003,1.147920e-003
3.617956e+003,1.051920e-003
3.619885e+003,1.125530e-003
3.621813e+003,1.181841e-003
3.623742e+003,1.145296e-003
3.625670e+003,9.882196e-004
3.627599e+003,6.845252e-004
3.629527e+003,6.644479e-004
3.631456e+003,8.573938e-004
3.633385e+003,8.568959e-004
3.635313e+003,8.386697e-004
3.637241e+003,8.663246e-004
3.639170e+003,8.287768e-004
3.641099e+003,7.390205e-004
3.643027e+003,6.348149e-004
3.644956e+003,4.527807e-004
3.646884e+003,2.616720e-004
3.648813e+003,2.531184e-004
3.650741e+003,3.987524e-004
3.652670e+003,4.738764e-004
3.654598e+003,4.048547e-004
3.656527e+003,3.794842e-004
3.658456e+003,3.695354e-004
3.660384e+003,3.412821e-004
3.662313e+003,3.023871e-004
3.664241e+003,2.677061e-004
3.666170e+003,2.053802e-004
3.668098e+003,-1.206062e-005
3.670027e+003,-1.214524e-004
3.671955e+003,-1.712996e-005
3.673884e+003,-1.066454e-004
3.675813e+003,-1.527873e-004
3.677741e+003,-8.365540e-005
3.679670e+003,-7.176240e-005
3.681598e+003,-1.497633e-005
3.683527e+003,3.065007e-005
3.685455e+003,-2.107274e-005
3.687384e+003,-2.267102e-004
3.689312e+003,-1.821327e-004
3.691241e+003,-1.444735e-004
3.693169e+003,-1.530192e-004
3.695098e+003,-1.218168e-004
3.697027e+003,-1.370870e-004
3.698955e+003,-1.854116e-004
3.700884e+003,-3.070440e-004
3.702812e+003,-2.983689e-004
3.704741e+003,-2.264452e-004
3.706669e+003,-2.568785e-004
3.708598e+003,-3.644871e-004
3.710526e+003,-4.632649e-004
3.712455e+003,-4.264576e-004
3.714384e+003,-3.242281e-004
3.716312e+003,-3.311147e-004
3.718240e+003,-3.773652e-004
3.720169e+003,-3.838207e-004
3.722098e+003,-3.312803e-004
3.724026e+003,-3.895478e-004
3.725955e+003,-5.067213e-004
3.727883e+003,-5.241292e-004
3.729812e+003,-4.971898e-004
3.731740e+003,-4.922915e-004
3.733669e+003,-5.331968e-004
3.735597e+003,-6.197936e-004
3.737526e+003,-5.127116e-004
3.739455e+003,-4.323827e-004
3.741383e+003,-5.646345e-004
3.743312e+003,-7.951513e-004
3.745240e+003,-6.151945e-004
3.747169e+003,-6.445087e-004
3.749097e+003,-8.423775e-004
3.751026e+003,-8.257100e-004
3.752954e+003,-7.234752e-004
3.754883e+003,-5.883931e-004
3.756812e+003,-6.291902e-004
3.758740e+003,-6.323995e-004
3.760669e+003,-5.403780e-004
3.762597e+003,-5.264457e-004
3.764526e+003,-6.107278e-004
3.766454e+003,-6.116211e-004
3.768383e+003,-6.876493e-004
3.770311e+003,-7.328364e-004
3.772240e+003,-6.879802e-004
3.774168e+003,-6.156908e-004
3.776097e+003,-6.478172e-004
3.778026e+003,-7.516575e-004
3.779954e+003,-7.298263e-004
3.781883e+003,-6.759713e-004
3.783811e+003,-6.959858e-004
3.785740e+003,-6.724977e-004
3.787668e+003,-7.059100e-004
3.789597e+003,-7.986240e-004
3.791525e+003,-7.776550e-004
3.793454e+003,-7.843692e-004
3.795383e+003,-8.774632e-004
3.797311e+003,-8.614584e-004
3.799240e+003,-1.013546e-003
3.801168e+003,-1.087455e-003
3.803097e+003,-8.837790e-004
3.805025e+003,-8.943602e-004
3.806954e+003,-9.306319e-004
3.808882e+003,-8.033864e-004
3.810811e+003,-7.293302e-004
3.812740e+003,-7.437521e-004
3.814668e+003,-8.803731e-004
3.816596e+003,-8.473049e-004
3.818525e+003,-8.878462e-004
3.820454e+003,-1.104013e-003
3.822382e+003,-1.066533e-003
3.824311e+003,-9.886869e-004
3.826239e+003,-8.403934e-004
3.828168e+003,-7.776550e-004
3.830096e+003,-9.712316e-004
3.832025e+003,-1.125462e-003
3.833953e+003,-1.121331e-003
3.835882e+003,-1.165581e-003
3.837811e+003,-1.164391e-003
3.839739e+003,-1.057609e-003
3.841668e+003,-1.106525e-003
3.843596e+003,-1.149058e-003
3.845525e+003,-1.126090e-003
3.847453e+003,-1.117002e-003
3.849382e+003,-1.195255e-003
3.851310e+003,-1.409023e-003
3.853239e+003,-1.554514e-003
3.855167e+003,-1.288261e-003
3.857096e+003,-1.098659e-003
3.859025e+003,-1.102691e-003
3.860953e+003,-1.252316e-003
3.862882e+003,-1.345211e-003
3.864810e+003,-1.297180e-003
3.866739e+003,-1.177874e-003
3.868667e+003,-1.224398e-003
3.870596e+003,-1.151603e-003
3.872524e+003,-1.103551e-003
3.874453e+003,-1.157981e-003
3.876382e+003,-1.193140e-003
3.878310e+003,-1.259188e-003
3.880239e+003,-1.272139e-003
3.882167e+003,-1.351619e-003
3.884096e+003,-1.425008e-003
3.886024e+003,-1.406843e-003
3.887953e+003,-1.389207e-003
3.889881e+003,-1.325292e-003
3.891810e+003,-1.207414e-003
3.893739e+003,-1.192215e-003
3.895667e+003,-1.241578e-003
3.897595e+003,-1.258098e-003
3.899524e+003,-1.322418e-003
3.901453e+003,-1.392873e-003
3.903381e+003,-1.398851e-003
3.905310e+003,-1.419393e-003
3.907238e+003,-1.455819e-003
3.909167e+003,-1.458197e-003
3.911095e+003,-1.400898e-003
3.913024e+003,-1.350859e-003
3.914952e+003,-1.375533e-003
3.916881e+003,-1.419327e-003
3.918810e+003,-1.436104e-003
3.920738e+003,-1.427584e-003
3.922667e+003,-1.394194e-003
3.924595e+003,-1.404630e-003
3.926524e+003,-1.472727e-003
3.928452e+003,-1.551114e-003
3.930381e+003,-1.637508e-003
3.932309e+003,-1.666687e-003
3.934238e+003,-1.671044e-003
3.936167e+003,-1.610076e-003
3.938095e+003,-1.601394e-003
3.940024e+003,-1.673619e-003
3.941952e+003,-1.677843e-003
3.943881e+003,-1.669526e-003
3.945809e+003,-1.663254e-003
3.947738e+003,-1.704512e-003
3.949666e+003,-1.668205e-003
3.951595e+003,-1.586274e-003
3.953523e+003,-1.565674e-003
3.955452e+003,-1.627440e-003
3.957380e+003,-1.744709e-003
3.959309e+003,-1.796221e-003
3.961238e+003,-1.801335e-003
3.963166e+003,-1.841821e-003
3.965095e+003,-1.822486e-003
3.967023e+003,-1.718175e-003
3.968952e+003,-1.674543e-003
3.970880e+003,-1.681705e-003
3.972809e+003,-1.680781e-003
3.974737e+003,-1.716723e-003
3.976666e+003,-1.780052e-003
3.978594e+003,-1.759526e-003
3.980523e+003,-1.731739e-003
3.982452e+003,-1.695996e-003
3.984380e+003,-1.819285e-003
3.986309e+003,-1.855777e-003
3.988237e+003,-1.819681e-003
3.990166e+003,-1.888372e-003
3.992094e+003,-1.867852e-003
3.994023e+003,-1.791601e-003
3.995951e+003,-1.762760e-003
3.997880e+003,-1.825785e-003
3.999809e+003,-1.925485e-003
4.001737e+003,0.000000e+000
