3.992094e+002,0.000000e+000
4.011380e+002,0.000000e+000
4.030665e+002,0.000000e+000
4.049951e+002,0.000000e+000
4.069236e+002,0.000000e+000
4.088522e+002,0.000000e+000
4.107807e+002,0.000000e+000
4.127093e+002,0.000000e+000
4.146378e+002,0.000000e+000
4.165664e+002,0.000000e+000
4.184949e+002,0.000000e+000
4.204235e+002,0.000000e+000
4.223520e+002,0.000000e+000
4.242806e+002,0.000000e+000
4.262091e+002,0.000000e+000
4.281377e+002,0.000000e+000
4.300662e+002,0.000000e+000
4.319948e+002,0.000000e+000
4.339233e+002,0.000000e+000
4.358519e+002,0.000000e+000
4.377804e+002,0.000000e+000
4.397090e+002,0.000000e+000
4.416375e+002,0.000000e+000
4.435660e+002,0.000000e+000
4.454946e+002,0.000000e+000
4.474232e+002,0.000000e+000
4.493517e+002,0.000000e+000
4.512802e+002,0.000000e+000
4.532088e+002,0.000000e+000
4.551373e+002,0.000000e+000
4.570659e+002,0.000000e+000
4.589944e+002,0.000000e+000
4.609230e+002,0.000000e+000
4.628515e+002,0.000000e+000
4.647801e+002,0.000000e+000
4.667086e+002,0.000000e+000
4.686372e+002,0.000000e+000
4.705657e+002,0.000000e+000
4.724943e+002,0.000000e+000
4.744228e+002,0.000000e+000
4.763514e+002,0.000000e+000
4.782799e+002,0.000000e+000
4.802085e+002,0.000000e+000
4.821370e+002,0.000000e+000
4.840656e+002,0.000000e+000
4.859941e+002,0.000000e+000
4.879226e+002,0.000000e+000
4.898512e+002,0.000000e+000
4.917798e+002,0.000000e+000
4.937083e+002,0.000000e+000
4.956368e+002,0.000000e+000
4.975654e+002,0.000000e+000
4.994939e+002,0.000000e+000
5.014225e+002,0.000000e+000
5.033510e+002,0.000000e+000
5.052796e+002,0.000000e+000
5.072081e+002,0.000000e+000
5.091367e+002,0.000000e+000
5.110652e+002,0.000000e+000
5.129938e+002,0.000000e+000
5.149223e+002,0.000000e+000
5.168509e+002,0.000000e+000
5.187794e+002,0.000000e+000
5.207079e+002,0.000000e+000
5.226365e+002,0.000000e+000
5.245651e+002,0.000000e+000
5.264936e+002,0.000000e+000
5.284221e+002,0.000000e+000
5.303507e+002,0.000000e+000
5.322792e+002,0.000000e+000
5.342078e+002,0.000000e+000
5.361364e+002,0.000000e+000
5.380649e+002,0.000000e+000
5.399934e+002,0.000000e+000
5.419220e+002,0.000000e+000
5.438505e+002,0.000000e+000
5.457791e+002,0.000000e+000
5.477076e+002,0.000000e+000
5.496362e+002,0.000000e+000
5.515647e+002,0.000000e+000
5.534933e+002,0.000000e+000
5.554218e+002,0.000000e+000
5.573503e+002,0.000000e+000
5.592789e+002,0.000000e+000
5.612075e+002,0.000000e+000
5.631360e+002,0.000000e+000
5.650646e+002,0.000000e+000
5.669931e+002,0.000000e+000
5.689216e+002,0.000000e+000
5.708502e+002,0.000000e+000
5.727787e+002,0.000000e+000
5.747073e+002,0.000000e+000
5.766359e+002,0.000000e+000
5.785644e+002,0.000000e+000
5.804929e+002,0.000000e+000
5.824215e+002,0.000000e+000
5.843500e+002,0.000000e+000
5.862786e+002,0.000000e+000
5.882072e+002,0.000000e+000
5.901357e+002,0.000000e+000
5.920642e+002,0.000000e+000
5.939928e+002,0.000000e+000
5.959213e+002,0.000000e+000
5.978499e+002,0.000000e+000
5.997784e+002,0.000000e+000
6.017070e+002,0.000000e+000
6.036355e+002,0.000000e+000
6.055641e+002,0.000000e+000
6.074926e+002,0.000000e+000
6.094211e+002,0.000000e+000
6.113497e+002,0.000000e+000
6.132783e+002,0.000000e+000
6.152068e+002,0.000000e+000
6.171354e+002,0.000000e+000
6.190639e+002,0.000000e+000
6.209924e+002,0.000000e+000
6.229210e+002,0.000000e+000
6.248495e+002,0.000000e+000
6.267781e+002,0.000000e+000
6.287067e+002,0.000000e+000
6.306352e+002,0.000000e+000
6.325637e+002,0.000000e+000
6.344923e+002,0.000000e+000
6.364208e+002,0.000000e+000
6.383494e+002,0.000000e+000
6.402780e+002,0.000000e+000
6.422065e+002,0.000000e+000
6.441350e+002,0.000000e+000
6.460636e+002,0.000000e+000
6.479921e+002,0.000000e+000
6.499207e+002,0.000000e+000
6.518492e+002,0.000000e+000
6.537778e+002,0.000000e+000
6.557063e+002,0.000000e+000
6.576349e+002,0.000000e+000
6.595634e+002,0.000000e+000
6.614919e+002,0.000000e+000
6.634205e+002,0.000000e+000
6.653491e+002,0.000000e+000
6.672776e+002,0.000000e+000
6.692062e+002,0.000000e+000
6.711347e+002,0.000000e+000
6.730632e+002,0.000000e+000
6.749918e+002,-2.286745e-003
6.769203e+002,-2.026777e-003
6.788489e+002,-1.829283e-003
6.807775e+002,-1.960219e-003
6.827060e+002,-1.954447e-003
6.846345e+002,-1.368134e-003
6.865631e+002,-6.567500e-004
6.884916e+002,-1.549734e-004
6.904202e+002,2.402284e-005
6.923488e+002,3.247257e-005
6.942773e+002,2.339893e-004
6.962058e+002,8.084937e-004
6.981344e+002,1.329681e-003
7.000629e+002,2.213851e-003
7.019915e+002,3.310449e-003
7.039200e+002,4.241189e-003
7.058486e+002,5.366239e-003
7.077771e+002,7.395271e-003
7.097057e+002,1.047408e-002
7.116342e+002,1.550143e-002
7.135627e+002,2.506970e-002
7.154913e+002,4.216614e-002
7.174199e+002,6.623748e-002
7.193484e+002,7.839115e-002
7.212770e+002,5.933544e-002
7.232055e+002,3.714005e-002
7.251340e+002,3.091753e-002
7.270626e+002,3.800605e-002
7.289911e+002,5.352753e-002
7.309197e+002,5.255510e-002
7.328483e+002,2.704088e-002
7.347768e+002,7.042846e-003
7.367053e+002,1.478693e-004
7.386339e+002,-2.207733e-003
7.405624e+002,-3.586292e-003
7.424910e+002,-4.220418e-003
7.444196e+002,-4.517640e-003
7.463481e+002,-4.907418e-003
7.482766e+002,-5.500361e-003
7.502052e+002,-5.769964e-003
7.521337e+002,-6.089555e-003
7.540623e+002,-6.376914e-003
7.559908e+002,-6.462321e-003
7.579194e+002,-6.382595e-003
7.598479e+002,-6.395688e-003
7.617765e+002,-6.338449e-003
7.637050e+002,-6.363657e-003
7.656335e+002,-6.496792e-003
7.675621e+002,-6.736384e-003
7.694907e+002,-6.659515e-003
7.714192e+002,-6.724150e-003
7.733478e+002,-6.932247e-003
7.752763e+002,-6.897908e-003
7.772048e+002,-6.817806e-003
7.791334e+002,-6.724476e-003
7.810620e+002,-6.611285e-003
7.829905e+002,-6.616083e-003
7.849191e+002,-6.707544e-003
7.868476e+002,-6.909127e-003
7.887761e+002,-6.881439e-003
7.907047e+002,-6.762124e-003
7.926332e+002,-6.640230e-003
7.945618e+002,-6.625187e-003
7.964904e+002,-6.617551e-003
7.984189e+002,-6.438490e-003
8.003474e+002,-6.415342e-003
8.022760e+002,-6.549277e-003
8.042045e+002,-6.445476e-003
8.061331e+002,-6.441754e-003
8.080616e+002,-6.449100e-003
8.099902e+002,-6.210100e-003
8.119187e+002,-6.124611e-003
8.138473e+002,-6.266997e-003
8.157758e+002,-6.165545e-003
8.177043e+002,-6.064331e-003
8.196329e+002,-6.022505e-003
8.215615e+002,-5.989172e-003
8.234900e+002,-6.051620e-003
8.254186e+002,-6.188869e-003
8.273471e+002,-6.079655e-003
8.292756e+002,-5.834371e-003
8.312042e+002,-5.738279e-003
8.331328e+002,-5.692302e-003
8.350613e+002,-5.604454e-003
8.369899e+002,-5.664635e-003
8.389184e+002,-5.727946e-003
8.408469e+002,-5.708686e-003
8.427755e+002,-5.682066e-003
8.447040e+002,-5.741843e-003
8.466326e+002,-5.453377e-003
8.485612e+002,-5.309186e-003
8.504896e+002,-5.445524e-003
8.524182e+002,-5.594543e-003
8.543468e+002,-5.547242e-003
8.562753e+002,-5.401609e-003
8.582039e+002,-5.372975e-003
8.601324e+002,-5.354189e-003
8.620609e+002,-5.292198e-003
8.639895e+002,-5.317434e-003
8.659181e+002,-5.379815e-003
8.678466e+002,-5.221326e-003
8.697751e+002,-4.957967e-003
8.717037e+002,-4.898048e-003
8.736322e+002,-4.830421e-003
8.755608e+002,-4.761047e-003
8.774894e+002,-4.936247e-003
8.794178e+002,-5.255012e-003
8.813464e+002,-5.356382e-003
8.832750e+002,-5.352520e-003
8.852035e+002,-5.360113e-003
8.871321e+002,-5.364269e-003
8.890607e+002,-5.299072e-003
8.909891e+002,-5.348789e-003
8.929177e+002,-5.513415e-003
8.948463e+002,-5.617897e-003
8.967748e+002,-5.542695e-003
8.987034e+002,-5.428279e-003
9.006320e+002,-5.379520e-003
9.025604e+002,-5.417971e-003
9.044890e+002,-5.382531e-003
9.064176e+002,-5.305913e-003
9.083461e+002,-5.262345e-003
9.102747e+002,-5.337694e-003
9.122032e+002,-5.465156e-003
9.141317e+002,-5.562977e-003
9.160603e+002,-5.560883e-003
9.179889e+002,-5.535661e-003
9.199174e+002,-5.583683e-003
9.218459e+002,-5.575571e-003
9.237745e+002,-5.555388e-003
9.257030e+002,-5.613907e-003
9.276316e+002,-5.639811e-003
9.295602e+002,-5.698352e-003
9.314886e+002,-5.716959e-003
9.334172e+002,-5.796055e-003
9.353458e+002,-5.848756e-003
9.372743e+002,-5.900731e-003
9.392029e+002,-5.998715e-003
9.411315e+002,-6.075865e-003
9.430599e+002,-6.112425e-003
9.449885e+002,-6.147120e-003
9.469171e+002,-6.160906e-003
9.488456e+002,-6.198831e-003
9.507742e+002,-6.212191e-003
9.527028e+002,-6.244363e-003
9.546312e+002,-6.233585e-003
9.565598e+002,-6.200660e-003
9.584884e+002,-6.140554e-003
9.604169e+002,-6.174234e-003
9.623455e+002,-6.236393e-003
9.642740e+002,-6.248250e-003
9.662025e+002,-6.223035e-003
9.681311e+002,-6.149407e-003
9.700597e+002,-6.087562e-003
9.719882e+002,-6.087300e-003
9.739167e+002,-6.082955e-003
9.758453e+002,-6.138823e-003
9.777738e+002,-6.096841e-003
9.797024e+002,-5.922010e-003
9.816310e+002,-5.779151e-003
9.835594e+002,-5.668167e-003
9.854880e+002,-5.515312e-003
9.874166e+002,-5.383349e-003
9.893451e+002,-5.286437e-003
9.912737e+002,-5.161149e-003
9.932023e+002,-4.965697e-003
9.951307e+002,-4.803157e-003
9.970593e+002,-4.721783e-003
9.989879e+002,-4.694120e-003
1.000916e+003,-4.600791e-003
1.002845e+003,-4.392754e-003
1.004774e+003,-4.173656e-003
1.006702e+003,-4.043911e-003
1.008631e+003,-3.955072e-003
1.010559e+003,-3.916556e-003
1.012488e+003,-3.814981e-003
1.014416e+003,-3.648593e-003
1.016345e+003,-3.503210e-003
1.018273e+003,-3.406305e-003
1.020202e+003,-3.310299e-003
1.022130e+003,-3.321084e-003
1.024059e+003,-3.341766e-003
1.025988e+003,-3.285932e-003
1.027916e+003,-3.154835e-003
1.029845e+003,-3.054431e-003
1.031773e+003,-3.041796e-003
1.033702e+003,-2.954891e-003
1.035630e+003,-2.804009e-003
1.037559e+003,-2.689594e-003
1.039487e+003,-2.489699e-003
1.041416e+003,-2.280153e-003
1.043344e+003,-2.153731e-003
1.045273e+003,-2.034462e-003
1.047202e+003,-1.834232e-003
1.049130e+003,-1.621531e-003
1.051059e+003,-1.379860e-003
1.052987e+003,-1.271742e-003
1.054916e+003,-1.151173e-003
1.056844e+003,-9.746368e-004
1.058773e+003,-7.898264e-004
1.060701e+003,-5.854151e-004
1.062630e+003,-3.581638e-004
1.064558e+003,-2.436325e-004
1.066487e+003,-2.050182e-004
1.068416e+003,-1.444735e-004
1.070344e+003,-5.814635e-005
1.072273e+003,9.603307e-005
1.074201e+003,3.247024e-004
1.076130e+003,5.876319e-004
1.078058e+003,8.617430e-004
1.079987e+003,1.019836e-003
1.081915e+003,9.999759e-004
1.083844e+003,8.217058e-004
1.085773e+003,7.138628e-004
1.087701e+003,6.428784e-004
1.089630e+003,5.155402e-004
1.091558e+003,2.654516e-004
1.093487e+003,1.139826e-005
1.095415e+003,-9.405735e-005
1.097344e+003,-1.259905e-004
1.099272e+003,-2.095222e-004
1.101201e+003,-2.762169e-004
1.103129e+003,-3.201887e-004
1.105058e+003,-3.432655e-004
1.106987e+003,-2.958855e-004
1.108915e+003,-2.906539e-004
1.110844e+003,-2.645279e-004
1.112772e+003,-1.481833e-004
1.114701e+003,-8.713378e-005
1.116629e+003,-5.032769e-005
1.118558e+003,-3.114588e-006
1.120486e+003,1.325364e-006
1.122415e+003,-7.593658e-005
1.124344e+003,-1.822983e-004
1.126272e+003,-3.342270e-004
1.128201e+003,-4.633311e-004
1.130129e+003,-5.801207e-004
1.132058e+003,-6.689909e-004
1.133986e+003,-7.080271e-004
1.135915e+003,-6.931408e-004
1.137843e+003,-5.997756e-004
1.139772e+003,-4.214923e-004
1.141700e+003,-2.409170e-004
1.143629e+003,-1.365902e-004
1.145557e+003,-4.976448e-005
1.147486e+003,2.289623e-005
1.149415e+003,2.902639e-005
1.151343e+003,3.850346e-005
1.153272e+003,7.339810e-005
1.155200e+003,1.406436e-004
1.157129e+003,2.161540e-004
1.159057e+003,3.268909e-004
1.160986e+003,4.219018e-004
1.162914e+003,4.731798e-004
1.164843e+003,5.107301e-004
1.166771e+003,6.138109e-004
1.168700e+003,6.610299e-004
1.170629e+003,6.381332e-004
1.172557e+003,5.788064e-004
1.174486e+003,5.041950e-004
1.176414e+003,4.114545e-004
1.178343e+003,2.841179e-004
1.180271e+003,1.048488e-004
1.182200e+003,-9.886072e-005
1.184128e+003,-2.489972e-004
1.186057e+003,-3.418750e-004
1.187986e+003,-4.206979e-004
1.189914e+003,-4.959983e-004
1.191843e+003,-5.543430e-004
1.193771e+003,-5.924300e-004
1.195700e+003,-6.410679e-004
1.197628e+003,-6.553605e-004
1.199557e+003,-7.120629e-004
1.201485e+003,-7.563544e-004
1.203414e+003,-7.691548e-004
1.205343e+003,-7.657480e-004
1.207271e+003,-7.439506e-004
1.209200e+003,-7.348542e-004
1.211128e+003,-7.679310e-004
1.213057e+003,-8.163839e-004
1.214985e+003,-8.298439e-004
1.216914e+003,-7.866844e-004
1.218842e+003,-7.739838e-004
1.220771e+003,-7.570821e-004
1.222699e+003,-7.481845e-004
1.224628e+003,-7.239052e-004
1.226557e+003,-6.504309e-004
1.228485e+003,-6.347155e-004
1.230414e+003,-5.849518e-004
1.232342e+003,-4.862679e-004
1.234271e+003,-4.709106e-004
1.236199e+003,-4.696198e-004
1.238128e+003,-4.235446e-004
1.240056e+003,-3.703138e-004
1.241985e+003,-3.614082e-004
1.243913e+003,-3.989163e-004
1.245842e+003,-3.619379e-004
1.247771e+003,-2.370094e-004
1.249699e+003,-1.557021e-004
1.251628e+003,-8.806135e-005
1.253556e+003,-2.726846e-005
1.255485e+003,4.029286e-005
1.257413e+003,1.746184e-004
1.259342e+003,2.875661e-004
1.261270e+003,3.478479e-004
1.263199e+003,3.881399e-004
1.265127e+003,3.563702e-004
1.267056e+003,2.841511e-004
1.268985e+003,1.763089e-004
1.270913e+003,1.194978e-004
1.272842e+003,1.045505e-004
1.274770e+003,7.482310e-005
1.276699e+003,6.753243e-005
1.278627e+003,6.928881e-005
1.280556e+003,6.902369e-005
1.282484e+003,1.392516e-004
1.284413e+003,2.525548e-004
1.286342e+003,3.610128e-004
1.288270e+003,4.215370e-004
1.290199e+003,4.436926e-004
1.292127e+003,4.653849e-004
1.294056e+003,5.360418e-004
1.295984e+003,6.084688e-004
1.297913e+003,6.475904e-004
1.299841e+003,6.688947e-004
1.301770e+003,6.913616e-004
1.303698e+003,6.907974e-004
1.305627e+003,6.709854e-004
1.307556e+003,6.491500e-004
1.309484e+003,5.711755e-004
1.311413e+003,4.795485e-004
1.313341e+003,4.256496e-004
1.315270e+003,3.029176e-004
1.317198e+003,1.941757e-004
1.319127e+003,9.308349e-005
1.321055e+003,1.613658e-005
1.322984e+003,-5.400513e-005
1.324912e+003,-1.110511e-004
1.326841e+003,-1.177093e-004
1.328770e+003,-6.550106e-005
1.330698e+003,4.108640e-006
1.332627e+003,1.044179e-004
1.334555e+003,2.737403e-004
1.336484e+003,4.687019e-004
1.338412e+003,6.852553e-004
1.340341e+003,9.282806e-004
1.342269e+003,1.140379e-003
1.344198e+003,1.365743e-003
1.346126e+003,1.612575e-003
1.348055e+003,1.871428e-003
1.349984e+003,2.093609e-003
1.351912e+003,2.220512e-003
1.353841e+003,2.247389e-003
1.355769e+003,2.230769e-003
1.357698e+003,2.221877e-003
1.359626e+003,2.298117e-003
1.361555e+003,2.491757e-003
1.363483e+003,2.858216e-003
1.365412e+003,3.290484e-003
1.367341e+003,3.573222e-003
1.369269e+003,3.548902e-003
1.371198e+003,3.369115e-003
1.373126e+003,3.254161e-003
1.375055e+003,3.401340e-003
1.376983e+003,3.677835e-003
1.378912e+003,3.602655e-003
1.380840e+003,3.149651e-003
1.382769e+003,2.714456e-003
1.384698e+003,2.376935e-003
1.386626e+003,2.083255e-003
1.388555e+003,1.895055e-003
1.390483e+003,1.805078e-003
1.392412e+003,1.793799e-003
1.394340e+003,1.789873e-003
1.396269e+003,1.798557e-003
1.398197e+003,1.853691e-003
1.400126e+003,1.974632e-003
1.402054e+003,2.086751e-003
1.403983e+003,2.151345e-003
1.405911e+003,2.235832e-003
1.407840e+003,2.314705e-003
1.409769e+003,2.383932e-003
1.411697e+003,2.519684e-003
1.413626e+003,2.691051e-003
1.415554e+003,2.822164e-003
1.417483e+003,2.921558e-003
1.419411e+003,3.078367e-003
1.421340e+003,3.232897e-003
1.423268e+003,3.429726e-003
1.425197e+003,3.791931e-003
1.427125e+003,4.343486e-003
1.429054e+003,5.082935e-003
1.430983e+003,5.921545e-003
1.432911e+003,6.738658e-003
1.434840e+003,7.420448e-003
1.436768e+003,8.009235e-003
1.438697e+003,8.644856e-003
1.440625e+003,9.213071e-003
1.442554e+003,9.770609e-003
1.444482e+003,1.034715e-002
1.446411e+003,1.104103e-002
1.448340e+003,1.202853e-002
1.450268e+003,1.360441e-002
1.452197e+003,1.596978e-002
1.454125e+003,1.921925e-002
1.456054e+003,2.300442e-002
1.457982e+003,2.930762e-002
1.459911e+003,4.494801e-002
1.461839e+003,6.403415e-002
1.463768e+003,6.201428e-002
1.465697e+003,4.977403e-002
1.467625e+003,4.762411e-002
1.469554e+003,5.474866e-002
1.471482e+003,7.010023e-002
1.473411e+003,6.675497e-002
1.475339e+003,3.608916e-002
1.477268e+003,1.353061e-002
1.479196e+003,5.745978e-003
1.481125e+003,2.975801e-003
1.483053e+003,1.627475e-003
1.484982e+003,8.713047e-004
1.486911e+003,3.996810e-004
1.488839e+003,3.277080e-005
1.490768e+003,-2.006134e-004
1.492696e+003,-3.690226e-004
1.494625e+003,-5.778706e-004
1.496553e+003,-7.255592e-004
1.498482e+003,-7.815248e-004
1.500410e+003,-8.793480e-004
1.502339e+003,-9.774468e-004
1.504267e+003,-1.128106e-003
1.506196e+003,-1.212965e-003
1.508125e+003,-1.161450e-003
1.510053e+003,-1.100510e-003
1.511982e+003,-1.124933e-003
1.513910e+003,-1.175296e-003
1.515839e+003,-1.217261e-003
1.517767e+003,-1.195255e-003
1.519696e+003,-1.257338e-003
1.521624e+003,-1.253869e-003
1.523553e+003,-1.136963e-003
1.525481e+003,-1.057609e-003
1.527410e+003,-9.626028e-004
1.529339e+003,-8.253463e-004
1.531267e+003,-7.657149e-004
1.533196e+003,-7.028996e-004
1.535124e+003,-5.189003e-004
1.537053e+003,-4.538648e-004
1.538981e+003,-4.827265e-004
1.540910e+003,-3.675329e-004
1.542838e+003,-2.169075e-004
1.544767e+003,-1.315222e-004
1.546696e+003,-8.786259e-005
1.548624e+003,-6.371208e-005
1.550553e+003,-6.692560e-005
1.552481e+003,-5.271306e-005
1.554410e+003,-3.571702e-005
1.556338e+003,-1.113492e-004
1.558267e+003,-2.011433e-004
1.560195e+003,-4.363534e-005
1.562124e+003,1.439581e-004
1.564052e+003,2.796751e-004
1.565981e+003,3.795837e-004
1.567910e+003,4.118194e-004
1.569838e+003,5.145450e-004
1.571767e+003,7.514007e-004
1.573695e+003,8.621082e-004
1.575624e+003,9.053034e-004
1.577552e+003,1.091115e-003
1.579481e+003,1.225434e-003
1.581409e+003,1.300734e-003
1.583338e+003,1.369134e-003
1.585266e+003,1.446088e-003
1.587195e+003,1.527611e-003
1.589124e+003,1.545268e-003
1.591052e+003,1.614105e-003
1.592981e+003,1.747688e-003
1.594909e+003,1.870030e-003
1.596838e+003,1.868033e-003
1.598766e+003,1.844341e-003
1.600695e+003,1.888067e-003
1.602623e+003,1.924009e-003
1.604552e+003,1.965279e-003
1.606480e+003,2.026893e-003
1.608409e+003,2.019736e-003
1.610338e+003,2.041041e-003
1.612266e+003,2.067441e-003
1.614195e+003,2.049996e-003
1.616123e+003,2.048198e-003
1.618052e+003,2.178751e-003
1.619980e+003,2.253617e-003
1.621909e+003,2.250486e-003
1.623837e+003,2.337391e-003
1.625766e+003,2.445238e-003
1.627695e+003,2.479693e-003
1.629623e+003,2.597976e-003
1.631552e+003,2.667847e-003
1.633480e+003,2.641344e-003
1.635409e+003,2.666613e-003
1.637337e+003,2.824431e-003
1.639266e+003,2.976935e-003
1.641194e+003,3.105398e-003
1.643123e+003,3.145613e-003
1.645052e+003,3.168842e-003
1.646980e+003,3.277764e-003
1.648909e+003,3.441415e-003
1.650837e+003,3.446992e-003
1.652766e+003,3.463124e-003
1.654694e+003,3.698753e-003
1.656623e+003,3.863365e-003
1.658551e+003,3.855041e-003
1.660480e+003,3.802092e-003
1.662408e+003,3.860958e-003
1.664337e+003,3.956445e-003
1.666266e+003,3.882922e-003
1.668194e+003,3.778361e-003
1.670123e+003,3.790494e-003
1.672051e+003,3.814861e-003
1.673980e+003,3.718537e-003
1.675908e+003,3.667542e-003
1.677837e+003,3.650802e-003
1.679765e+003,3.590595e-003
1.681694e+003,3.476985e-003
1.683622e+003,3.292053e-003
1.685551e+003,3.303605e-003
1.687479e+003,3.381504e-003
1.689408e+003,3.341668e-003
1.691337e+003,3.327611e-003
1.693265e+003,3.289215e-003
1.695194e+003,3.275360e-003
1.697122e+003,3.386746e-003
1.699051e+003,3.401273e-003
1.700979e+003,3.536776e-003
1.702908e+003,3.765627e-003
1.704836e+003,4.008945e-003
1.706765e+003,4.344959e-003
1.708694e+003,4.595600e-003
1.710622e+003,4.741391e-003
1.712551e+003,4.732314e-003
1.714479e+003,4.562550e-003
1.716408e+003,4.333647e-003
1.718336e+003,4.236238e-003
1.720265e+003,4.202446e-003
1.722193e+003,4.224962e-003
1.724122e+003,4.307644e-003
1.726051e+003,4.439481e-003
1.727979e+003,4.644861e-003
1.729908e+003,4.974531e-003
1.731836e+003,5.406597e-003
1.733765e+003,6.023936e-003
1.735693e+003,6.894193e-003
1.737622e+003,7.714118e-003
1.739550e+003,8.191494e-003
1.741479e+003,8.270241e-003
1.743407e+003,8.053519e-003
1.745336e+003,7.686597e-003
1.747265e+003,7.181040e-003
1.749193e+003,6.522833e-003
1.751122e+003,5.765721e-003
1.753050e+003,5.007043e-003
1.754979e+003,4.257418e-003
1.756907e+003,3.613180e-003
1.758836e+003,3.013735e-003
1.760764e+003,2.490990e-003
1.762693e+003,2.148948e-003
1.764621e+003,1.958689e-003
1.766550e+003,1.772805e-003
1.768479e+003,1.554811e-003
1.770407e+003,1.394230e-003
1.772336e+003,1.312731e-003
1.774264e+003,1.260058e-003
1.776193e+003,1.239988e-003
1.778121e+003,1.228690e-003
1.780050e+003,1.169482e-003
1.781978e+003,1.099253e-003
1.783907e+003,1.055541e-003
1.785835e+003,1.063446e-003
1.787764e+003,1.057002e-003
1.789693e+003,1.001504e-003
1.791621e+003,9.542808e-004
1.793550e+003,9.454811e-004
1.795478e+003,9.192490e-004
1.797407e+003,9.147000e-004
1.799335e+003,9.464109e-004
1.801264e+003,9.339587e-004
1.803192e+003,9.382754e-004
1.805121e+003,9.403342e-004
1.807049e+003,9.465105e-004
1.808978e+003,9.234327e-004
1.810907e+003,9.245285e-004
1.812835e+003,9.335602e-004
1.814764e+003,9.153641e-004
1.816692e+003,9.426918e-004
1.818621e+003,1.024918e-003
1.820549e+003,1.023357e-003
1.822478e+003,9.173895e-004
1.824406e+003,8.273161e-004
1.826335e+003,8.042778e-004
1.828264e+003,7.679968e-004
1.830192e+003,7.510356e-004
1.832121e+003,7.715815e-004
1.834049e+003,7.937551e-004
1.835978e+003,8.238304e-004
1.837906e+003,8.128092e-004
1.839835e+003,8.108506e-004
1.841763e+003,8.111162e-004
1.843692e+003,7.950828e-004
1.845620e+003,8.427199e-004
1.847549e+003,8.684494e-004
1.849478e+003,8.779448e-004
1.851406e+003,9.099850e-004
1.853335e+003,9.349548e-004
1.855263e+003,9.644423e-004
1.857192e+003,1.007548e-003
1.859120e+003,9.982159e-004
1.861049e+003,9.782237e-004
1.862977e+003,9.662687e-004
1.864906e+003,9.969538e-004
1.866834e+003,1.049363e-003
1.868763e+003,1.102708e-003
1.870692e+003,1.143867e-003
1.872620e+003,1.186825e-003
1.874549e+003,1.207790e-003
1.876477e+003,1.199450e-003
1.878406e+003,1.209019e-003
1.880334e+003,1.216927e-003
1.882263e+003,1.292060e-003
1.884191e+003,1.405299e-003
1.886120e+003,1.450310e-003
1.888048e+003,1.500247e-003
1.889977e+003,1.584175e-003
1.891906e+003,1.746224e-003
1.893834e+003,1.873923e-003
1.895763e+003,1.918551e-003
1.897691e+003,1.907868e-003
1.899620e+003,1.890729e-003
1.901548e+003,1.832162e-003
1.903477e+003,1.803581e-003
1.905405e+003,1.787411e-003
1.907334e+003,1.784883e-003
1.909263e+003,1.753210e-003
1.911191e+003,1.732751e-003
1.913120e+003,1.735013e-003
1.915048e+003,1.742631e-003
1.916977e+003,1.697789e-003
1.918905e+003,1.700916e-003
1.920834e+003,1.709698e-003
1.922762e+003,1.689939e-003
1.924691e+003,1.713689e-003
1.926620e+003,1.729491e-003
1.928548e+003,1.747787e-003
1.930477e+003,1.767316e-003
1.932405e+003,1.781422e-003
1.934334e+003,1.817223e-003
1.936262e+003,1.830632e-003
1.938191e+003,1.819152e-003
1.940119e+003,1.788609e-003
1.942048e+003,1.760928e-003
1.943976e+003,1.736310e-003
1.945905e+003,1.759398e-003
1.947833e+003,1.835490e-003
1.949762e+003,1.909698e-003
1.951691e+003,1.948471e-003
1.953619e+003,1.945409e-003
1.955548e+003,1.940849e-003
1.957476e+003,1.953064e-003
1.959405e+003,1.951932e-003
1.961333e+003,1.945176e-003
1.963262e+003,1.950701e-003
1.965190e+003,1.968475e-003
1.967119e+003,1.956193e-003
1.969047e+003,1.952498e-003
1.970976e+003,1.921446e-003
1.972905e+003,1.888566e-003
1.974833e+003,1.887002e-003
1.976762e+003,1.906037e-003
1.978690e+003,1.890429e-003
1.980619e+003,1.861877e-003
1.982547e+003,1.866436e-003
1.984476e+003,1.895521e-003
1.986404e+003,1.910630e-003
1.988333e+003,1.885471e-003
1.990262e+003,1.888233e-003
1.992190e+003,1.919349e-003
1.994119e+003,1.949037e-003
1.996047e+003,1.947905e-003
1.997976e+003,1.923809e-003
1.999904e+003,1.929666e-003
2.001833e+003,1.981423e-003
2.003761e+003,2.044370e-003
2.005690e+003,2.050262e-003
2.007619e+003,2.062181e-003
2.009547e+003,2.148548e-003
2.011476e+003,2.232568e-003
2.013404e+003,2.296085e-003
2.015333e+003,2.373837e-003
2.017261e+003,2.404755e-003
2.019190e+003,2.386097e-003
2.021118e+003,2.362909e-003
2.023047e+003,2.347918e-003
2.024975e+003,2.294519e-003
2.026904e+003,2.282295e-003
2.028833e+003,2.263376e-003
2.030761e+003,2.242127e-003
2.032690e+003,2.250287e-003
2.034618e+003,2.224975e-003
2.036547e+003,2.196367e-003
2.038475e+003,2.160203e-003
2.040404e+003,2.106694e-003
2.042332e+003,2.087283e-003
2.044261e+003,2.088648e-003
2.046189e+003,2.084653e-003
2.048118e+003,2.084553e-003
2.050046e+003,2.108159e-003
2.051975e+003,2.118114e-003
2.053904e+003,2.121078e-003
2.055832e+003,2.121544e-003
2.057761e+003,2.097804e-003
2.059689e+003,2.082855e-003
2.061618e+003,2.122876e-003
2.063546e+003,2.170525e-003
2.065475e+003,2.158638e-003
2.067403e+003,2.148149e-003
2.069332e+003,2.166630e-003
2.071260e+003,2.192904e-003
2.073189e+003,2.223076e-003
2.075118e+003,2.240961e-003
2.077046e+003,2.241960e-003
2.078975e+003,2.226407e-003
2.080903e+003,2.190073e-003
2.082832e+003,2.143653e-003
2.084760e+003,2.143853e-003
2.086689e+003,2.165397e-003
2.088617e+003,2.202595e-003
2.090546e+003,2.212419e-003
2.092475e+003,2.201462e-003
2.094403e+003,2.178784e-003
2.096332e+003,2.173289e-003
2.098260e+003,2.200630e-003
2.100189e+003,2.230736e-003
2.102117e+003,2.203028e-003
2.104046e+003,2.171758e-003
2.105974e+003,2.176853e-003
2.107903e+003,2.250886e-003
2.109832e+003,2.316204e-003
2.111760e+003,2.326698e-003
2.113688e+003,2.312307e-003
2.115617e+003,2.336858e-003
2.117546e+003,2.378401e-003
2.119474e+003,2.402922e-003
2.121403e+003,2.376369e-003
2.123331e+003,2.359445e-003
2.125260e+003,2.391761e-003
2.127188e+003,2.403322e-003
2.129117e+003,2.426545e-003
2.131045e+003,2.486258e-003
2.132974e+003,2.524249e-003
2.134903e+003,2.554145e-003
2.136831e+003,2.583009e-003
2.138760e+003,2.558911e-003
2.140688e+003,2.563077e-003
2.142617e+003,2.628010e-003
2.144545e+003,2.659479e-003
2.146474e+003,2.675348e-003
2.148402e+003,2.658912e-003
2.150331e+003,2.663880e-003
2.152260e+003,2.700186e-003
2.154188e+003,2.744231e-003
2.156117e+003,2.731694e-003
2.158045e+003,2.700820e-003
2.159974e+003,2.682616e-003
2.161902e+003,2.686750e-003
2.163831e+003,2.675348e-003
2.165759e+003,2.659546e-003
2.167688e+003,2.669581e-003
2.169616e+003,2.696752e-003
2.171545e+003,2.716757e-003
2.173474e+003,2.735929e-003
2.175402e+003,2.743965e-003
2.177331e+003,2.764972e-003
2.179259e+003,2.796418e-003
2.181188e+003,2.814726e-003
2.183116e+003,2.811792e-003
2.185045e+003,2.807723e-003
2.186973e+003,2.822030e-003
2.188902e+003,2.843908e-003
2.190831e+003,2.851779e-003
2.192759e+003,2.854547e-003
2.194688e+003,2.867622e-003
2.196616e+003,2.886801e-003
2.198545e+003,2.872425e-003
2.200473e+003,2.894773e-003
2.202402e+003,2.955551e-003
2.204330e+003,2.952715e-003
2.206259e+003,2.900410e-003
2.208188e+003,2.907682e-003
2.210116e+003,2.980972e-003
2.212044e+003,3.054942e-003
2.213973e+003,3.069191e-003
2.215902e+003,3.056244e-003
2.217830e+003,3.026280e-003
2.219759e+003,2.983174e-003
2.221687e+003,3.009931e-003
2.223616e+003,3.047935e-003
2.225544e+003,3.055410e-003
2.227473e+003,3.054976e-003
2.229401e+003,3.029283e-003
2.231330e+003,2.988946e-003
2.233259e+003,2.985276e-003
2.235187e+003,3.022777e-003
2.237116e+003,3.088445e-003
2.239044e+003,3.183562e-003
2.240973e+003,3.193208e-003
2.242901e+003,3.168442e-003
2.244830e+003,3.204089e-003
2.246758e+003,3.220412e-003
2.248687e+003,3.210698e-003
2.250615e+003,3.191639e-003
2.252544e+003,3.208929e-003
2.254473e+003,3.186332e-003
2.256401e+003,3.179089e-003
2.258330e+003,3.212635e-003
2.260258e+003,3.262507e-003
2.262187e+003,3.287179e-003
2.264115e+003,3.270853e-003
2.266044e+003,3.237971e-003
2.267972e+003,3.287045e-003
2.269901e+003,3.332719e-003
2.271830e+003,3.316492e-003
2.273758e+003,3.332218e-003
2.275687e+003,3.346910e-003
2.277615e+003,3.417837e-003
2.279544e+003,3.428824e-003
2.281472e+003,3.381971e-003
2.283401e+003,3.426386e-003
2.285329e+003,3.445556e-003
2.287258e+003,3.406416e-003
2.289187e+003,3.386579e-003
2.291115e+003,3.383808e-003
2.293043e+003,3.405414e-003
2.294972e+003,3.435904e-003
2.296901e+003,3.450432e-003
2.298829e+003,3.456678e-003
2.300758e+003,3.438877e-003
2.302686e+003,3.466330e-003
2.304615e+003,3.526420e-003
2.306543e+003,3.550071e-003
2.308472e+003,3.551708e-003
2.310400e+003,3.575227e-003
2.312329e+003,3.651370e-003
2.314258e+003,3.702329e-003
2.316186e+003,3.700157e-003
2.318115e+003,3.692371e-003
2.320043e+003,3.732907e-003
2.321972e+003,3.790995e-003
2.323900e+003,3.797312e-003
2.325829e+003,3.814827e-003
2.327757e+003,3.840099e-003
2.329686e+003,3.834215e-003
2.331615e+003,3.787185e-003
2.333543e+003,3.757371e-003
2.335472e+003,3.771710e-003
2.337400e+003,3.827363e-003
2.339329e+003,3.854607e-003
2.341257e+003,3.859655e-003
2.343186e+003,3.872759e-003
2.345114e+003,3.896763e-003
2.347043e+003,3.927456e-003
2.348971e+003,3.892317e-003
2.350900e+003,3.804666e-003
2.352829e+003,3.727894e-003
2.354757e+003,3.662831e-003
2.356686e+003,3.551441e-003
2.358614e+003,3.443285e-003
2.360543e+003,3.357495e-003
2.362471e+003,3.309848e-003
2.364400e+003,3.354723e-003
2.366328e+003,3.401774e-003
2.368257e+003,3.433967e-003
2.370186e+003,3.474747e-003
2.372114e+003,3.485469e-003
2.374042e+003,3.519973e-003
2.375971e+003,3.544091e-003
2.377900e+003,3.590494e-003
2.379828e+003,3.600049e-003
2.381757e+003,3.599949e-003
2.383685e+003,3.611709e-003
2.385614e+003,3.609805e-003
2.387542e+003,3.611275e-003
2.389471e+003,3.608770e-003
2.391399e+003,3.666005e-003
2.393328e+003,3.701594e-003
2.395257e+003,3.697550e-003
2.397185e+003,3.730635e-003
2.399114e+003,3.745039e-003
2.401042e+003,3.738154e-003
2.402971e+003,3.727660e-003
2.404899e+003,3.735614e-003
2.406828e+003,3.747679e-003
2.408756e+003,3.765092e-003
2.410685e+003,3.767665e-003
2.412614e+003,3.763120e-003
2.414542e+003,3.808944e-003
2.416471e+003,3.864168e-003
2.418399e+003,3.836722e-003
2.420328e+003,3.799351e-003
2.422256e+003,3.778194e-003
2.424185e+003,3.747479e-003
2.426113e+003,3.723483e-003
2.428042e+003,3.708344e-003
2.429970e+003,3.714727e-003
2.431899e+003,3.733108e-003
2.433828e+003,3.776690e-003
2.435756e+003,3.853738e-003
2.437685e+003,3.841870e-003
2.439613e+003,3.815463e-003
2.441542e+003,3.848556e-003
2.443470e+003,3.842205e-003
2.445399e+003,3.857014e-003
2.447327e+003,3.894624e-003
2.449256e+003,3.872759e-003
2.451185e+003,3.864669e-003
2.453113e+003,3.851865e-003
2.455042e+003,3.805769e-003
2.456970e+003,3.838160e-003
2.458899e+003,3.899471e-003
2.460827e+003,3.952767e-003
2.462756e+003,3.961627e-003
2.464684e+003,3.943471e-003
2.466613e+003,3.959588e-003
2.468542e+003,4.013292e-003
2.470470e+003,4.089545e-003
2.472398e+003,4.102791e-003
2.474327e+003,4.057972e-003
2.476256e+003,4.039645e-003
2.478184e+003,4.067537e-003
2.480113e+003,4.139820e-003
2.482041e+003,4.216029e-003
2.483970e+003,4.245573e-003
2.485898e+003,4.250692e-003
2.487827e+003,4.269698e-003
2.489755e+003,4.286429e-003
2.491684e+003,4.314706e-003
2.493613e+003,4.352556e-003
2.495541e+003,4.345963e-003
2.497470e+003,4.307310e-003
2.499398e+003,4.353393e-003
2.501327e+003,4.418392e-003
2.503255e+003,4.441523e-003
2.505184e+003,4.393422e-003
2.507112e+003,4.368788e-003
2.509041e+003,4.412300e-003
2.510969e+003,4.431313e-003
2.512898e+003,4.418258e-003
2.514827e+003,4.456586e-003
2.516755e+003,4.495018e-003
2.518684e+003,4.527795e-003
2.520612e+003,4.548286e-003
2.522541e+003,4.540150e-003
2.524469e+003,4.552304e-003
2.526398e+003,4.606215e-003
2.528326e+003,4.692018e-003
2.530255e+003,4.724007e-003
2.532184e+003,4.697980e-003
2.534112e+003,4.700593e-003
2.536041e+003,4.723805e-003
2.537969e+003,4.774756e-003
2.539898e+003,4.821224e-003
2.541826e+003,4.900669e-003
2.543755e+003,4.926137e-003
2.545683e+003,4.928818e-003
2.547612e+003,4.991357e-003
2.549541e+003,5.023266e-003
2.551469e+003,5.036640e-003
2.553397e+003,5.097954e-003
2.555326e+003,5.155655e-003
2.557255e+003,5.156258e-003
2.559183e+003,5.127189e-003
2.561112e+003,5.156795e-003
2.563040e+003,5.235765e-003
2.564969e+003,5.291975e-003
2.566897e+003,5.299085e-003
2.568826e+003,5.285300e-003
2.570754e+003,5.292377e-003
2.572683e+003,5.323067e-003
2.574612e+003,5.354163e-003
2.576540e+003,5.412200e-003
2.578469e+003,5.435450e-003
2.580397e+003,5.440751e-003
2.582326e+003,5.491216e-003
2.584254e+003,5.571622e-003
2.586183e+003,5.610724e-003
2.588111e+003,5.623915e-003
2.590040e+003,5.627809e-003
2.591969e+003,5.678396e-003
2.593897e+003,5.792616e-003
2.595826e+003,5.868411e-003
2.597754e+003,5.903945e-003
2.599683e+003,5.944453e-003
2.601611e+003,5.987451e-003
2.603540e+003,5.987451e-003
2.605468e+003,5.990374e-003
2.607397e+003,6.034150e-003
2.609325e+003,6.112372e-003
2.611254e+003,6.164259e-003
2.613183e+003,6.195482e-003
2.615111e+003,6.192423e-003
2.617040e+003,6.263749e-003
2.618968e+003,6.419080e-003
2.620897e+003,6.578369e-003
2.622825e+003,6.654368e-003
2.624754e+003,6.676608e-003
2.626682e+003,6.738153e-003
2.628611e+003,6.866757e-003
2.630540e+003,7.040051e-003
2.632468e+003,7.126235e-003
2.634396e+003,7.135767e-003
2.636325e+003,7.140685e-003
2.638254e+003,7.128357e-003
2.640182e+003,7.112223e-003
2.642111e+003,7.079789e-003
2.644039e+003,7.067059e-003
2.645968e+003,7.065577e-003
2.647896e+003,7.042610e-003
2.649825e+003,7.038266e-003
2.651753e+003,7.078476e-003
2.653682e+003,7.116030e-003
2.655611e+003,7.179826e-003
2.657539e+003,7.215401e-003
2.659468e+003,7.194211e-003
2.661396e+003,7.205058e-003
2.663325e+003,7.218837e-003
2.665253e+003,7.215771e-003
2.667182e+003,7.217826e-003
2.669110e+003,7.146209e-003
2.671039e+003,7.078039e-003
2.672968e+003,6.999339e-003
2.674896e+003,6.954995e-003
2.676825e+003,6.947520e-003
2.678753e+003,6.955971e-003
2.680682e+003,6.971830e-003
2.682610e+003,6.947722e-003
2.684539e+003,6.900555e-003
2.686467e+003,6.884093e-003
2.688396e+003,6.916143e-003
2.690324e+003,6.995702e-003
2.692253e+003,6.969371e-003
2.694182e+003,6.941426e-003
2.696110e+003,6.999777e-003
2.698039e+003,7.051602e-003
2.699967e+003,7.117713e-003
2.701896e+003,7.188046e-003
2.703824e+003,7.223621e-003
2.705753e+003,7.312605e-003
2.707681e+003,7.403292e-003
2.709610e+003,7.445761e-003
2.711539e+003,7.509843e-003
2.713467e+003,7.565302e-003
2.715396e+003,7.622826e-003
2.717324e+003,7.668250e-003
2.719253e+003,7.728789e-003
2.721181e+003,7.843113e-003
2.723110e+003,7.917240e-003
2.725038e+003,7.946632e-003
2.726967e+003,7.982776e-003
2.728896e+003,8.086430e-003
2.730824e+003,8.170459e-003
2.732752e+003,8.261663e-003
2.734681e+003,8.376936e-003
2.736610e+003,8.470448e-003
2.738538e+003,8.526470e-003
2.740467e+003,8.544413e-003
2.742395e+003,8.560701e-003
2.744324e+003,8.567021e-003
2.746252e+003,8.588177e-003
2.748181e+003,8.675480e-003
2.750109e+003,8.783662e-003
2.752038e+003,8.866710e-003
2.753967e+003,8.947676e-003
2.755895e+003,9.035052e-003
2.757824e+003,9.160480e-003
2.759752e+003,9.265330e-003
2.761681e+003,9.369528e-003
2.763609e+003,9.514086e-003
2.765538e+003,9.695453e-003
2.767466e+003,9.899640e-003
2.769395e+003,1.008893e-002
2.771323e+003,1.024343e-002
2.773252e+003,1.039463e-002
2.775181e+003,1.058638e-002
2.777109e+003,1.084361e-002
2.779038e+003,1.118376e-002
2.780966e+003,1.149901e-002
2.782895e+003,1.176049e-002
2.784823e+003,1.202519e-002
2.786752e+003,1.234425e-002
2.788680e+003,1.274478e-002
2.790609e+003,1.319537e-002
2.792538e+003,1.362883e-002
2.794466e+003,1.399930e-002
2.796395e+003,1.436728e-002
2.798323e+003,1.481963e-002
2.800252e+003,1.528903e-002
2.802180e+003,1.576825e-002
2.804109e+003,1.630854e-002
2.806037e+003,1.690262e-002
2.807966e+003,1.751421e-002
2.809895e+003,1.817879e-002
2.811823e+003,1.890001e-002
2.813751e+003,1.969215e-002
2.815680e+003,2.059456e-002
2.817609e+003,2.168022e-002
2.819537e+003,2.284577e-002
2.821466e+003,2.412996e-002
2.823394e+003,2.573685e-002
2.825323e+003,2.760210e-002
2.827251e+003,2.984150e-002
2.829180e+003,3.262750e-002
2.831108e+003,3.606281e-002
2.833037e+003,4.048046e-002
2.834966e+003,4.636353e-002
2.836894e+003,5.438415e-002
2.838823e+003,6.591211e-002
2.840751e+003,8.322451e-002
2.842680e+003,1.097026e-001
2.844608e+003,1.480587e-001
2.846537e+003,1.905921e-001
2.848465e+003,2.076754e-001
2.850394e+003,1.814850e-001
2.852323e+003,1.375875e-001
2.854251e+003,1.009191e-001
2.856180e+003,7.579377e-002
2.858108e+003,5.914430e-002
2.860037e+003,4.799149e-002
2.861965e+003,4.061059e-002
2.863894e+003,3.601960e-002
2.865822e+003,3.350228e-002
2.867751e+003,3.246940e-002
2.869679e+003,3.252564e-002
2.871608e+003,3.345640e-002
2.873537e+003,3.509799e-002
2.875465e+003,3.750810e-002
2.877394e+003,4.073688e-002
2.879322e+003,4.459119e-002
2.881251e+003,4.875303e-002
2.883179e+003,5.304879e-002
2.885108e+003,5.747071e-002
2.887036e+003,6.208821e-002
2.888965e+003,6.684583e-002
2.890894e+003,7.165048e-002
2.892822e+003,7.639417e-002
2.894750e+003,8.110242e-002
2.896679e+003,8.588243e-002
2.898608e+003,9.085330e-002
2.900536e+003,9.629966e-002
2.902465e+003,1.028995e-001
2.904393e+003,1.116369e-001
2.906322e+003,1.239262e-001
2.908250e+003,1.417314e-001
2.910179e+003,1.674434e-001
2.912107e+003,2.015153e-001
2.914036e+003,2.343825e-001
2.915965e+003,2.452139e-001
2.917893e+003,2.265581e-001
2.919822e+003,1.936563e-001
2.921750e+003,1.607676e-001
2.923679e+003,1.326686e-001
2.925607e+003,1.102735e-001
2.927536e+003,9.293301e-002
2.929464e+003,7.910017e-002
2.931393e+003,6.747310e-002
2.933322e+003,5.755173e-002
2.935250e+003,4.912975e-002
2.937179e+003,4.197034e-002
2.939107e+003,3.582363e-002
2.941036e+003,3.066552e-002
2.942964e+003,2.641584e-002
2.944893e+003,2.290574e-002
2.946821e+003,2.046829e-002
2.948750e+003,1.908195e-002
2.950678e+003,1.826217e-002
2.952607e+003,1.773971e-002
2.954536e+003,1.720384e-002
2.956464e+003,1.654832e-002
2.958393e+003,1.580151e-002
2.960321e+003,1.497380e-002
2.962250e+003,1.410402e-002
2.964178e+003,1.317290e-002
2.966107e+003,1.220836e-002
2.968035e+003,1.126639e-002
2.969964e+003,1.041601e-002
2.971893e+003,9.618174e-003
2.973821e+003,8.857409e-003
2.975750e+003,8.261596e-003
2.977678e+003,7.838557e-003
2.979607e+003,7.445457e-003
2.981535e+003,7.105891e-003
2.983464e+003,6.782307e-003
2.985392e+003,6.471845e-003
2.987321e+003,6.258203e-003
2.989250e+003,6.107667e-003
2.991178e+003,5.901392e-003
2.993106e+003,5.761356e-003
2.995035e+003,5.740606e-003
2.996964e+003,5.654125e-003
2.998892e+003,5.641034e-003
3.000821e+003,5.669802e-003
3.002749e+003,5.654562e-003
3.004678e+003,5.634052e-003
3.006606e+003,5.602635e-003
3.008535e+003,5.538566e-003
3.010463e+003,5.451622e-003
3.012392e+003,5.344401e-003
3.014321e+003,5.253472e-003
3.016249e+003,5.169872e-003
3.018178e+003,5.033389e-003
3.020106e+003,4.958143e-003
3.022035e+003,4.924965e-003
3.023963e+003,4.865183e-003
3.025892e+003,4.845884e-003
3.027820e+003,4.892794e-003
3.029749e+003,4.813618e-003
3.031677e+003,4.690210e-003
3.033606e+003,4.623763e-003
3.035535e+003,4.639001e-003
3.037463e+003,4.649919e-003
3.039392e+003,4.612980e-003
3.041320e+003,4.569783e-003
3.043249e+003,4.512093e-003
3.045177e+003,4.471048e-003
3.047106e+003,4.474028e-003
3.049034e+003,4.459599e-003
3.050963e+003,4.455013e-003
3.052892e+003,4.471986e-003
3.054820e+003,4.436166e-003
3.056749e+003,4.365040e-003
3.058677e+003,4.364906e-003
3.060606e+003,4.361124e-003
3.062534e+003,4.336057e-003
3.064463e+003,4.312464e-003
3.066391e+003,4.299714e-003
3.068320e+003,4.281577e-003
3.070249e+003,4.212951e-003
3.072177e+003,4.182004e-003
3.074105e+003,4.257886e-003
3.076034e+003,4.276557e-003
3.077963e+003,4.267924e-003
3.079891e+003,4.279803e-003
3.081820e+003,4.252265e-003
3.083748e+003,4.260663e-003
3.085677e+003,4.277227e-003
3.087605e+003,4.230617e-003
3.089534e+003,4.194282e-003
3.091462e+003,4.170329e-003
3.093391e+003,4.119984e-003
3.095320e+003,4.116572e-003
3.097248e+003,4.167318e-003
3.099177e+003,4.190970e-003
3.101105e+003,4.199802e-003
3.103034e+003,4.175414e-003
3.104962e+003,4.120753e-003
3.106891e+003,4.093158e-003
3.108819e+003,4.057404e-003
3.110748e+003,4.052454e-003
3.112677e+003,4.072722e-003
3.114605e+003,4.061250e-003
3.116534e+003,4.044728e-003
3.118462e+003,4.048072e-003
3.120391e+003,4.035531e-003
3.122319e+003,4.022154e-003
3.124248e+003,4.071417e-003
3.126176e+003,4.154539e-003
3.128105e+003,4.179729e-003
3.130033e+003,4.178726e-003
3.131962e+003,4.177555e-003
3.133891e+003,4.212984e-003
3.135819e+003,4.261333e-003
3.137748e+003,4.262537e-003
3.139676e+003,4.239048e-003
3.141605e+003,4.241792e-003
3.143533e+003,4.208334e-003
3.145462e+003,4.232724e-003
3.147390e+003,4.327021e-003
3.149319e+003,4.276256e-003
3.151248e+003,4.178224e-003
3.153176e+003,4.140757e-003
3.155104e+003,4.174510e-003
3.157033e+003,4.310021e-003
3.158962e+003,4.417086e-003
3.160890e+003,4.460637e-003
3.162819e+003,4.446677e-003
3.164747e+003,4.381707e-003
3.166676e+003,4.404769e-003
3.168604e+003,4.405907e-003
3.170533e+003,4.406075e-003
3.172461e+003,4.523577e-003
3.174390e+003,4.620682e-003
3.176319e+003,4.655277e-003
3.178247e+003,4.634111e-003
3.180176e+003,4.618104e-003
3.182104e+003,4.686425e-003
3.184033e+003,4.723772e-003
3.185961e+003,4.748225e-003
3.187890e+003,4.749900e-003
3.189818e+003,4.785577e-003
3.191747e+003,4.842030e-003
3.193676e+003,4.886930e-003
3.195604e+003,4.886930e-003
3.197532e+003,4.819951e-003
3.199461e+003,4.768157e-003
3.201390e+003,4.778307e-003
3.203318e+003,4.796331e-003
3.205247e+003,4.847056e-003
3.207175e+003,4.923222e-003
3.209104e+003,5.002652e-003
3.211032e+003,5.025512e-003
3.212961e+003,5.031412e-003
3.214889e+003,5.081560e-003
3.216818e+003,5.045289e-003
3.218747e+003,4.957673e-003
3.220675e+003,4.959148e-003
3.222604e+003,5.024037e-003
3.224532e+003,5.038048e-003
3.226461e+003,5.056887e-003
3.228389e+003,5.072442e-003
3.230318e+003,5.039389e-003
3.232246e+003,5.091718e-003
3.234175e+003,5.207495e-003
3.236104e+003,5.231774e-003
3.238032e+003,5.197971e-003
3.239961e+003,5.222384e-003
3.241889e+003,5.268832e-003
3.243818e+003,5.297106e-003
3.245746e+003,5.278693e-003
3.247675e+003,5.240057e-003
3.249603e+003,5.201124e-003
3.251532e+003,5.199983e-003
3.253460e+003,5.231606e-003
3.255389e+003,5.215912e-003
3.257318e+003,5.297475e-003
3.259246e+003,5.384019e-003
3.261175e+003,5.253908e-003
3.263103e+003,5.186034e-003
3.265032e+003,5.295328e-003
3.266960e+003,5.367581e-003
3.268889e+003,5.425720e-003
3.270817e+003,5.379892e-003
3.272746e+003,5.311697e-003
3.274675e+003,5.369359e-003
3.276603e+003,5.409281e-003
3.278531e+003,5.431390e-003
3.280460e+003,5.447394e-003
3.282389e+003,5.438939e-003
3.284317e+003,5.422935e-003
3.286246e+003,5.417400e-003
3.288174e+003,5.431424e-003
3.290103e+003,5.483800e-003
3.292031e+003,5.541317e-003
3.293960e+003,5.539874e-003
3.295888e+003,5.561420e-003
3.297817e+003,5.592498e-003
3.299746e+003,5.653857e-003
3.301674e+003,5.637208e-003
3.303603e+003,5.620223e-003
3.305531e+003,5.671481e-003
3.307460e+003,5.691892e-003
3.309388e+003,5.708577e-003
3.311317e+003,5.669232e-003
3.313245e+003,5.664767e-003
3.315174e+003,5.756252e-003
3.317103e+003,5.834659e-003
3.319031e+003,5.788184e-003
3.320960e+003,5.783853e-003
3.322888e+003,5.838353e-003
3.324817e+003,5.884230e-003
3.326745e+003,5.864548e-003
3.328674e+003,5.789460e-003
3.330602e+003,5.787210e-003
3.332531e+003,5.837279e-003
3.334459e+003,5.842719e-003
3.336388e+003,5.825995e-003
3.338317e+003,5.809238e-003
3.340245e+003,5.888898e-003
3.342174e+003,5.983588e-003
3.344102e+003,6.059886e-003
3.346031e+003,6.045204e-003
3.347959e+003,5.981505e-003
3.349888e+003,5.911838e-003
3.351816e+003,5.886009e-003
3.353745e+003,5.909286e-003
3.355674e+003,5.943916e-003
3.357602e+003,5.931689e-003
3.359531e+003,5.876874e-003
3.361459e+003,5.852693e-003
3.363388e+003,5.887454e-003
3.365316e+003,5.920806e-003
3.367245e+003,5.967733e-003
3.369173e+003,5.915063e-003
3.371102e+003,5.832174e-003
3.373031e+003,5.872072e-003
3.374959e+003,5.915734e-003
3.376887e+003,5.930043e-003
3.378816e+003,5.968035e-003
3.380745e+003,5.984361e-003
3.382673e+003,5.873986e-003
3.384602e+003,5.879125e-003
3.386530e+003,5.895683e-003
3.388459e+003,5.773477e-003
3.390387e+003,5.798929e-003
3.392316e+003,5.926852e-003
3.394244e+003,5.903676e-003
3.396173e+003,5.883323e-003
3.398102e+003,5.873314e-003
3.400030e+003,5.810682e-003
3.401959e+003,5.806820e-003
3.403887e+003,5.792281e-003
3.405816e+003,5.797385e-003
3.407744e+003,5.800743e-003
3.409673e+003,5.779555e-003
3.411601e+003,5.750410e-003
3.413530e+003,5.719219e-003
3.415458e+003,5.727277e-003
3.417387e+003,5.744937e-003
3.419316e+003,5.712907e-003
3.421244e+003,5.658758e-003
3.423173e+003,5.570918e-003
3.425101e+003,5.454239e-003
3.427030e+003,5.535545e-003
3.428958e+003,5.680108e-003
3.430887e+003,5.642444e-003
3.432815e+003,5.553432e-003
3.434744e+003,5.516820e-003
3.436673e+003,5.529706e-003
3.438601e+003,5.484471e-003
3.440530e+003,5.443536e-003
3.442458e+003,5.365903e-003
3.444387e+003,5.401027e-003
3.446315e+003,5.404282e-003
3.448244e+003,5.390359e-003
3.450172e+003,5.421056e-003
3.452101e+003,5.452494e-003
3.454030e+003,5.388347e-003
3.455958e+003,5.199950e-003
3.457886e+003,5.132654e-003
3.459815e+003,5.221244e-003
3.461744e+003,5.285467e-003
3.463672e+003,5.320485e-003
3.465601e+003,5.241332e-003
3.467529e+003,5.130810e-003
3.469458e+003,5.106805e-003
3.471386e+003,5.101038e-003
3.473315e+003,4.963974e-003
3.475243e+003,4.857711e-003
3.477172e+003,4.848564e-003
3.479101e+003,4.857343e-003
3.481029e+003,4.968498e-003
3.482958e+003,5.016260e-003
3.484886e+003,4.865686e-003
3.486815e+003,4.816835e-003
3.488743e+003,4.819884e-003
3.490672e+003,4.756566e-003
3.492600e+003,4.669176e-003
3.494529e+003,4.523242e-003
3.496458e+003,4.478748e-003
3.498386e+003,4.533420e-003
3.500315e+003,4.493947e-003
3.502243e+003,4.487787e-003
3.504172e+003,4.569749e-003
3.506100e+003,4.609731e-003
3.508029e+003,4.532181e-003
3.509957e+003,4.431246e-003
3.511886e+003,4.370395e-003
3.513814e+003,4.318487e-003
3.515743e+003,4.253938e-003
3.517672e+003,4.263741e-003
3.519600e+003,4.201843e-003
3.521529e+003,4.181937e-003
3.523457e+003,4.184346e-003
3.525386e+003,4.114766e-003
3.527314e+003,4.080314e-003
3.529243e+003,4.024328e-003
3.531171e+003,3.883156e-003
3.533100e+003,3.785781e-003
3.535029e+003,3.913213e-003
3.536957e+003,3.914684e-003
3.538885e+003,3.819073e-003
3.540814e+003,3.751456e-003
3.542743e+003,3.687191e-003
3.544671e+003,3.668077e-003
3.546600e+003,3.681677e-003
3.548528e+003,3.658755e-003
3.550457e+003,3.551708e-003
3.552385e+003,3.434869e-003
3.554314e+003,3.440012e-003
3.556242e+003,3.444588e-003
3.558171e+003,3.404813e-003
3.560100e+003,3.458715e-003
3.562028e+003,3.414063e-003
3.563957e+003,3.267348e-003
3.565885e+003,3.241977e-003
3.567814e+003,3.271387e-003
3.569742e+003,3.258434e-003
3.571671e+003,3.237504e-003
3.573599e+003,3.232697e-003
3.575528e+003,3.158662e-003
3.577457e+003,3.032220e-003
3.579385e+003,2.983841e-003
3.581314e+003,2.958453e-003
3.583242e+003,2.937370e-003
3.585171e+003,2.901977e-003
3.587099e+003,2.856082e-003
3.589028e+003,2.856815e-003
3.590956e+003,2.789382e-003
3.592885e+003,2.731327e-003
3.594813e+003,2.793517e-003
3.596742e+003,2.817128e-003
3.598671e+003,2.865854e-003
3.600599e+003,2.999088e-003
3.602528e+003,3.016004e-003
3.604456e+003,2.906714e-003
3.606385e+003,2.772441e-003
3.608313e+003,2.738396e-003
3.610242e+003,2.675515e-003
3.612170e+003,2.573310e-003
3.614099e+003,2.533081e-003
3.616028e+003,2.505620e-003
3.617956e+003,2.414650e-003
3.619885e+003,2.348018e-003
3.621813e+003,2.297217e-003
3.623742e+003,2.173389e-003
3.625670e+003,2.051927e-003
3.627599e+003,1.957990e-003
3.629527e+003,2.080591e-003
3.631456e+003,2.171858e-003
3.633385e+003,2.024163e-003
3.635313e+003,1.967876e-003
3.637241e+003,2.026860e-003
3.639170e+003,2.055190e-003
3.641099e+003,2.007852e-003
3.643027e+003,2.002992e-003
3.644956e+003,1.964480e-003
3.646884e+003,1.860347e-003
3.648813e+003,1.788442e-003
3.650741e+003,1.746423e-003
3.652670e+003,1.742698e-003
3.654598e+003,1.692367e-003
3.656527e+003,1.671711e-003
3.658456e+003,1.757602e-003
3.660384e+003,1.731919e-003
3.662313e+003,1.598209e-003
3.664241e+003,1.607487e-003
3.666170e+003,1.634393e-003
3.668098e+003,1.534328e-003
3.670027e+003,1.451873e-003
3.671955e+003,1.468928e-003
3.673884e+003,1.413443e-003
3.675813e+003,1.425278e-003
3.677741e+003,1.556840e-003
3.679670e+003,1.573334e-003
3.681598e+003,1.508227e-003
3.683527e+003,1.451008e-003
3.685455e+003,1.371693e-003
3.687384e+003,1.244839e-003
3.689312e+003,1.271888e-003
3.691241e+003,1.380734e-003
3.693169e+003,1.421255e-003
3.695098e+003,1.458123e-003
3.697027e+003,1.442597e-003
3.698955e+003,1.414673e-003
3.700884e+003,1.387283e-003
3.702812e+003,1.399714e-003
3.704741e+003,1.356171e-003
3.706669e+003,1.298973e-003
3.708598e+003,1.210880e-003
3.710526e+003,1.119317e-003
3.712455e+003,1.151209e-003
3.714384e+003,1.224370e-003
3.716312e+003,1.194766e-003
3.718240e+003,1.221180e-003
3.720169e+003,1.277239e-003
3.722098e+003,1.214003e-003
3.724026e+003,1.206627e-003
3.725955e+003,1.238658e-003
3.727883e+003,1.189649e-003
3.729812e+003,1.137788e-003
3.731740e+003,1.092842e-003
3.733669e+003,1.016449e-003
3.735597e+003,9.113796e-004
3.737526e+003,9.756999e-004
3.739455e+003,1.070554e-003
3.741383e+003,1.082246e-003
3.743312e+003,9.206767e-004
3.745240e+003,1.020700e-003
3.747169e+003,1.045211e-003
3.749097e+003,9.360506e-004
3.751026e+003,9.717480e-004
3.752954e+003,1.042820e-003
3.754883e+003,1.080020e-003
3.756812e+003,1.061951e-003
3.758740e+003,1.057700e-003
3.760669e+003,1.060157e-003
3.762597e+003,1.040030e-003
3.764526e+003,1.004160e-003
3.766454e+003,1.002267e-003
3.768383e+003,9.170574e-004
3.770311e+003,9.543804e-004
3.772240e+003,1.028339e-003
3.774168e+003,1.008677e-003
3.776097e+003,9.700876e-004
3.778026e+003,1.006817e-003
3.779954e+003,1.089421e-003
3.781883e+003,1.112707e-003
3.783811e+003,1.031095e-003
3.785740e+003,9.329625e-004
3.787668e+003,9.223702e-004
3.789597e+003,9.748364e-004
3.791525e+003,9.664015e-004
3.793454e+003,8.770816e-004
3.795383e+003,8.167595e-004
3.797311e+003,8.486956e-004
3.799240e+003,7.475837e-004
3.801168e+003,7.541888e-004
3.803097e+003,9.209423e-004
3.805025e+003,8.639674e-004
3.806954e+003,8.358811e-004
3.808882e+003,9.063991e-004
3.810811e+003,9.097194e-004
3.812740e+003,7.910663e-004
3.814668e+003,6.735075e-004
3.816596e+003,8.228677e-004
3.818525e+003,8.871416e-004
3.820454e+003,7.346062e-004
3.822382e+003,7.192394e-004
3.824311e+003,7.781538e-004
3.826239e+003,7.969749e-004
3.828168e+003,8.251583e-004
3.830096e+003,9.013854e-004
3.832025e+003,8.850831e-004
3.833953e+003,8.026513e-004
3.835882e+003,6.379341e-004
3.837811e+003,6.280458e-004
3.839739e+003,7.514671e-004
3.841668e+003,7.301919e-004
3.843596e+003,7.336105e-004
3.845525e+003,7.519650e-004
3.847453e+003,6.778879e-004
3.849382e+003,5.533263e-004
3.851310e+003,4.717535e-004
3.853239e+003,5.158387e-004
3.855167e+003,7.063291e-004
3.857096e+003,6.935187e-004
3.859025e+003,6.543267e-004
3.860953e+003,6.256898e-004
3.862882e+003,5.717727e-004
3.864810e+003,6.749676e-004
3.866739e+003,6.544262e-004
3.868667e+003,3.997805e-004
3.870596e+003,4.887369e-004
3.872524e+003,6.725119e-004
3.874453e+003,6.976340e-004
3.876382e+003,6.234999e-004
3.878310e+003,4.641576e-004
3.880239e+003,4.070436e-004
3.882167e+003,4.672756e-004
3.884096e+003,5.100666e-004
3.886024e+003,5.878642e-004
3.887953e+003,5.127204e-004
3.889881e+003,4.112224e-004
3.891810e+003,4.878745e-004
3.893739e+003,5.531936e-004
3.895667e+003,5.075455e-004
3.897595e+003,4.344388e-004
3.899524e+003,3.597527e-004
3.901453e+003,3.600843e-004
3.903381e+003,3.865480e-004
3.905310e+003,4.147711e-004
3.907238e+003,4.629967e-004
3.909167e+003,5.037638e-004
3.911095e+003,4.108244e-004
3.913024e+003,2.828248e-004
3.914952e+003,2.553728e-004
3.916881e+003,2.908486e-004
3.918810e+003,2.789125e-004
3.920738e+003,2.726793e-004
3.922667e+003,2.973141e-004
3.924595e+003,2.699938e-004
3.926524e+003,2.350171e-004
3.928452e+003,2.588540e-004
3.930381e+003,2.342546e-004
3.932309e+003,2.567984e-004
3.934238e+003,3.469857e-004
3.936167e+003,2.491069e-004
3.938095e+003,1.905294e-004
3.940024e+003,2.211929e-004
3.941952e+003,2.062421e-004
3.943881e+003,1.535703e-004
3.945809e+003,1.870819e-004
3.947738e+003,1.128692e-004
3.949666e+003,5.165904e-005
3.951595e+003,1.412071e-004
3.953523e+003,2.047504e-004
3.955452e+003,2.190381e-004
3.957380e+003,1.976564e-004
3.959309e+003,2.817638e-004
3.961238e+003,3.154512e-004
3.963166e+003,2.566990e-004
3.965095e+003,1.505872e-004
3.967023e+003,8.360523e-005
3.968952e+003,7.227135e-005
3.970880e+003,9.252009e-005
3.972809e+003,1.262590e-004
3.974737e+003,1.096875e-004
3.976666e+003,7.833594e-005
3.978594e+003,1.888681e-005
3.980523e+003,1.961579e-005
3.982452e+003,8.287614e-005
3.984380e+003,4.781505e-005
3.986309e+003,-3.876509e-005
3.988237e+003,-6.255256e-005
3.990166e+003,-9.839695e-005
3.992094e+003,-1.595442e-004
3.994023e+003,-1.186037e-004
3.995951e+003,-3.117801e-005
3.997880e+003,-4.764413e-005
3.999809e+003,-1.020740e-004
4.001737e+003,0.000000e+000
