3.992094e+002,0.000000e+000
4.011380e+002,0.000000e+000
4.030665e+002,0.000000e+000
4.049951e+002,0.000000e+000
4.069236e+002,0.000000e+000
4.088522e+002,0.000000e+000
4.107807e+002,0.000000e+000
4.127093e+002,0.000000e+000
4.146378e+002,0.000000e+000
4.165664e+002,0.000000e+000
4.184949e+002,0.000000e+000
4.204235e+002,0.000000e+000
4.223520e+002,0.000000e+000
4.242806e+002,0.000000e+000
4.262091e+002,0.000000e+000
4.281377e+002,0.000000e+000
4.300662e+002,0.000000e+000
4.319948e+002,0.000000e+000
4.339233e+002,0.000000e+000
4.358519e+002,0.000000e+000
4.377804e+002,0.000000e+000
4.397090e+002,0.000000e+000
4.416375e+002,0.000000e+000
4.435660e+002,0.000000e+000
4.454946e+002,0.000000e+000
4.474232e+002,0.000000e+000
4.493517e+002,0.000000e+000
4.512802e+002,0.000000e+000
4.532088e+002,0.000000e+000
4.551373e+002,0.000000e+000
4.570659e+002,0.000000e+000
4.589944e+002,0.000000e+000
4.609230e+002,0.000000e+000
4.628515e+002,0.000000e+000
4.647801e+002,0.000000e+000
4.667086e+002,0.000000e+000
4.686372e+002,0.000000e+000
4.705657e+002,0.000000e+000
4.724943e+002,0.000000e+000
4.744228e+002,0.000000e+000
4.763514e+002,0.000000e+000
4.782799e+002,0.000000e+000
4.802085e+002,0.000000e+000
4.821370e+002,0.000000e+000
4.840656e+002,0.000000e+000
4.859941e+002,0.000000e+000
4.879226e+002,0.000000e+000
4.898512e+002,0.000000e+000
4.917798e+002,0.000000e+000
4.937083e+002,0.000000e+000
4.956368e+002,0.000000e+000
4.975654e+002,0.000000e+000
4.994939e+002,0.000000e+000
5.014225e+002,0.000000e+000
5.033510e+002,0.000000e+000
5.052796e+002,0.000000e+000
5.072081e+002,0.000000e+000
5.091367e+002,0.000000e+000
5.110652e+002,0.000000e+000
5.129938e+002,0.000000e+000
5.149223e+002,0.000000e+000
5.168509e+002,0.000000e+000
5.187794e+002,0.000000e+000
5.207079e+002,0.000000e+000
5.226365e+002,0.000000e+000
5.245651e+002,0.000000e+000
5.264936e+002,0.000000e+000
5.284221e+002,0.000000e+000
5.303507e+002,0.000000e+000
5.322792e+002,0.000000e+000
5.342078e+002,0.000000e+000
5.361364e+002,0.000000e+000
5.380649e+002,0.000000e+000
5.399934e+002,0.000000e+000
5.419220e+002,0.000000e+000
5.438505e+002,0.000000e+000
5.457791e+002,0.000000e+000
5.477076e+002,0.000000e+000
5.496362e+002,0.000000e+000
5.515647e+002,0.000000e+000
5.534933e+002,0.000000e+000
5.554218e+002,0.000000e+000
5.573503e+002,0.000000e+000
5.592789e+002,0.000000e+000
5.612075e+002,0.000000e+000
5.631360e+002,0.000000e+000
5.650646e+002,0.000000e+000
5.669931e+002,0.000000e+000
5.689216e+002,0.000000e+000
5.708502e+002,0.000000e+000
5.727787e+002,0.000000e+000
5.747073e+002,0.000000e+000
5.766359e+002,0.000000e+000
5.785644e+002,0.000000e+000
5.804929e+002,0.000000e+000
5.824215e+002,0.000000e+000
5.843500e+002,0.000000e+000
5.862786e+002,0.000000e+000
5.882072e+002,0.000000e+000
5.901357e+002,0.000000e+000
5.920642e+002,0.000000e+000
5.939928e+002,0.000000e+000
5.959213e+002,0.000000e+000
5.978499e+002,0.000000e+000
5.997784e+002,0.000000e+000
6.017070e+002,0.000000e+000
6.036355e+002,0.000000e+000
6.055641e+002,0.000000e+000
6.074926e+002,0.000000e+000
6.094211e+002,0.000000e+000
6.113497e+002,0.000000e+000
6.132783e+002,0.000000e+000
6.152068e+002,0.000000e+000
6.171354e+002,0.000000e+000
6.190639e+002,0.000000e+000
6.209924e+002,0.000000e+000
6.229210e+002,0.000000e+000
6.248495e+002,0.000000e+000
6.267781e+002,0.000000e+000
6.287067e+002,0.000000e+000
6.306352e+002,0.000000e+000
6.325637e+002,0.000000e+000
6.344923e+002,0.000000e+000
6.364208e+002,0.000000e+000
6.383494e+002,0.000000e+000
6.402780e+002,0.000000e+000
6.422065e+002,0.000000e+000
6.441350e+002,0.000000e+000
6.460636e+002,0.000000e+000
6.479921e+002,0.000000e+000
6.499207e+002,0.000000e+000
6.518492e+002,0.000000e+000
6.537778e+002,0.000000e+000
6.557063e+002,0.000000e+000
6.576349e+002,0.000000e+000
6.595634e+002,0.000000e+000
6.614919e+002,0.000000e+000
6.634205e+002,0.000000e+000
6.653491e+002,0.000000e+000
6.672776e+002,0.000000e+000
6.692062e+002,0.000000e+000
6.711347e+002,0.000000e+000
6.730632e+002,0.000000e+000
6.749918e+002,6.285903e-003
6.769203e+002,6.626409e-003
6.788489e+002,6.395945e-003
6.807775e+002,6.259110e-003
6.827060e+002,6.090093e-003
6.846345e+002,6.207582e-003
6.865631e+002,6.113649e-003
6.884916e+002,6.121143e-003
6.904202e+002,6.510388e-003
6.923488e+002,6.559800e-003
6.942773e+002,6.453583e-003
6.962058e+002,7.108316e-003
6.981344e+002,7.804248e-003
7.000629e+002,8.676088e-003
7.019915e+002,9.513748e-003
7.039200e+002,1.013998e-002
7.058486e+002,1.101265e-002
7.077771e+002,1.265601e-002
7.097057e+002,1.539509e-002
7.116342e+002,2.006488e-002
7.135627e+002,2.781329e-002
7.154913e+002,4.177972e-002
7.174199e+002,6.230810e-002
7.193484e+002,7.056213e-002
7.212770e+002,4.956615e-002
7.232055e+002,2.795345e-002
7.251340e+002,2.046176e-002
7.270626e+002,2.296893e-002
7.289911e+002,3.489346e-002
7.309197e+002,4.097772e-002
7.328483e+002,2.513542e-002
7.347768e+002,7.809713e-003
7.367053e+002,8.588546e-004
7.386339e+002,-1.412227e-003
7.405624e+002,-2.470459e-003
7.424910e+002,-3.295994e-003
7.444196e+002,-3.963937e-003
7.463481e+002,-4.087929e-003
7.482766e+002,-4.223601e-003
7.502052e+002,-4.380060e-003
7.521337e+002,-4.778612e-003
7.540623e+002,-5.200406e-003
7.559908e+002,-5.482137e-003
7.579194e+002,-5.790268e-003
7.598479e+002,-6.114973e-003
7.617765e+002,-6.194585e-003
7.637050e+002,-6.380375e-003
7.656335e+002,-6.765190e-003
7.675621e+002,-7.207709e-003
7.694907e+002,-7.318790e-003
7.714192e+002,-7.157911e-003
7.733478e+002,-7.085582e-003
7.752763e+002,-7.275260e-003
7.772048e+002,-7.333320e-003
7.791334e+002,-7.458830e-003
7.810620e+002,-7.637374e-003
7.829905e+002,-7.717618e-003
7.849191e+002,-7.727936e-003
7.868476e+002,-7.843472e-003
7.887761e+002,-8.048953e-003
7.907047e+002,-8.243152e-003
7.926332e+002,-7.933471e-003
7.945618e+002,-7.872042e-003
7.964904e+002,-8.127527e-003
7.984189e+002,-8.332905e-003
8.003474e+002,-8.184660e-003
8.022760e+002,-8.109478e-003
8.042045e+002,-8.168923e-003
8.061331e+002,-8.290680e-003
8.080616e+002,-8.343567e-003
8.099902e+002,-8.350262e-003
8.119187e+002,-8.555341e-003
8.138473e+002,-8.882954e-003
8.157758e+002,-8.924991e-003
8.177043e+002,-8.864968e-003
8.196329e+002,-8.987278e-003
8.215615e+002,-9.238734e-003
8.234900e+002,-9.346962e-003
8.254186e+002,-9.408474e-003
8.273471e+002,-9.381659e-003
8.292756e+002,-9.420536e-003
8.312042e+002,-9.497372e-003
8.331328e+002,-9.567939e-003
8.350613e+002,-9.740628e-003
8.369899e+002,-9.998643e-003
8.389184e+002,-1.012254e-002
8.408469e+002,-9.941877e-003
8.427755e+002,-9.667692e-003
8.447040e+002,-9.636193e-003
8.466326e+002,-9.688495e-003
8.485612e+002,-9.646887e-003
8.504896e+002,-9.439082e-003
8.524182e+002,-9.293094e-003
8.543468e+002,-9.163507e-003
8.562753e+002,-9.162177e-003
8.582039e+002,-9.355945e-003
8.601324e+002,-9.544180e-003
8.620609e+002,-9.669311e-003
8.639895e+002,-9.774095e-003
8.659181e+002,-9.678482e-003
8.678466e+002,-9.696401e-003
8.697751e+002,-9.801275e-003
8.717037e+002,-9.915354e-003
8.736322e+002,-1.000764e-002
8.755608e+002,-1.006188e-002
8.774894e+002,-1.012520e-002
8.794178e+002,-1.038328e-002
8.813464e+002,-1.061511e-002
8.832750e+002,-1.067172e-002
8.852035e+002,-1.074804e-002
8.871321e+002,-1.076834e-002
8.890607e+002,-1.064117e-002
8.909891e+002,-1.071174e-002
8.929177e+002,-1.078703e-002
8.948463e+002,-1.073127e-002
8.967748e+002,-1.053889e-002
8.987034e+002,-1.044196e-002
9.006320e+002,-1.040754e-002
9.025604e+002,-1.012277e-002
9.044890e+002,-9.452406e-003
9.064176e+002,-8.792729e-003
9.083461e+002,-8.513365e-003
9.102747e+002,-8.931678e-003
9.122032e+002,-9.672260e-003
9.141317e+002,-1.018728e-002
9.160603e+002,-1.033976e-002
9.179889e+002,-1.042210e-002
9.199174e+002,-1.038619e-002
9.218459e+002,-1.031443e-002
9.237745e+002,-1.026443e-002
9.257030e+002,-1.025249e-002
9.276316e+002,-1.020214e-002
9.295602e+002,-1.026560e-002
9.314886e+002,-1.036069e-002
9.334172e+002,-1.044429e-002
9.353458e+002,-1.053934e-002
9.372743e+002,-1.069154e-002
9.392029e+002,-1.083224e-002
9.411315e+002,-1.095865e-002
9.430599e+002,-1.103499e-002
9.449885e+002,-1.111512e-002
9.469171e+002,-1.109474e-002
9.488456e+002,-1.112407e-002
9.507742e+002,-1.120842e-002
9.527028e+002,-1.138201e-002
9.546312e+002,-1.152197e-002
9.565598e+002,-1.157863e-002
9.584884e+002,-1.156695e-002
9.604169e+002,-1.160631e-002
9.623455e+002,-1.161518e-002
9.642740e+002,-1.160153e-002
9.662025e+002,-1.156685e-002
9.681311e+002,-1.147066e-002
9.700597e+002,-1.122276e-002
9.719882e+002,-1.100352e-002
9.739167e+002,-1.079032e-002
9.758453e+002,-1.057550e-002
9.777738e+002,-1.020052e-002
9.797024e+002,-9.672098e-003
9.816310e+002,-9.102609e-003
9.835594e+002,-8.505340e-003
9.854880e+002,-7.816982e-003
9.874166e+002,-7.120265e-003
9.893451e+002,-6.510240e-003
9.912737e+002,-6.094488e-003
9.932023e+002,-5.825021e-003
9.951307e+002,-5.665910e-003
9.970593e+002,-5.578482e-003
9.989879e+002,-5.627448e-003
1.000916e+003,-5.707868e-003
1.002845e+003,-5.694951e-003
1.004774e+003,-5.573837e-003
1.006702e+003,-5.357724e-003
1.008631e+003,-5.042310e-003
1.010559e+003,-4.715588e-003
1.012488e+003,-4.321833e-003
1.014416e+003,-3.826443e-003
1.016345e+003,-3.320196e-003
1.018273e+003,-2.822378e-003
1.020202e+003,-2.335095e-003
1.022130e+003,-1.880686e-003
1.024059e+003,-1.367738e-003
1.025988e+003,-8.334486e-004
1.027916e+003,-2.561500e-004
1.029845e+003,3.183691e-004
1.031773e+003,8.009915e-004
1.033702e+003,1.209750e-003
1.035630e+003,1.633861e-003
1.037559e+003,2.033950e-003
1.039487e+003,2.473029e-003
1.041416e+003,2.902311e-003
1.043344e+003,3.349748e-003
1.045273e+003,3.725020e-003
1.047202e+003,3.986506e-003
1.049130e+003,4.264310e-003
1.051059e+003,4.526255e-003
1.052987e+003,4.652497e-003
1.054916e+003,4.783768e-003
1.056844e+003,4.899127e-003
1.058773e+003,4.953986e-003
1.060701e+003,4.928818e-003
1.062630e+003,4.963036e-003
1.064558e+003,5.001345e-003
1.066487e+003,4.943531e-003
1.068416e+003,4.896212e-003
1.070344e+003,4.967594e-003
1.072273e+003,5.075593e-003
1.074201e+003,5.230634e-003
1.076130e+003,5.422969e-003
1.078058e+003,5.538330e-003
1.079987e+003,5.458400e-003
1.081915e+003,5.283087e-003
1.083844e+003,4.886427e-003
1.085773e+003,4.449624e-003
1.087701e+003,4.083491e-003
1.089630e+003,3.739558e-003
1.091558e+003,3.391322e-003
1.093487e+003,3.180558e-003
1.095415e+003,3.127190e-003
1.097344e+003,3.124353e-003
1.099272e+003,3.146347e-003
1.101201e+003,3.218276e-003
1.103129e+003,3.337694e-003
1.105058e+003,3.471908e-003
1.106987e+003,3.605428e-003
1.108915e+003,3.799519e-003
1.110844e+003,4.038641e-003
1.112772e+003,4.256916e-003
1.114701e+003,4.363065e-003
1.116629e+003,4.501915e-003
1.118558e+003,4.611339e-003
1.120486e+003,4.668908e-003
1.122415e+003,4.664085e-003
1.124344e+003,4.539447e-003
1.126272e+003,4.149554e-003
1.128201e+003,3.686021e-003
1.130129e+003,3.211800e-003
1.132058e+003,2.762871e-003
1.133986e+003,2.311274e-003
1.135915e+003,1.840647e-003
1.137843e+003,1.404003e-003
1.139772e+003,1.071617e-003
1.141700e+003,7.786849e-004
1.143629e+003,5.786074e-004
1.145557e+003,4.265451e-004
1.147486e+003,2.750333e-004
1.149415e+003,1.395167e-004
1.151343e+003,2.634236e-005
1.153272e+003,-7.444581e-005
1.155200e+003,-1.330459e-004
1.157129e+003,-1.923005e-004
1.159057e+003,-1.664666e-004
1.160986e+003,-1.645456e-004
1.162914e+003,-1.961755e-004
1.164843e+003,-2.192588e-004
1.166771e+003,-2.579713e-004
1.168700e+003,-3.061169e-004
1.170629e+003,-3.636595e-004
1.172557e+003,-4.604184e-004
1.174486e+003,-5.854151e-004
1.176414e+003,-8.575233e-004
1.178343e+003,-1.232228e-003
1.180271e+003,-1.582313e-003
1.182200e+003,-1.823806e-003
1.184128e+003,-2.030504e-003
1.186057e+003,-2.177535e-003
1.187986e+003,-2.272078e-003
1.189914e+003,-2.337929e-003
1.191843e+003,-2.302698e-003
1.193771e+003,-2.192337e-003
1.195700e+003,-2.128409e-003
1.197628e+003,-2.005142e-003
1.199557e+003,-1.856041e-003
1.201485e+003,-1.747415e-003
1.203414e+003,-1.618164e-003
1.205343e+003,-1.452781e-003
1.207271e+003,-1.288261e-003
1.209200e+003,-1.102328e-003
1.211128e+003,-9.020314e-004
1.213057e+003,-7.094165e-004
1.214985e+003,-4.956012e-004
1.216914e+003,-1.910420e-004
1.218842e+003,1.667957e-004
1.220771e+003,5.730335e-004
1.222699e+003,9.163934e-004
1.224628e+003,1.270858e-003
1.226557e+003,1.687245e-003
1.228485e+003,2.104996e-003
1.230414e+003,2.504354e-003
1.232342e+003,2.923293e-003
1.234271e+003,3.297962e-003
1.236199e+003,3.586452e-003
1.238128e+003,3.841369e-003
1.240056e+003,4.132059e-003
1.241985e+003,4.407748e-003
1.243913e+003,4.632872e-003
1.245842e+003,4.762797e-003
1.247771e+003,4.869472e-003
1.249699e+003,4.971884e-003
1.251628e+003,5.070833e-003
1.253556e+003,5.275071e-003
1.255485e+003,5.538934e-003
1.257413e+003,5.777473e-003
1.259342e+003,5.957756e-003
1.261270e+003,5.938004e-003
1.263199e+003,5.789124e-003
1.265127e+003,5.564508e-003
1.267056e+003,5.302305e-003
1.268985e+003,4.994273e-003
1.270913e+003,4.708799e-003
1.272842e+003,4.507908e-003
1.274770e+003,4.389138e-003
1.276699e+003,4.308715e-003
1.278627e+003,4.272709e-003
1.280556e+003,4.272743e-003
1.282484e+003,4.286864e-003
1.284413e+003,4.324009e-003
1.286342e+003,4.438141e-003
1.288270e+003,4.581770e-003
1.290199e+003,4.689774e-003
1.292127e+003,4.825178e-003
1.294056e+003,4.984620e-003
1.295984e+003,5.115589e-003
1.297913e+003,5.242170e-003
1.299841e+003,5.307772e-003
1.301770e+003,5.342623e-003
1.303698e+003,5.358289e-003
1.305627e+003,5.372680e-003
1.307556e+003,5.404450e-003
1.309484e+003,5.473566e-003
1.311413e+003,5.525813e-003
1.313341e+003,5.491786e-003
1.315270e+003,5.365266e-003
1.317198e+003,5.234691e-003
1.319127e+003,5.058195e-003
1.321055e+003,4.804573e-003
1.322984e+003,4.570352e-003
1.324912e+003,4.441723e-003
1.326841e+003,4.321834e-003
1.328770e+003,4.306440e-003
1.330698e+003,4.391983e-003
1.332627e+003,4.512595e-003
1.334555e+003,4.671922e-003
1.336484e+003,4.914978e-003
1.338412e+003,5.201627e-003
1.340341e+003,5.486887e-003
1.342269e+003,5.743829e-003
1.344198e+003,6.019703e-003
1.346126e+003,6.289802e-003
1.348055e+003,6.579244e-003
1.349984e+003,6.860967e-003
1.351912e+003,7.047628e-003
1.353841e+003,7.075714e-003
1.355769e+003,7.104915e-003
1.357698e+003,7.218803e-003
1.359626e+003,7.458907e-003
1.361555e+003,7.859745e-003
1.363483e+003,8.324042e-003
1.365412e+003,8.813552e-003
1.367341e+003,9.268207e-003
1.369269e+003,9.426140e-003
1.371198e+003,9.262791e-003
1.373126e+003,9.134931e-003
1.375055e+003,9.256089e-003
1.376983e+003,9.463287e-003
1.378912e+003,9.621968e-003
1.380840e+003,9.693047e-003
1.382769e+003,9.784131e-003
1.384698e+003,9.975544e-003
1.386626e+003,1.019716e-002
1.388555e+003,1.043736e-002
1.390483e+003,1.070346e-002
1.392412e+003,1.100782e-002
1.394340e+003,1.132430e-002
1.396269e+003,1.160817e-002
1.398197e+003,1.185289e-002
1.400126e+003,1.209291e-002
1.402054e+003,1.229087e-002
1.403983e+003,1.242276e-002
1.405911e+003,1.254375e-002
1.407840e+003,1.260375e-002
1.409769e+003,1.263308e-002
1.411697e+003,1.268579e-002
1.413626e+003,1.273393e-002
1.415554e+003,1.273864e-002
1.417483e+003,1.265362e-002
1.419411e+003,1.246641e-002
1.421340e+003,1.217830e-002
1.423268e+003,1.193884e-002
1.425197e+003,1.180747e-002
1.427125e+003,1.178810e-002
1.429054e+003,1.205319e-002
1.430983e+003,1.259508e-002
1.432911e+003,1.322509e-002
1.434840e+003,1.383809e-002
1.436768e+003,1.447398e-002
1.438697e+003,1.499897e-002
1.440625e+003,1.540018e-002
1.442554e+003,1.583309e-002
1.444482e+003,1.639864e-002
1.446411e+003,1.711939e-002
1.448340e+003,1.811191e-002
1.450268e+003,1.952524e-002
1.452197e+003,2.167356e-002
1.454125e+003,2.463026e-002
1.456054e+003,2.818529e-002
1.457982e+003,3.431852e-002
1.459911e+003,4.910430e-002
1.461839e+003,6.361865e-002
1.463768e+003,5.660941e-002
1.465697e+003,4.383171e-002
1.467625e+003,4.058566e-002
1.469554e+003,4.367699e-002
1.471482e+003,5.506385e-002
1.473411e+003,5.585087e-002
1.475339e+003,3.335721e-002
1.477268e+003,1.514401e-002
1.479196e+003,8.822512e-003
1.481125e+003,6.444268e-003
1.483053e+003,5.170509e-003
1.484982e+003,4.348841e-003
1.486911e+003,3.976608e-003
1.488839e+003,3.884193e-003
1.490768e+003,3.980754e-003
1.492696e+003,4.190502e-003
1.494625e+003,4.567640e-003
1.496553e+003,5.120551e-003
1.498482e+003,5.689038e-003
1.500410e+003,6.257867e-003
1.502339e+003,6.930585e-003
1.504267e+003,7.736648e-003
1.506196e+003,8.892614e-003
1.508125e+003,1.014866e-002
1.510053e+003,1.131546e-002
1.511982e+003,1.255408e-002
1.513910e+003,1.384541e-002
1.515839e+003,1.499870e-002
1.517767e+003,1.584972e-002
1.519696e+003,1.640123e-002
1.521624e+003,1.701776e-002
1.523553e+003,1.770274e-002
1.525481e+003,1.851233e-002
1.527410e+003,1.951276e-002
1.529339e+003,2.057149e-002
1.531267e+003,2.171606e-002
1.533196e+003,2.310138e-002
1.535124e+003,2.457892e-002
1.537053e+003,2.590933e-002
1.538981e+003,2.734460e-002
1.540910e+003,2.850491e-002
1.542838e+003,2.891047e-002
1.544767e+003,2.892715e-002
1.546696e+003,2.869906e-002
1.548624e+003,2.828702e-002
1.550553e+003,2.771824e-002
1.552481e+003,2.688611e-002
1.554410e+003,2.579297e-002
1.556338e+003,2.456370e-002
1.558267e+003,2.344411e-002
1.560195e+003,2.244705e-002
1.562124e+003,2.142520e-002
1.564052e+003,2.062246e-002
1.565981e+003,2.006859e-002
1.567910e+003,1.981174e-002
1.569838e+003,1.984552e-002
1.571767e+003,1.994133e-002
1.573695e+003,1.999076e-002
1.575624e+003,2.009830e-002
1.577552e+003,2.011360e-002
1.579481e+003,1.990577e-002
1.581409e+003,1.958679e-002
1.583338e+003,1.922593e-002
1.585266e+003,1.896110e-002
1.587195e+003,1.878198e-002
1.589124e+003,1.868328e-002
1.591052e+003,1.855691e-002
1.592981e+003,1.847257e-002
1.594909e+003,1.845625e-002
1.596838e+003,1.841021e-002
1.598766e+003,1.841895e-002
1.600695e+003,1.840979e-002
1.602623e+003,1.835359e-002
1.604552e+003,1.835884e-002
1.606480e+003,1.847468e-002
1.608409e+003,1.866986e-002
1.610338e+003,1.897827e-002
1.612266e+003,1.933172e-002
1.614195e+003,1.972963e-002
1.616123e+003,2.032886e-002
1.618052e+003,2.108427e-002
1.619980e+003,2.176444e-002
1.621909e+003,2.258643e-002
1.623837e+003,2.360361e-002
1.625766e+003,2.469847e-002
1.627695e+003,2.589523e-002
1.629623e+003,2.720584e-002
1.631552e+003,2.850240e-002
1.633480e+003,2.979497e-002
1.635409e+003,3.113849e-002
1.637337e+003,3.260957e-002
1.639266e+003,3.409697e-002
1.641194e+003,3.561894e-002
1.643123e+003,3.706932e-002
1.645052e+003,3.847571e-002
1.646980e+003,3.972828e-002
1.648909e+003,4.051753e-002
1.650837e+003,4.066341e-002
1.652766e+003,4.040788e-002
1.654694e+003,3.942982e-002
1.656623e+003,3.783148e-002
1.658551e+003,3.599653e-002
1.660480e+003,3.419923e-002
1.662408e+003,3.252421e-002
1.664337e+003,3.099598e-002
1.666266e+003,2.957940e-002
1.668194e+003,2.830378e-002
1.670123e+003,2.712005e-002
1.672051e+003,2.601394e-002
1.673980e+003,2.488489e-002
1.675908e+003,2.377279e-002
1.677837e+003,2.260472e-002
1.679765e+003,2.146244e-002
1.681694e+003,2.024647e-002
1.683622e+003,1.906346e-002
1.685551e+003,1.790179e-002
1.687479e+003,1.658367e-002
1.689408e+003,1.527880e-002
1.691337e+003,1.401963e-002
1.693265e+003,1.278893e-002
1.695194e+003,1.166916e-002
1.697122e+003,1.050589e-002
1.699051e+003,9.305849e-003
1.700979e+003,8.267100e-003
1.702908e+003,7.199567e-003
1.704836e+003,6.155891e-003
1.706765e+003,5.328132e-003
1.708694e+003,4.663349e-003
1.710622e+003,4.155844e-003
1.712551e+003,3.743234e-003
1.714479e+003,3.416601e-003
1.716408e+003,3.132630e-003
1.718336e+003,2.986711e-003
1.720265e+003,2.794250e-003
1.722193e+003,2.657312e-003
1.724122e+003,2.637577e-003
1.726051e+003,2.732394e-003
1.727979e+003,2.887801e-003
1.729908e+003,3.045800e-003
1.731836e+003,3.249287e-003
1.733765e+003,3.740059e-003
1.735693e+003,4.278197e-003
1.737622e+003,4.632035e-003
1.739550e+003,4.987268e-003
1.741479e+003,5.130810e-003
1.743407e+003,5.056284e-003
1.745336e+003,4.883881e-003
1.747265e+003,4.557929e-003
1.749193e+003,4.073792e-003
1.751122e+003,3.459984e-003
1.753050e+003,2.730661e-003
1.754979e+003,1.925739e-003
1.756907e+003,1.273218e-003
1.758836e+003,7.284993e-004
1.760764e+003,2.517260e-004
1.762693e+003,-1.003183e-004
1.764621e+003,-3.685592e-004
1.766550e+003,-6.034484e-004
1.768479e+003,-7.095157e-004
1.770407e+003,-8.017328e-004
1.772336e+003,-8.314974e-004
1.774264e+003,-8.869864e-004
1.776193e+003,-1.038867e-003
1.778121e+003,-1.138417e-003
1.780050e+003,-1.164391e-003
1.781978e+003,-1.193008e-003
1.783907e+003,-1.239563e-003
1.785835e+003,-1.231766e-003
1.787764e+003,-1.238274e-003
1.789693e+003,-1.294240e-003
1.791621e+003,-1.280134e-003
1.793550e+003,-1.253572e-003
1.795478e+003,-1.315283e-003
1.797407e+003,-1.362321e-003
1.799335e+003,-1.377019e-003
1.801264e+003,-1.394062e-003
1.803192e+003,-1.419294e-003
1.805121e+003,-1.434552e-003
1.807049e+003,-1.452979e-003
1.808978e+003,-1.463910e-003
1.810907e+003,-1.431316e-003
1.812835e+003,-1.446639e-003
1.814764e+003,-1.507927e-003
1.816692e+003,-1.515422e-003
1.818621e+003,-1.486662e-003
1.820549e+003,-1.497030e-003
1.822478e+003,-1.500795e-003
1.824406e+003,-1.549298e-003
1.826335e+003,-1.586902e-003
1.828264e+003,-1.637409e-003
1.830192e+003,-1.648995e-003
1.832121e+003,-1.645760e-003
1.834049e+003,-1.651504e-003
1.835978e+003,-1.665763e-003
1.837906e+003,-1.637937e-003
1.839835e+003,-1.576040e-003
1.841763e+003,-1.532294e-003
1.843692e+003,-1.473784e-003
1.845620e+003,-1.429962e-003
1.847549e+003,-1.465990e-003
1.849478e+003,-1.451163e-003
1.851406e+003,-1.438119e-003
1.853335e+003,-1.414175e-003
1.855263e+003,-1.386003e-003
1.857192e+003,-1.366218e-003
1.859120e+003,-1.353469e-003
1.861049e+003,-1.332956e-003
1.862977e+003,-1.326911e-003
1.864906e+003,-1.280563e-003
1.866834e+003,-1.205993e-003
1.868763e+003,-1.180385e-003
1.870692e+003,-1.220928e-003
1.872620e+003,-1.200905e-003
1.874549e+003,-1.143176e-003
1.876477e+003,-1.100510e-003
1.878406e+003,-1.049643e-003
1.880334e+003,-1.003365e-003
1.882263e+003,-9.553294e-004
1.884191e+003,-8.716434e-004
1.886120e+003,-7.791434e-004
1.888048e+003,-7.168263e-004
1.889977e+003,-6.250213e-004
1.891906e+003,-5.024520e-004
1.893834e+003,-4.443320e-004
1.895763e+003,-3.963342e-004
1.897691e+003,-3.109841e-004
1.899620e+003,-2.848593e-004
1.901548e+003,-3.522045e-004
1.903477e+003,-3.580975e-004
1.905405e+003,-2.921440e-004
1.907334e+003,-2.668127e-004
1.909263e+003,-2.735679e-004
1.911191e+003,-2.560506e-004
1.913120e+003,-2.690313e-004
1.915048e+003,-3.067791e-004
1.916977e+003,-3.216455e-004
1.918905e+003,-2.876407e-004
1.920834e+003,-2.937995e-004
1.922762e+003,-3.168446e-004
1.924691e+003,-3.555814e-004
1.926620e+003,-3.592563e-004
1.928548e+003,-2.892632e-004
1.930477e+003,-2.448247e-004
1.932405e+003,-2.697929e-004
1.934334e+003,-2.512159e-004
1.936262e+003,-1.958112e-004
1.938191e+003,-1.372195e-004
1.940119e+003,-1.308597e-004
1.942048e+003,-1.155893e-004
1.943976e+003,-1.042934e-004
1.945905e+003,-1.458316e-004
1.947833e+003,-1.048234e-004
1.949762e+003,-3.727420e-005
1.951691e+003,-7.023849e-005
1.953619e+003,-7.325318e-005
1.955548e+003,-9.873832e-006
1.957476e+003,3.638270e-005
1.959405e+003,6.657139e-005
1.961333e+003,1.227458e-004
1.963262e+003,1.208235e-004
1.965190e+003,1.024957e-004
1.967119e+003,7.329868e-005
1.969047e+003,3.943130e-005
1.970976e+003,1.153080e-005
1.972905e+003,-1.712996e-005
1.974833e+003,-4.943317e-005
1.976762e+003,-4.572257e-005
1.978690e+003,-2.448537e-005
1.980619e+003,-3.273520e-005
1.982547e+003,-5.937214e-005
1.984476e+003,-5.798070e-005
1.986404e+003,-5.735124e-005
1.988333e+003,-7.272313e-005
1.990262e+003,-4.260828e-005
1.992190e+003,4.894173e-005
1.994119e+003,5.865121e-005
1.996047e+003,4.165148e-005
1.997976e+003,4.562797e-005
1.999904e+003,4.821270e-005
2.001833e+003,9.573479e-005
2.003761e+003,1.696463e-004
2.005690e+003,2.123417e-004
2.007619e+003,2.587877e-004
2.009547e+003,3.102454e-004
2.011476e+003,4.001453e-004
2.013404e+003,4.843915e-004
2.015333e+003,5.477528e-004
2.017261e+003,6.094311e-004
2.019190e+003,6.668704e-004
2.021118e+003,6.603994e-004
2.023047e+003,5.915803e-004
2.024975e+003,5.293737e-004
2.026904e+003,5.249615e-004
2.028833e+003,5.001812e-004
2.030761e+003,5.241985e-004
2.032690e+003,5.710096e-004
2.034618e+003,5.483499e-004
2.036547e+003,4.717535e-004
2.038475e+003,4.351353e-004
2.040404e+003,4.673419e-004
2.042332e+003,4.768949e-004
2.044261e+003,4.624660e-004
2.046189e+003,4.880072e-004
2.048118e+003,4.791173e-004
2.050046e+003,4.600446e-004
2.051975e+003,4.814724e-004
2.053904e+003,5.123887e-004
2.055832e+003,5.468902e-004
2.057761e+003,5.701138e-004
2.059689e+003,5.749910e-004
2.061618e+003,5.746924e-004
2.063546e+003,5.687868e-004
2.065475e+003,6.368059e-004
2.067403e+003,7.006872e-004
2.069332e+003,6.978331e-004
2.071260e+003,7.124689e-004
2.073189e+003,7.412442e-004
2.075118e+003,7.175468e-004
2.077046e+003,7.448621e-004
2.078975e+003,8.039791e-004
2.080903e+003,8.103859e-004
2.082832e+003,8.228013e-004
2.084760e+003,8.383709e-004
2.086689e+003,8.395329e-004
2.088617e+003,8.854484e-004
2.090546e+003,8.640670e-004
2.092475e+003,8.435498e-004
2.094403e+003,8.491937e-004
2.096332e+003,8.644986e-004
2.098260e+003,9.032116e-004
2.100189e+003,9.182528e-004
2.102117e+003,9.407326e-004
2.104046e+003,9.630144e-004
2.105974e+003,9.912750e-004
2.107903e+003,1.020268e-003
2.109832e+003,1.023689e-003
2.111760e+003,1.000673e-003
2.113688e+003,9.996438e-004
2.115617e+003,1.051887e-003
2.117546e+003,1.136592e-003
2.119474e+003,1.206096e-003
2.121403e+003,1.225201e-003
2.123331e+003,1.230717e-003
2.125260e+003,1.251518e-003
2.127188e+003,1.280562e-003
2.129117e+003,1.297577e-003
2.131045e+003,1.329216e-003
2.132974e+003,1.356902e-003
2.134903e+003,1.391770e-003
2.136831e+003,1.453535e-003
2.138760e+003,1.470058e-003
2.140688e+003,1.452338e-003
2.142617e+003,1.485651e-003
2.144545e+003,1.557039e-003
2.146474e+003,1.578189e-003
2.148402e+003,1.559500e-003
2.150331e+003,1.578422e-003
2.152260e+003,1.630169e-003
2.154188e+003,1.683552e-003
2.156117e+003,1.702878e-003
2.158045e+003,1.688874e-003
2.159974e+003,1.691402e-003
2.161902e+003,1.672143e-003
2.163831e+003,1.642541e-003
2.165759e+003,1.648894e-003
2.167688e+003,1.633528e-003
2.169616e+003,1.634692e-003
2.171545e+003,1.666788e-003
2.173474e+003,1.719910e-003
2.175402e+003,1.766983e-003
2.177331e+003,1.790605e-003
2.179259e+003,1.814428e-003
2.181188e+003,1.826140e-003
2.183116e+003,1.857751e-003
2.185045e+003,1.868233e-003
2.186973e+003,1.852560e-003
2.188902e+003,1.880679e-003
2.190831e+003,1.921679e-003
2.192759e+003,1.956992e-003
2.194688e+003,1.990044e-003
2.196616e+003,1.997200e-003
2.198545e+003,1.988546e-003
2.200473e+003,2.031121e-003
2.202402e+003,2.075930e-003
2.204330e+003,2.092644e-003
2.206259e+003,2.100068e-003
2.208188e+003,2.102166e-003
2.210116e+003,2.115318e-003
2.212044e+003,2.148548e-003
2.213973e+003,2.154475e-003
2.215902e+003,2.122776e-003
2.217830e+003,2.100901e-003
2.219759e+003,2.115917e-003
2.221687e+003,2.168394e-003
2.223616e+003,2.200630e-003
2.225544e+003,2.178584e-003
2.227473e+003,2.196767e-003
2.229401e+003,2.244325e-003
2.231330e+003,2.272036e-003
2.233259e+003,2.297051e-003
2.235187e+003,2.357412e-003
2.237116e+003,2.425946e-003
2.239044e+003,2.417449e-003
2.240973e+003,2.397125e-003
2.242901e+003,2.439207e-003
2.244830e+003,2.508353e-003
2.246758e+003,2.531715e-003
2.248687e+003,2.517251e-003
2.250615e+003,2.488324e-003
2.252544e+003,2.464431e-003
2.254473e+003,2.495922e-003
2.256401e+003,2.527916e-003
2.258330e+003,2.542247e-003
2.260258e+003,2.582243e-003
2.262187e+003,2.618076e-003
2.264115e+003,2.583909e-003
2.266044e+003,2.582476e-003
2.267972e+003,2.641810e-003
2.269901e+003,2.669514e-003
2.271830e+003,2.688117e-003
2.273758e+003,2.722225e-003
2.275687e+003,2.770407e-003
2.277615e+003,2.799853e-003
2.279544e+003,2.743831e-003
2.281472e+003,2.715590e-003
2.283401e+003,2.737096e-003
2.285329e+003,2.764205e-003
2.287258e+003,2.794717e-003
2.289187e+003,2.818462e-003
2.291115e+003,2.786113e-003
2.293043e+003,2.782612e-003
2.294972e+003,2.806356e-003
2.296901e+003,2.789348e-003
2.298829e+003,2.828233e-003
2.300758e+003,2.867088e-003
2.302686e+003,2.876127e-003
2.304615e+003,2.890303e-003
2.306543e+003,2.924827e-003
2.308472e+003,2.964792e-003
2.310400e+003,3.019607e-003
2.312329e+003,3.045366e-003
2.314258e+003,3.089079e-003
2.316186e+003,3.135901e-003
2.318115e+003,3.143410e-003
2.320043e+003,3.175351e-003
2.321972e+003,3.214671e-003
2.323900e+003,3.236869e-003
2.325829e+003,3.271688e-003
2.327757e+003,3.322703e-003
2.329686e+003,3.346543e-003
2.331615e+003,3.367813e-003
2.333543e+003,3.392958e-003
2.335472e+003,3.379200e-003
2.337400e+003,3.375660e-003
2.339329e+003,3.402842e-003
2.341257e+003,3.417035e-003
2.343186e+003,3.449330e-003
2.345114e+003,3.487272e-003
2.347043e+003,3.473277e-003
2.348971e+003,3.439144e-003
2.350900e+003,3.407050e-003
2.352829e+003,3.373423e-003
2.354757e+003,3.322970e-003
2.356686e+003,3.299799e-003
2.358614e+003,3.258601e-003
2.360543e+003,3.239840e-003
2.362471e+003,3.275127e-003
2.364400e+003,3.270653e-003
2.366328e+003,3.281370e-003
2.368257e+003,3.317027e-003
2.370186e+003,3.337694e-003
2.372114e+003,3.345007e-003
2.374042e+003,3.364340e-003
2.375971e+003,3.415466e-003
2.377900e+003,3.433867e-003
2.379828e+003,3.418906e-003
2.381757e+003,3.420208e-003
2.383685e+003,3.494921e-003
2.385614e+003,3.573924e-003
2.387542e+003,3.589693e-003
2.389471e+003,3.600183e-003
2.391399e+003,3.611175e-003
2.393328e+003,3.598112e-003
2.395257e+003,3.636434e-003
2.397185e+003,3.717000e-003
2.399114e+003,3.792800e-003
2.401042e+003,3.798817e-003
2.402971e+003,3.784377e-003
2.404899e+003,3.789157e-003
2.406828e+003,3.778695e-003
2.408756e+003,3.840767e-003
2.410685e+003,3.931869e-003
2.412614e+003,3.973464e-003
2.414542e+003,3.989014e-003
2.416471e+003,4.009613e-003
2.418399e+003,4.051384e-003
2.420328e+003,4.047136e-003
2.422256e+003,4.039310e-003
2.424185e+003,4.071083e-003
2.426113e+003,4.100650e-003
2.428042e+003,4.104698e-003
2.429970e+003,4.156078e-003
2.431899e+003,4.229713e-003
2.433828e+003,4.252867e-003
2.435756e+003,4.242294e-003
2.437685e+003,4.218271e-003
2.439613e+003,4.191807e-003
2.441542e+003,4.214523e-003
2.443470e+003,4.300416e-003
2.445399e+003,4.374645e-003
2.447327e+003,4.376854e-003
2.449256e+003,4.324042e-003
2.451185e+003,4.312296e-003
2.453113e+003,4.348875e-003
2.455042e+003,4.368688e-003
2.456970e+003,4.382946e-003
2.458899e+003,4.432284e-003
2.460827e+003,4.461775e-003
2.462756e+003,4.425957e-003
2.464684e+003,4.423614e-003
2.466613e+003,4.536802e-003
2.468542e+003,4.593792e-003
2.470470e+003,4.609230e-003
2.472398e+003,4.649751e-003
2.474327e+003,4.672425e-003
2.476256e+003,4.668506e-003
2.478184e+003,4.716972e-003
2.480113e+003,4.768793e-003
2.482041e+003,4.802027e-003
2.483970e+003,4.867864e-003
2.485898e+003,4.937800e-003
2.487827e+003,4.948423e-003
2.489755e+003,4.953920e-003
2.491684e+003,4.960287e-003
2.493613e+003,4.984184e-003
2.495541e+003,5.013445e-003
2.497470e+003,5.023266e-003
2.499398e+003,5.017266e-003
2.501327e+003,5.031344e-003
2.503255e+003,5.059167e-003
2.505184e+003,5.128865e-003
2.507112e+003,5.153006e-003
2.509041e+003,5.131816e-003
2.510969e+003,5.132821e-003
2.512898e+003,5.164440e-003
2.514827e+003,5.220573e-003
2.516755e+003,5.279028e-003
2.518684e+003,5.348125e-003
2.520612e+003,5.383683e-003
2.522541e+003,5.405456e-003
2.524469e+003,5.458970e-003
2.526398e+003,5.518632e-003
2.528326e+003,5.543499e-003
2.530255e+003,5.541753e-003
2.532184e+003,5.515611e-003
2.534112e+003,5.534337e-003
2.536041e+003,5.584275e-003
2.537969e+003,5.637577e-003
2.539898e+003,5.683398e-003
2.541826e+003,5.728788e-003
2.543755e+003,5.740740e-003
2.545683e+003,5.767231e-003
2.547612e+003,5.836070e-003
2.549541e+003,5.943983e-003
2.551469e+003,6.032100e-003
2.553397e+003,6.056089e-003
2.555326e+003,6.017889e-003
2.557255e+003,5.976131e-003
2.559183e+003,6.006298e-003
2.561112e+003,6.103803e-003
2.563040e+003,6.196322e-003
2.564969e+003,6.254371e-003
2.566897e+003,6.243682e-003
2.568826e+003,6.271346e-003
2.570754e+003,6.332767e-003
2.572683e+003,6.375905e-003
2.574612e+003,6.417029e-003
2.576540e+003,6.452473e-003
2.578469e+003,6.487955e-003
2.580397e+003,6.527172e-003
2.582326e+003,6.605988e-003
2.584254e+003,6.694442e-003
2.586183e+003,6.752018e-003
2.588111e+003,6.784427e-003
2.590040e+003,6.814483e-003
2.591969e+003,6.864368e-003
2.593897e+003,6.926175e-003
2.595826e+003,6.998666e-003
2.597754e+003,7.073828e-003
2.599683e+003,7.151935e-003
2.601611e+003,7.175616e-003
2.603540e+003,7.148432e-003
2.605468e+003,7.171034e-003
2.607397e+003,7.255392e-003
2.609325e+003,7.332924e-003
2.611254e+003,7.451929e-003
2.613183e+003,7.525249e-003
2.615111e+003,7.518035e-003
2.617040e+003,7.567629e-003
2.618968e+003,7.681673e-003
2.620897e+003,7.752400e-003
2.622825e+003,7.805091e-003
2.624754e+003,7.892744e-003
2.626682e+003,7.965463e-003
2.628611e+003,8.015412e-003
2.630540e+003,8.092270e-003
2.632468e+003,8.158540e-003
2.634396e+003,8.188860e-003
2.636325e+003,8.245083e-003
2.638254e+003,8.274935e-003
2.640182e+003,8.305837e-003
2.642111e+003,8.355352e-003
2.644039e+003,8.349847e-003
2.645968e+003,8.327453e-003
2.647896e+003,8.333837e-003
2.649825e+003,8.372715e-003
2.651753e+003,8.412947e-003
2.653682e+003,8.499945e-003
2.655611e+003,8.554416e-003
2.657539e+003,8.569117e-003
2.659468e+003,8.576247e-003
2.661396e+003,8.582330e-003
2.663325e+003,8.591016e-003
2.665253e+003,8.618729e-003
2.667182e+003,8.629849e-003
2.669110e+003,8.613490e-003
2.671039e+003,8.633432e-003
2.672968e+003,8.673147e-003
2.674896e+003,8.665339e-003
2.676825e+003,8.624306e-003
2.678753e+003,8.630254e-003
2.680682e+003,8.641409e-003
2.682610e+003,8.622785e-003
2.684539e+003,8.649656e-003
2.686467e+003,8.728959e-003
2.688396e+003,8.746403e-003
2.690324e+003,8.744916e-003
2.692253e+003,8.799012e-003
2.694182e+003,8.829309e-003
2.696110e+003,8.896775e-003
2.698039e+003,8.933098e-003
2.699967e+003,8.923966e-003
2.701896e+003,9.003861e-003
2.703824e+003,9.137063e-003
2.705753e+003,9.188332e-003
2.707681e+003,9.215203e-003
2.709610e+003,9.246713e-003
2.711539e+003,9.287806e-003
2.713467e+003,9.422381e-003
2.715396e+003,9.548091e-003
2.717324e+003,9.663097e-003
2.719253e+003,9.687897e-003
2.721181e+003,9.697248e-003
2.723110e+003,9.767187e-003
2.725038e+003,9.855948e-003
2.726967e+003,9.965950e-003
2.728896e+003,1.008568e-002
2.730824e+003,1.023393e-002
2.732752e+003,1.032313e-002
2.734681e+003,1.031339e-002
2.736610e+003,1.037020e-002
2.738538e+003,1.048172e-002
2.740467e+003,1.050860e-002
2.742395e+003,1.053396e-002
2.744324e+003,1.065198e-002
2.746252e+003,1.076049e-002
2.748181e+003,1.082407e-002
2.750109e+003,1.082061e-002
2.752038e+003,1.085872e-002
2.753967e+003,1.099141e-002
2.755895e+003,1.115211e-002
2.757824e+003,1.128373e-002
2.759752e+003,1.139988e-002
2.761681e+003,1.155447e-002
2.763609e+003,1.170180e-002
2.765538e+003,1.181281e-002
2.767466e+003,1.195553e-002
2.769395e+003,1.210303e-002
2.771323e+003,1.222662e-002
2.773252e+003,1.240722e-002
2.775181e+003,1.260712e-002
2.777109e+003,1.283579e-002
2.779038e+003,1.308298e-002
2.780966e+003,1.334579e-002
2.782895e+003,1.361973e-002
2.784823e+003,1.389778e-002
2.786752e+003,1.420918e-002
2.788680e+003,1.450543e-002
2.790609e+003,1.478147e-002
2.792538e+003,1.507224e-002
2.794466e+003,1.542325e-002
2.796395e+003,1.578488e-002
2.798323e+003,1.611982e-002
2.800252e+003,1.645002e-002
2.802180e+003,1.685846e-002
2.804109e+003,1.728282e-002
2.806037e+003,1.776128e-002
2.807966e+003,1.827931e-002
2.809895e+003,1.877333e-002
2.811823e+003,1.927030e-002
2.813751e+003,1.985482e-002
2.815680e+003,2.059126e-002
2.817609e+003,2.140706e-002
2.819537e+003,2.225655e-002
2.821466e+003,2.318309e-002
2.823394e+003,2.431077e-002
2.825323e+003,2.568802e-002
2.827251e+003,2.725632e-002
2.829180e+003,2.914594e-002
2.831108e+003,3.153451e-002
2.833037e+003,3.453828e-002
2.834966e+003,3.843872e-002
2.836894e+003,4.382185e-002
2.838823e+003,5.160001e-002
2.840751e+003,6.340131e-002
2.842680e+003,8.183629e-002
2.844608e+003,1.102691e-001
2.846537e+003,1.471273e-001
2.848465e+003,1.702839e-001
2.850394e+003,1.549105e-001
2.852323e+003,1.189066e-001
2.854251e+003,8.888654e-002
2.856180e+003,6.889825e-002
2.858108e+003,5.530788e-002
2.860037e+003,4.585101e-002
2.861965e+003,3.946534e-002
2.863894e+003,3.539237e-002
2.865822e+003,3.312371e-002
2.867751e+003,3.209971e-002
2.869679e+003,3.199466e-002
2.871608e+003,3.260599e-002
2.873537e+003,3.374523e-002
2.875465e+003,3.544084e-002
2.877394e+003,3.770114e-002
2.879322e+003,4.048298e-002
2.881251e+003,4.361346e-002
2.883179e+003,4.692239e-002
2.885108e+003,5.037120e-002
2.887036e+003,5.391356e-002
2.888965e+003,5.752650e-002
2.890894e+003,6.117540e-002
2.892822e+003,6.476086e-002
2.894750e+003,6.828919e-002
2.896679e+003,7.186784e-002
2.898608e+003,7.552961e-002
2.900536e+003,7.941791e-002
2.902465e+003,8.406425e-002
2.904393e+003,8.999035e-002
2.906322e+003,9.807292e-002
2.908250e+003,1.096612e-001
2.910179e+003,1.264078e-001
2.912107e+003,1.497679e-001
2.914036e+003,1.773947e-001
2.915965e+003,1.976829e-001
2.917893e+003,1.969289e-001
2.919822e+003,1.771122e-001
2.921750e+003,1.509057e-001
2.923679e+003,1.266367e-001
2.925607e+003,1.069385e-001
2.927536e+003,9.144479e-002
2.929464e+003,7.871902e-002
2.931393e+003,6.801122e-002
2.933322e+003,5.894449e-002
2.935250e+003,5.115929e-002
2.937179e+003,4.458147e-002
2.939107e+003,3.901106e-002
2.941036e+003,3.421752e-002
2.942964e+003,3.008993e-002
2.944893e+003,2.680543e-002
2.946821e+003,2.451837e-002
2.948750e+003,2.310624e-002
2.950678e+003,2.223158e-002
2.952607e+003,2.158507e-002
2.954536e+003,2.100156e-002
2.956464e+003,2.042946e-002
2.958393e+003,1.976583e-002
2.960321e+003,1.901856e-002
2.962250e+003,1.826062e-002
2.964178e+003,1.752811e-002
2.966107e+003,1.676143e-002
2.968035e+003,1.592781e-002
2.969964e+003,1.512922e-002
2.971893e+003,1.448350e-002
2.973821e+003,1.392115e-002
2.975750e+003,1.333345e-002
2.977678e+003,1.277839e-002
2.979607e+003,1.233341e-002
2.981535e+003,1.197992e-002
2.983464e+003,1.163584e-002
2.985392e+003,1.139368e-002
2.987321e+003,1.113297e-002
2.989250e+003,1.088638e-002
2.991178e+003,1.072669e-002
2.993106e+003,1.052439e-002
2.995035e+003,1.032581e-002
2.996964e+003,1.023441e-002
2.998892e+003,1.026474e-002
3.000821e+003,1.026827e-002
3.002749e+003,1.023672e-002
3.004678e+003,1.025348e-002
3.006606e+003,1.026233e-002
3.008535e+003,1.027858e-002
3.010463e+003,1.021290e-002
3.012392e+003,1.016569e-002
3.014321e+003,1.020999e-002
3.016249e+003,1.025840e-002
3.018178e+003,1.026192e-002
3.020106e+003,1.024438e-002
3.022035e+003,1.025568e-002
3.023963e+003,1.030593e-002
3.025892e+003,1.039419e-002
3.027820e+003,1.053043e-002
3.029749e+003,1.059884e-002
3.031677e+003,1.060597e-002
3.033606e+003,1.063191e-002
3.035535e+003,1.069993e-002
3.037463e+003,1.072309e-002
3.039392e+003,1.069110e-002
3.041320e+003,1.073797e-002
3.043249e+003,1.078732e-002
3.045177e+003,1.080753e-002
3.047106e+003,1.084238e-002
3.049034e+003,1.094332e-002
3.050963e+003,1.103647e-002
3.052892e+003,1.102349e-002
3.054820e+003,1.101523e-002
3.056749e+003,1.108474e-002
3.058677e+003,1.119291e-002
3.060606e+003,1.126509e-002
3.062534e+003,1.128971e-002
3.064463e+003,1.129703e-002
3.066391e+003,1.130420e-002
3.068320e+003,1.133784e-002
3.070249e+003,1.130923e-002
3.072177e+003,1.127788e-002
3.074105e+003,1.126183e-002
3.076034e+003,1.121545e-002
3.077963e+003,1.120280e-002
3.079891e+003,1.124816e-002
3.081820e+003,1.126397e-002
3.083748e+003,1.117907e-002
3.085677e+003,1.121984e-002
3.087605e+003,1.136181e-002
3.089534e+003,1.139862e-002
3.091462e+003,1.128308e-002
3.093391e+003,1.122487e-002
3.095320e+003,1.120375e-002
3.097248e+003,1.115860e-002
3.099177e+003,1.116255e-002
3.101105e+003,1.114596e-002
3.103034e+003,1.107950e-002
3.104962e+003,1.102247e-002
3.106891e+003,1.109833e-002
3.108819e+003,1.115160e-002
3.110748e+003,1.118699e-002
3.112677e+003,1.124173e-002
3.114605e+003,1.124459e-002
3.116534e+003,1.125700e-002
3.118462e+003,1.134219e-002
3.120391e+003,1.139937e-002
3.122319e+003,1.143539e-002
3.124248e+003,1.150326e-002
3.126176e+003,1.159071e-002
3.128105e+003,1.163495e-002
3.130033e+003,1.168519e-002
3.131962e+003,1.179021e-002
3.133891e+003,1.191098e-002
3.135819e+003,1.195996e-002
3.137748e+003,1.204774e-002
3.139676e+003,1.216917e-002
3.141605e+003,1.224915e-002
3.143533e+003,1.237551e-002
3.145462e+003,1.248629e-002
3.147390e+003,1.260016e-002
3.149319e+003,1.266501e-002
3.151248e+003,1.274021e-002
3.153176e+003,1.285111e-002
3.155104e+003,1.294648e-002
3.157033e+003,1.303750e-002
3.158962e+003,1.314752e-002
3.160890e+003,1.329980e-002
3.162819e+003,1.341085e-002
3.164747e+003,1.351663e-002
3.166676e+003,1.372532e-002
3.168604e+003,1.390367e-002
3.170533e+003,1.396566e-002
3.172461e+003,1.399557e-002
3.174390e+003,1.410532e-002
3.176319e+003,1.428434e-002
3.178247e+003,1.441848e-002
3.180176e+003,1.451735e-002
3.182104e+003,1.463080e-002
3.184033e+003,1.477853e-002
3.185961e+003,1.488015e-002
3.187890e+003,1.496704e-002
3.189818e+003,1.508037e-002
3.191747e+003,1.522358e-002
3.193676e+003,1.535424e-002
3.195604e+003,1.548285e-002
3.197532e+003,1.554281e-002
3.199461e+003,1.558804e-002
3.201390e+003,1.564468e-002
3.203318e+003,1.574942e-002
3.205247e+003,1.583261e-002
3.207175e+003,1.592492e-002
3.209104e+003,1.603430e-002
3.211032e+003,1.610761e-002
3.212961e+003,1.619606e-002
3.214889e+003,1.630991e-002
3.216818e+003,1.638240e-002
3.218747e+003,1.643467e-002
3.220675e+003,1.650533e-002
3.222604e+003,1.655055e-002
3.224532e+003,1.667528e-002
3.226461e+003,1.677535e-002
3.228389e+003,1.686132e-002
3.230318e+003,1.697276e-002
3.232246e+003,1.701056e-002
3.234175e+003,1.708334e-002
3.236104e+003,1.724428e-002
3.238032e+003,1.729693e-002
3.239961e+003,1.733082e-002
3.241889e+003,1.742342e-002
3.243818e+003,1.756748e-002
3.245746e+003,1.783377e-002
3.247675e+003,1.805823e-002
3.249603e+003,1.814853e-002
3.251532e+003,1.828408e-002
3.253460e+003,1.845221e-002
3.255389e+003,1.849494e-002
3.257318e+003,1.857558e-002
3.259246e+003,1.879225e-002
3.261175e+003,1.897512e-002
3.263103e+003,1.915019e-002
3.265032e+003,1.926891e-002
3.266960e+003,1.939151e-002
3.268889e+003,1.948393e-002
3.270817e+003,1.942779e-002
3.272746e+003,1.946601e-002
3.274675e+003,1.966479e-002
3.276603e+003,1.979007e-002
3.278531e+003,1.984476e-002
3.280460e+003,1.987601e-002
3.282389e+003,1.987056e-002
3.284317e+003,1.986134e-002
3.286246e+003,1.984226e-002
3.288174e+003,1.983775e-002
3.290103e+003,1.976298e-002
3.292031e+003,1.965151e-002
3.293960e+003,1.959480e-002
3.295888e+003,1.961206e-002
3.297817e+003,1.955286e-002
3.299746e+003,1.946348e-002
3.301674e+003,1.938049e-002
3.303603e+003,1.925322e-002
3.305531e+003,1.911304e-002
3.307460e+003,1.897851e-002
3.309388e+003,1.890025e-002
3.311317e+003,1.882772e-002
3.313245e+003,1.868653e-002
3.315174e+003,1.866364e-002
3.317103e+003,1.858288e-002
3.319031e+003,1.850404e-002
3.320960e+003,1.852018e-002
3.322888e+003,1.842694e-002
3.324817e+003,1.819296e-002
3.326745e+003,1.808234e-002
3.328674e+003,1.816960e-002
3.330602e+003,1.818995e-002
3.332531e+003,1.808120e-002
3.334459e+003,1.793034e-002
3.336388e+003,1.775093e-002
3.338317e+003,1.762089e-002
3.340245e+003,1.757210e-002
3.342174e+003,1.739769e-002
3.344102e+003,1.726897e-002
3.346031e+003,1.725762e-002
3.347959e+003,1.714914e-002
3.349888e+003,1.700487e-002
3.351816e+003,1.691157e-002
3.353745e+003,1.690458e-002
3.355674e+003,1.685849e-002
3.357602e+003,1.670854e-002
3.359531e+003,1.654209e-002
3.361459e+003,1.648275e-002
3.363388e+003,1.653004e-002
3.365316e+003,1.640391e-002
3.367245e+003,1.621676e-002
3.369173e+003,1.611132e-002
3.371102e+003,1.603444e-002
3.373031e+003,1.595726e-002
3.374959e+003,1.588330e-002
3.376887e+003,1.580494e-002
3.378816e+003,1.570665e-002
3.380745e+003,1.564206e-002
3.382673e+003,1.562863e-002
3.384602e+003,1.545085e-002
3.386530e+003,1.525907e-002
3.388459e+003,1.524616e-002
3.390387e+003,1.512010e-002
3.392316e+003,1.501431e-002
3.394244e+003,1.502237e-002
3.396173e+003,1.494461e-002
3.398102e+003,1.477503e-002
3.400030e+003,1.461661e-002
3.401959e+003,1.451663e-002
3.403887e+003,1.438971e-002
3.405816e+003,1.433831e-002
3.407744e+003,1.431129e-002
3.409673e+003,1.421832e-002
3.411601e+003,1.414633e-002
3.413530e+003,1.414188e-002
3.415458e+003,1.403301e-002
3.417387e+003,1.386918e-002
3.419316e+003,1.378654e-002
3.421244e+003,1.371431e-002
3.423173e+003,1.363983e-002
3.425101e+003,1.353977e-002
3.427030e+003,1.342192e-002
3.428958e+003,1.333455e-002
3.430887e+003,1.321826e-002
3.432815e+003,1.310094e-002
3.434744e+003,1.294593e-002
3.436673e+003,1.288729e-002
3.438601e+003,1.292668e-002
3.440530e+003,1.284452e-002
3.442458e+003,1.266842e-002
3.444387e+003,1.253956e-002
3.446315e+003,1.249986e-002
3.448244e+003,1.244977e-002
3.450172e+003,1.233873e-002
3.452101e+003,1.220580e-002
3.454030e+003,1.205925e-002
3.455958e+003,1.200257e-002
3.457886e+003,1.190911e-002
3.459815e+003,1.168475e-002
3.461744e+003,1.144012e-002
3.463672e+003,1.135913e-002
3.465601e+003,1.133801e-002
3.467529e+003,1.122449e-002
3.469458e+003,1.115235e-002
3.471386e+003,1.111699e-002
3.473315e+003,1.099103e-002
3.475243e+003,1.081072e-002
3.477172e+003,1.068302e-002
3.479101e+003,1.054510e-002
3.481029e+003,1.043067e-002
3.482958e+003,1.035445e-002
3.484886e+003,1.030596e-002
3.486815e+003,1.020320e-002
3.488743e+003,1.002413e-002
3.490672e+003,9.803584e-003
3.492600e+003,9.652797e-003
3.494529e+003,9.571292e-003
3.496458e+003,9.563841e-003
3.498386e+003,9.363231e-003
3.500315e+003,9.155911e-003
3.502243e+003,9.048990e-003
3.504172e+003,8.915612e-003
3.506100e+003,8.782445e-003
3.508029e+003,8.725206e-003
3.509957e+003,8.715132e-003
3.511886e+003,8.611733e-003
3.513814e+003,8.491194e-003
3.515743e+003,8.340592e-003
3.517672e+003,8.164213e-003
3.519600e+003,8.061958e-003
3.521529e+003,7.913900e-003
3.523457e+003,7.811771e-003
3.525386e+003,7.776047e-003
3.527314e+003,7.653243e-003
3.529243e+003,7.437773e-003
3.531171e+003,7.351257e-003
3.533100e+003,7.346000e-003
3.535029e+003,7.173190e-003
3.536957e+003,6.999878e-003
3.538885e+003,7.007353e-003
3.540814e+003,6.829024e-003
3.542743e+003,6.499121e-003
3.544671e+003,6.405831e-003
3.546600e+003,6.431791e-003
3.548528e+003,6.328161e-003
3.550457e+003,6.151320e-003
3.552385e+003,6.057433e-003
3.554314e+003,6.033478e-003
3.556242e+003,5.957084e-003
3.558171e+003,5.819850e-003
3.560100e+003,5.698706e-003
3.562028e+003,5.537122e-003
3.563957e+003,5.317533e-003
3.565885e+003,5.239990e-003
3.567814e+003,5.218058e-003
3.569742e+003,5.170710e-003
3.571671e+003,5.148949e-003
3.573599e+003,5.072308e-003
3.575528e+003,4.867395e-003
3.577457e+003,4.765778e-003
3.579385e+003,4.706254e-003
3.581314e+003,4.613516e-003
3.583242e+003,4.518822e-003
3.585171e+003,4.364504e-003
3.587099e+003,4.249053e-003
3.589028e+003,4.198130e-003
3.590956e+003,3.967279e-003
3.592885e+003,3.853671e-003
3.594813e+003,4.001654e-003
3.596742e+003,3.967914e-003
3.598671e+003,3.825557e-003
3.600599e+003,3.803429e-003
3.602528e+003,3.762218e-003
3.604456e+003,3.672889e-003
3.606385e+003,3.528090e-003
3.608313e+003,3.440179e-003
3.610242e+003,3.371653e-003
3.612170e+003,3.228390e-003
3.614099e+003,3.160798e-003
3.616028e+003,3.012167e-003
3.617956e+003,2.834503e-003
3.619885e+003,2.776610e-003
3.621813e+003,2.698953e-003
3.623742e+003,2.574510e-003
3.625670e+003,2.466297e-003
3.627599e+003,2.377701e-003
3.629527e+003,2.552945e-003
3.631456e+003,2.438807e-003
3.633385e+003,2.188242e-003
3.635313e+003,2.189041e-003
3.637241e+003,2.115551e-003
3.639170e+003,2.073866e-003
3.641099e+003,2.036547e-003
3.643027e+003,1.960287e-003
3.644956e+003,1.860313e-003
3.646884e+003,1.779925e-003
3.648813e+003,1.811566e-003
3.650741e+003,1.831663e-003
3.652670e+003,1.704575e-003
3.654598e+003,1.597943e-003
3.656527e+003,1.652087e-003
3.658456e+003,1.590028e-003
3.660384e+003,1.528941e-003
3.662313e+003,1.435483e-003
3.664241e+003,1.299471e-003
3.666170e+003,1.255406e-003
3.668098e+003,1.256004e-003
3.670027e+003,1.342843e-003
3.671955e+003,1.380269e-003
3.673884e+003,1.122440e-003
3.675813e+003,1.205232e-003
3.677741e+003,1.279332e-003
3.679670e+003,1.116427e-003
3.681598e+003,1.085003e-003
3.683527e+003,1.004891e-003
3.685455e+003,8.452430e-004
3.687384e+003,8.595518e-004
3.689312e+003,1.094437e-003
3.691241e+003,1.082645e-003
3.693169e+003,1.033254e-003
3.695098e+003,9.209092e-004
3.697027e+003,8.568626e-004
3.698955e+003,8.489281e-004
3.700884e+003,8.653950e-004
3.702812e+003,8.897978e-004
3.704741e+003,8.790073e-004
3.706669e+003,8.643326e-004
3.708598e+003,8.142034e-004
3.710526e+003,7.410451e-004
3.712455e+003,7.781538e-004
3.714384e+003,8.122448e-004
3.716312e+003,8.287436e-004
3.718240e+003,8.552358e-004
3.720169e+003,8.254571e-004
3.722098e+003,7.984355e-004
3.724026e+003,6.785185e-004
3.725955e+003,5.968558e-004
3.727883e+003,5.835841e-004
3.729812e+003,5.839159e-004
3.731740e+003,7.393192e-004
3.733669e+003,6.773570e-004
3.735597e+003,6.110901e-004
3.737526e+003,6.657753e-004
3.739455e+003,5.226725e-004
3.741383e+003,3.943084e-004
3.743312e+003,4.037934e-004
3.745240e+003,6.819034e-004
3.747169e+003,5.085407e-004
3.749097e+003,3.968620e-004
3.751026e+003,5.912816e-004
3.752954e+003,6.896690e-004
3.754883e+003,5.760527e-004
3.756812e+003,4.452846e-004
3.758740e+003,4.636933e-004
3.760669e+003,5.490798e-004
3.762597e+003,5.021052e-004
3.764526e+003,3.760685e-004
3.766454e+003,3.607807e-004
3.768383e+003,3.328595e-004
3.770311e+003,4.023673e-004
3.772240e+003,4.660815e-004
3.774168e+003,4.416030e-004
3.776097e+003,3.928823e-004
3.778026e+003,3.430728e-004
3.779954e+003,4.021683e-004
3.781883e+003,3.227792e-004
3.783811e+003,2.185740e-004
3.785740e+003,2.214913e-004
3.787668e+003,2.344203e-004
3.789597e+003,2.952915e-004
3.791525e+003,3.089854e-004
3.793454e+003,2.042200e-004
3.795383e+003,1.139629e-004
3.797311e+003,1.719334e-004
3.799240e+003,1.113115e-004
3.801168e+003,2.279226e-004
3.803097e+003,3.144233e-004
3.805025e+003,7.654638e-005
3.806954e+003,1.565203e-004
3.808882e+003,2.102864e-004
3.810811e+003,6.375457e-005
3.812740e+003,-7.113296e-005
3.814668e+003,-6.636241e-005
3.816596e+003,1.397819e-004
3.818525e+003,1.183046e-004
3.820454e+003,4.933939e-005
3.822382e+003,1.653040e-004
3.824311e+003,9.295093e-005
3.826239e+003,-2.080768e-005
3.828168e+003,1.023854e-005
3.830096e+003,8.681205e-006
3.832025e+003,-9.675032e-006
3.833953e+003,-5.367383e-005
3.835882e+003,-2.011433e-004
3.837811e+003,-1.050222e-004
3.839739e+003,-6.693024e-006
3.841668e+003,-1.449372e-004
3.843596e+003,-1.558014e-004
3.845525e+003,-9.425612e-005
3.847453e+003,-2.250543e-004
3.849382e+003,-3.920637e-004
3.851310e+003,-4.584987e-004
3.853239e+003,-3.180366e-004
3.855167e+003,-6.407651e-005
3.857096e+003,-1.620284e-004
3.859025e+003,-3.179041e-004
3.860953e+003,-3.704793e-004
3.862882e+003,-3.518072e-004
3.864810e+003,-3.041965e-004
3.866739e+003,-2.429371e-004
3.868667e+003,-2.955213e-004
3.870596e+003,-2.178017e-004
3.872524e+003,-2.657531e-004
3.874453e+003,-3.568064e-004
3.876382e+003,-3.895147e-004
3.878310e+003,-4.931520e-004
3.880239e+003,-4.943435e-004
3.882167e+003,-4.215916e-004
3.884096e+003,-5.032794e-004
3.886024e+003,-5.275048e-004
3.887953e+003,-5.016908e-004
3.889881e+003,-5.437866e-004
3.891810e+003,-5.562954e-004
3.893739e+003,-5.505705e-004
3.895667e+003,-5.379954e-004
3.897595e+003,-6.228707e-004
3.899524e+003,-6.194296e-004
3.901453e+003,-6.221759e-004
3.903381e+003,-5.731388e-004
3.905310e+003,-4.882537e-004
3.907238e+003,-5.896836e-004
3.909167e+003,-7.520544e-004
3.911095e+003,-7.661118e-004
3.913024e+003,-7.210604e-004
3.914952e+003,-7.678648e-004
3.916881e+003,-7.391543e-004
3.918810e+003,-6.351456e-004
3.920738e+003,-6.144997e-004
3.922667e+003,-6.754089e-004
3.924595e+003,-6.686931e-004
3.926524e+003,-7.026019e-004
3.928452e+003,-7.831785e-004
3.930381e+003,-7.653842e-004
3.932309e+003,-7.313810e-004
3.934238e+003,-7.673687e-004
3.936167e+003,-8.312659e-004
3.938095e+003,-8.116877e-004
3.940024e+003,-9.178694e-004
3.941952e+003,-9.675619e-004
3.943881e+003,-8.248832e-004
3.945809e+003,-8.817289e-004
3.947738e+003,-1.038272e-003
3.949666e+003,-1.011728e-003
3.951595e+003,-9.522216e-004
3.953523e+003,-9.502710e-004
3.955452e+003,-9.987697e-004
3.957380e+003,-9.712977e-004
3.959309e+003,-9.749012e-004
3.961238e+003,-1.038140e-003
3.963166e+003,-1.013348e-003
3.965095e+003,-9.504363e-004
3.967023e+003,-8.560352e-004
3.968952e+003,-8.579532e-004
3.970880e+003,-9.599910e-004
3.972809e+003,-1.008422e-003
3.974737e+003,-1.017579e-003
3.976666e+003,-1.045114e-003
3.978594e+003,-1.082200e-003
3.980523e+003,-1.081506e-003
3.982452e+003,-1.111813e-003
3.984380e+003,-1.175032e-003
3.986309e+003,-1.135377e-003
3.988237e+003,-1.079556e-003
3.990166e+003,-1.079093e-003
3.992094e+003,-1.135277e-003
3.994023e+003,-1.233979e-003
3.995951e+003,-1.293348e-003
3.997880e+003,-1.305340e-003
3.999809e+003,-1.320800e-003
4.001737e+003,0.000000e+000
