3.992094e+002,0.000000e+000
4.011380e+002,0.000000e+000
4.030665e+002,0.000000e+000
4.049951e+002,0.000000e+000
4.069236e+002,0.000000e+000
4.088522e+002,0.000000e+000
4.107807e+002,0.000000e+000
4.127093e+002,0.000000e+000
4.146378e+002,0.000000e+000
4.165664e+002,0.000000e+000
4.184949e+002,0.000000e+000
4.204235e+002,0.000000e+000
4.223520e+002,0.000000e+000
4.242806e+002,0.000000e+000
4.262091e+002,0.000000e+000
4.281377e+002,0.000000e+000
4.300662e+002,0.000000e+000
4.319948e+002,0.000000e+000
4.339233e+002,0.000000e+000
4.358519e+002,0.000000e+000
4.377804e+002,0.000000e+000
4.397090e+002,0.000000e+000
4.416375e+002,0.000000e+000
4.435660e+002,0.000000e+000
4.454946e+002,0.000000e+000
4.474232e+002,0.000000e+000
4.493517e+002,0.000000e+000
4.512802e+002,0.000000e+000
4.532088e+002,0.000000e+000
4.551373e+002,0.000000e+000
4.570659e+002,0.000000e+000
4.589944e+002,0.000000e+000
4.609230e+002,0.000000e+000
4.628515e+002,0.000000e+000
4.647801e+002,0.000000e+000
4.667086e+002,0.000000e+000
4.686372e+002,0.000000e+000
4.705657e+002,0.000000e+000
4.724943e+002,0.000000e+000
4.744228e+002,0.000000e+000
4.763514e+002,0.000000e+000
4.782799e+002,0.000000e+000
4.802085e+002,0.000000e+000
4.821370e+002,0.000000e+000
4.840656e+002,0.000000e+000
4.859941e+002,0.000000e+000
4.879226e+002,0.000000e+000
4.898512e+002,0.000000e+000
4.917798e+002,0.000000e+000
4.937083e+002,0.000000e+000
4.956368e+002,0.000000e+000
4.975654e+002,0.000000e+000
4.994939e+002,0.000000e+000
5.014225e+002,0.000000e+000
5.033510e+002,0.000000e+000
5.052796e+002,0.000000e+000
5.072081e+002,0.000000e+000
5.091367e+002,0.000000e+000
5.110652e+002,0.000000e+000
5.129938e+002,0.000000e+000
5.149223e+002,0.000000e+000
5.168509e+002,0.000000e+000
5.187794e+002,0.000000e+000
5.207079e+002,0.000000e+000
5.226365e+002,0.000000e+000
5.245651e+002,0.000000e+000
5.264936e+002,0.000000e+000
5.284221e+002,0.000000e+000
5.303507e+002,0.000000e+000
5.322792e+002,0.000000e+000
5.342078e+002,0.000000e+000
5.361364e+002,0.000000e+000
5.380649e+002,0.000000e+000
5.399934e+002,0.000000e+000
5.419220e+002,0.000000e+000
5.438505e+002,0.000000e+000
5.457791e+002,0.000000e+000
5.477076e+002,0.000000e+000
5.496362e+002,0.000000e+000
5.515647e+002,0.000000e+000
5.534933e+002,0.000000e+000
5.554218e+002,0.000000e+000
5.573503e+002,0.000000e+000
5.592789e+002,0.000000e+000
5.612075e+002,0.000000e+000
5.631360e+002,0.000000e+000
5.650646e+002,0.000000e+000
5.669931e+002,0.000000e+000
5.689216e+002,0.000000e+000
5.708502e+002,0.000000e+000
5.727787e+002,0.000000e+000
5.747073e+002,0.000000e+000
5.766359e+002,0.000000e+000
5.785644e+002,0.000000e+000
5.804929e+002,0.000000e+000
5.824215e+002,0.000000e+000
5.843500e+002,0.000000e+000
5.862786e+002,0.000000e+000
5.882072e+002,0.000000e+000
5.901357e+002,0.000000e+000
5.920642e+002,0.000000e+000
5.939928e+002,0.000000e+000
5.959213e+002,0.000000e+000
5.978499e+002,0.000000e+000
5.997784e+002,0.000000e+000
6.017070e+002,0.000000e+000
6.036355e+002,0.000000e+000
6.055641e+002,0.000000e+000
6.074926e+002,0.000000e+000
6.094211e+002,0.000000e+000
6.113497e+002,0.000000e+000
6.132783e+002,0.000000e+000
6.152068e+002,0.000000e+000
6.171354e+002,0.000000e+000
6.190639e+002,0.000000e+000
6.209924e+002,0.000000e+000
6.229210e+002,0.000000e+000
6.248495e+002,0.000000e+000
6.267781e+002,0.000000e+000
6.287067e+002,0.000000e+000
6.306352e+002,0.000000e+000
6.325637e+002,0.000000e+000
6.344923e+002,0.000000e+000
6.364208e+002,0.000000e+000
6.383494e+002,0.000000e+000
6.402780e+002,0.000000e+000
6.422065e+002,0.000000e+000
6.441350e+002,0.000000e+000
6.460636e+002,0.000000e+000
6.479921e+002,0.000000e+000
6.499207e+002,0.000000e+000
6.518492e+002,0.000000e+000
6.537778e+002,0.000000e+000
6.557063e+002,0.000000e+000
6.576349e+002,0.000000e+000
6.595634e+002,0.000000e+000
6.614919e+002,0.000000e+000
6.634205e+002,0.000000e+000
6.653491e+002,0.000000e+000
6.672776e+002,0.000000e+000
6.692062e+002,0.000000e+000
6.711347e+002,0.000000e+000
6.730632e+002,0.000000e+000
6.749918e+002,2.193470e-003
6.769203e+002,2.874860e-003
6.788489e+002,3.124187e-003
6.807775e+002,2.920457e-003
6.827060e+002,2.908282e-003
6.846345e+002,3.103295e-003
6.865631e+002,3.287246e-003
6.884916e+002,3.572120e-003
6.904202e+002,3.522946e-003
6.923488e+002,3.785614e-003
6.942773e+002,4.049745e-003
6.962058e+002,4.427999e-003
6.981344e+002,4.954054e-003
7.000629e+002,5.667318e-003
7.019915e+002,6.791529e-003
7.039200e+002,8.184268e-003
7.058486e+002,1.013523e-002
7.077771e+002,1.253454e-002
7.097057e+002,1.618340e-002
7.116342e+002,2.321993e-002
7.135627e+002,3.566426e-002
7.154913e+002,5.519481e-002
7.174199e+002,7.678479e-002
7.193484e+002,8.134966e-002
7.212770e+002,5.754980e-002
7.232055e+002,3.455252e-002
7.251340e+002,2.707442e-002
7.270626e+002,3.117530e-002
7.289911e+002,4.474058e-002
7.309197e+002,4.924063e-002
7.328483e+002,2.974607e-002
7.347768e+002,9.859304e-003
7.367053e+002,1.511485e-003
7.386339e+002,-1.262128e-003
7.405624e+002,-2.347552e-003
7.424910e+002,-2.980560e-003
7.444196e+002,-3.331343e-003
7.463481e+002,-3.242621e-003
7.482766e+002,-3.187827e-003
7.502052e+002,-3.311252e-003
7.521337e+002,-3.788311e-003
7.540623e+002,-4.406300e-003
7.559908e+002,-4.564628e-003
7.579194e+002,-4.479896e-003
7.598479e+002,-4.628296e-003
7.617765e+002,-4.626559e-003
7.637050e+002,-4.717948e-003
7.656335e+002,-4.864334e-003
7.675621e+002,-4.778940e-003
7.694907e+002,-4.595939e-003
7.714192e+002,-4.655964e-003
7.733478e+002,-4.776712e-003
7.752763e+002,-5.074373e-003
7.772048e+002,-5.359916e-003
7.791334e+002,-5.174868e-003
7.810620e+002,-4.938246e-003
7.829905e+002,-5.222079e-003
7.849191e+002,-5.370651e-003
7.868476e+002,-5.412703e-003
7.887761e+002,-5.487732e-003
7.907047e+002,-5.630293e-003
7.926332e+002,-5.926978e-003
7.945618e+002,-6.080929e-003
7.964904e+002,-6.022571e-003
7.984189e+002,-6.050705e-003
8.003474e+002,-5.917924e-003
8.022760e+002,-5.817698e-003
8.042045e+002,-5.808119e-003
8.061331e+002,-6.054463e-003
8.080616e+002,-6.264253e-003
8.099902e+002,-6.379885e-003
8.119187e+002,-6.277872e-003
8.138473e+002,-6.371363e-003
8.157758e+002,-6.618301e-003
8.177043e+002,-6.687543e-003
8.196329e+002,-6.841127e-003
8.215615e+002,-6.985691e-003
8.234900e+002,-7.091287e-003
8.254186e+002,-7.409093e-003
8.273471e+002,-7.433360e-003
8.292756e+002,-7.383392e-003
8.312042e+002,-7.614063e-003
8.331328e+002,-7.925143e-003
8.350613e+002,-8.053311e-003
8.369899e+002,-7.930413e-003
8.389184e+002,-7.884569e-003
8.408469e+002,-8.082940e-003
8.427755e+002,-8.308917e-003
8.447040e+002,-8.330403e-003
8.466326e+002,-8.050416e-003
8.485612e+002,-7.985068e-003
8.504896e+002,-8.063524e-003
8.524182e+002,-8.173735e-003
8.543468e+002,-8.141933e-003
8.562753e+002,-8.109771e-003
8.582039e+002,-8.135430e-003
8.601324e+002,-8.195391e-003
8.620609e+002,-8.196301e-003
8.639895e+002,-8.093152e-003
8.659181e+002,-7.871034e-003
8.678466e+002,-7.618686e-003
8.697751e+002,-7.527254e-003
8.717037e+002,-7.667878e-003
8.736322e+002,-7.698966e-003
8.755608e+002,-7.747791e-003
8.774894e+002,-7.737864e-003
8.794178e+002,-7.744569e-003
8.813464e+002,-7.803250e-003
8.832750e+002,-7.854829e-003
8.852035e+002,-8.009562e-003
8.871321e+002,-8.158192e-003
8.890607e+002,-8.220199e-003
8.909891e+002,-8.368951e-003
8.929177e+002,-8.532242e-003
8.948463e+002,-8.646817e-003
8.967748e+002,-8.662278e-003
8.987034e+002,-8.702128e-003
9.006320e+002,-8.795034e-003
9.025604e+002,-8.833185e-003
9.044890e+002,-8.755614e-003
9.064176e+002,-8.742267e-003
9.083461e+002,-8.666694e-003
9.102747e+002,-8.688975e-003
9.122032e+002,-8.805847e-003
9.141317e+002,-8.917882e-003
9.160603e+002,-8.987051e-003
9.179889e+002,-9.060231e-003
9.199174e+002,-9.066267e-003
9.218459e+002,-9.017947e-003
9.237745e+002,-8.978255e-003
9.257030e+002,-8.986109e-003
9.276316e+002,-9.048355e-003
9.295602e+002,-9.212654e-003
9.314886e+002,-9.260856e-003
9.334172e+002,-9.236885e-003
9.353458e+002,-9.114549e-003
9.372743e+002,-9.044915e-003
9.392029e+002,-9.082199e-003
9.411315e+002,-9.117826e-003
9.430599e+002,-9.187676e-003
9.449885e+002,-9.186703e-003
9.469171e+002,-9.058252e-003
9.488456e+002,-8.934470e-003
9.507742e+002,-8.833672e-003
9.527028e+002,-8.867046e-003
9.546312e+002,-8.763862e-003
9.565598e+002,-8.513527e-003
9.584884e+002,-8.341942e-003
9.604169e+002,-8.305569e-003
9.623455e+002,-8.209274e-003
9.642740e+002,-8.076501e-003
9.662025e+002,-8.001332e-003
9.681311e+002,-7.880339e-003
9.700597e+002,-7.678067e-003
9.719882e+002,-7.619565e-003
9.739167e+002,-7.676017e-003
9.758453e+002,-7.720873e-003
9.777738e+002,-7.772039e-003
9.797024e+002,-7.757393e-003
9.816310e+002,-7.446616e-003
9.835594e+002,-7.202658e-003
9.854880e+002,-7.071630e-003
9.874166e+002,-6.935084e-003
9.893451e+002,-6.685879e-003
9.912737e+002,-6.455433e-003
9.932023e+002,-6.345960e-003
9.951307e+002,-6.226693e-003
9.970593e+002,-6.111543e-003
9.989879e+002,-5.953419e-003
1.000916e+003,-5.675165e-003
1.002845e+003,-5.425072e-003
1.004774e+003,-5.155386e-003
1.006702e+003,-4.864531e-003
1.008631e+003,-4.531839e-003
1.010559e+003,-4.132436e-003
1.012488e+003,-3.729085e-003
1.014416e+003,-3.336275e-003
1.016345e+003,-2.947289e-003
1.018273e+003,-2.480375e-003
1.020202e+003,-1.969290e-003
1.022130e+003,-1.506474e-003
1.024059e+003,-1.041578e-003
1.025988e+003,-5.335940e-004
1.027916e+003,-1.093410e-005
1.029845e+003,4.224988e-004
1.031773e+003,8.326277e-004
1.033702e+003,1.210980e-003
1.035630e+003,1.632131e-003
1.037559e+003,2.098237e-003
1.039487e+003,2.518851e-003
1.041416e+003,2.903879e-003
1.043344e+003,3.249988e-003
1.045273e+003,3.611776e-003
1.047202e+003,3.969987e-003
1.049130e+003,4.254506e-003
1.051059e+003,4.596404e-003
1.052987e+003,4.831778e-003
1.054916e+003,5.004060e-003
1.056844e+003,5.250319e-003
1.058773e+003,5.378148e-003
1.060701e+003,5.336183e-003
1.062630e+003,5.365400e-003
1.064558e+003,5.335445e-003
1.066487e+003,5.281309e-003
1.068416e+003,5.335176e-003
1.070344e+003,5.455346e-003
1.072273e+003,5.530545e-003
1.074201e+003,5.732112e-003
1.076130e+003,6.037678e-003
1.078058e+003,6.360976e-003
1.079987e+003,6.487753e-003
1.081915e+003,6.476923e-003
1.083844e+003,6.334986e-003
1.085773e+003,6.147893e-003
1.087701e+003,5.980094e-003
1.089630e+003,5.803261e-003
1.091558e+003,5.694812e-003
1.093487e+003,5.651742e-003
1.095415e+003,5.585819e-003
1.097344e+003,5.629655e-003
1.099272e+003,5.725967e-003
1.101201e+003,5.731373e-003
1.103129e+003,5.653723e-003
1.105058e+003,5.617504e-003
1.106987e+003,5.644861e-003
1.108915e+003,5.676650e-003
1.110844e+003,5.650769e-003
1.112772e+003,5.685916e-003
1.114701e+003,5.712135e-003
1.116629e+003,5.696189e-003
1.118558e+003,5.668728e-003
1.120486e+003,5.597667e-003
1.122415e+003,5.571220e-003
1.124344e+003,5.540344e-003
1.126272e+003,5.314648e-003
1.128201e+003,5.025143e-003
1.130129e+003,4.714225e-003
1.132058e+003,4.330066e-003
1.133986e+003,3.972027e-003
1.135915e+003,3.680006e-003
1.137843e+003,3.374725e-003
1.139772e+003,3.039260e-003
1.141700e+003,2.722858e-003
1.143629e+003,2.509786e-003
1.145557e+003,2.369406e-003
1.147486e+003,2.263809e-003
1.149415e+003,2.040808e-003
1.151343e+003,1.807440e-003
1.153272e+003,1.730222e-003
1.155200e+003,1.717648e-003
1.157129e+003,1.649127e-003
1.159057e+003,1.563324e-003
1.160986e+003,1.502342e-003
1.162914e+003,1.447950e-003
1.164843e+003,1.403836e-003
1.166771e+003,1.230551e-003
1.168700e+003,9.520228e-004
1.170629e+003,7.150577e-004
1.172557e+003,4.536430e-004
1.174486e+003,1.350753e-004
1.176414e+003,-2.891639e-004
1.178343e+003,-7.759021e-004
1.180271e+003,-1.233682e-003
1.182200e+003,-1.650183e-003
1.184128e+003,-1.969224e-003
1.186057e+003,-2.202129e-003
1.187986e+003,-2.535555e-003
1.189914e+003,-2.830871e-003
1.191843e+003,-2.999218e-003
1.193771e+003,-3.135263e-003
1.195700e+003,-3.245811e-003
1.197628e+003,-3.366195e-003
1.199557e+003,-3.495256e-003
1.201485e+003,-3.647706e-003
1.203414e+003,-3.756186e-003
1.205343e+003,-3.755956e-003
1.207271e+003,-3.798788e-003
1.209200e+003,-3.899776e-003
1.211128e+003,-4.008128e-003
1.213057e+003,-4.100140e-003
1.214985e+003,-4.138376e-003
1.216914e+003,-4.094067e-003
1.218842e+003,-3.926440e-003
1.220771e+003,-3.783745e-003
1.222699e+003,-3.857676e-003
1.224628e+003,-3.902371e-003
1.226557e+003,-3.819612e-003
1.228485e+003,-3.805489e-003
1.230414e+003,-3.790445e-003
1.232342e+003,-3.686278e-003
1.234271e+003,-3.697350e-003
1.236199e+003,-3.727278e-003
1.238128e+003,-3.666204e-003
1.240056e+003,-3.562828e-003
1.241985e+003,-3.442269e-003
1.243913e+003,-3.426654e-003
1.245842e+003,-3.466922e-003
1.247771e+003,-3.509060e-003
1.249699e+003,-3.615472e-003
1.251628e+003,-3.661045e-003
1.253556e+003,-3.639951e-003
1.255485e+003,-3.657004e-003
1.257413e+003,-3.635581e-003
1.259342e+003,-3.619218e-003
1.261270e+003,-3.606830e-003
1.263199e+003,-3.600586e-003
1.265127e+003,-3.623851e-003
1.267056e+003,-3.688742e-003
1.268985e+003,-3.830220e-003
1.270913e+003,-3.961277e-003
1.272842e+003,-4.029302e-003
1.274770e+003,-4.027595e-003
1.276699e+003,-4.033406e-003
1.278627e+003,-4.084450e-003
1.280556e+003,-4.117010e-003
1.282484e+003,-4.044534e-003
1.284413e+003,-3.940822e-003
1.286342e+003,-3.854458e-003
1.288270e+003,-3.846149e-003
1.290199e+003,-3.801941e-003
1.292127e+003,-3.614092e-003
1.294056e+003,-3.459756e-003
1.295984e+003,-3.471393e-003
1.297913e+003,-3.495453e-003
1.299841e+003,-3.481484e-003
1.301770e+003,-3.432407e-003
1.303698e+003,-3.347980e-003
1.305627e+003,-3.261827e-003
1.307556e+003,-3.230321e-003
1.309484e+003,-3.233939e-003
1.311413e+003,-3.247324e-003
1.313341e+003,-3.243082e-003
1.315270e+003,-3.314146e-003
1.317198e+003,-3.417712e-003
1.319127e+003,-3.498378e-003
1.321055e+003,-3.604793e-003
1.322984e+003,-3.767453e-003
1.324912e+003,-3.899152e-003
1.326841e+003,-3.931267e-003
1.328770e+003,-3.927556e-003
1.330698e+003,-3.936553e-003
1.332627e+003,-3.834917e-003
1.334555e+003,-3.676914e-003
1.336484e+003,-3.525264e-003
1.338412e+003,-3.327792e-003
1.340341e+003,-3.152204e-003
1.342269e+003,-3.017546e-003
1.344198e+003,-2.815728e-003
1.346126e+003,-2.586842e-003
1.348055e+003,-2.313837e-003
1.349984e+003,-2.117067e-003
1.351912e+003,-2.082081e-003
1.353841e+003,-2.143741e-003
1.355769e+003,-2.237698e-003
1.357698e+003,-2.226424e-003
1.359626e+003,-2.027503e-003
1.361555e+003,-1.739198e-003
1.363483e+003,-1.346631e-003
1.365412e+003,-9.008411e-004
1.367341e+003,-6.094042e-004
1.369269e+003,-5.560307e-004
1.371198e+003,-6.555589e-004
1.373126e+003,-8.217084e-004
1.375055e+003,-8.638724e-004
1.376983e+003,-8.330848e-004
1.378912e+003,-9.708349e-004
1.380840e+003,-1.313169e-003
1.382769e+003,-1.608822e-003
1.384698e+003,-1.735667e-003
1.386626e+003,-1.804107e-003
1.388555e+003,-1.758701e-003
1.390483e+003,-1.658501e-003
1.392412e+003,-1.582676e-003
1.394340e+003,-1.417181e-003
1.396269e+003,-1.184879e-003
1.398197e+003,-1.051031e-003
1.400126e+003,-8.470073e-004
1.402054e+003,-6.377593e-004
1.403983e+003,-4.743197e-004
1.405911e+003,-3.015807e-004
1.407840e+003,-6.666057e-005
1.409769e+003,1.037219e-004
1.411697e+003,2.020652e-004
1.413626e+003,3.831653e-004
1.415554e+003,5.897886e-004
1.417483e+003,8.089253e-004
1.419411e+003,1.065007e-003
1.421340e+003,1.341547e-003
1.423268e+003,1.688475e-003
1.425197e+003,2.072601e-003
1.427125e+003,2.535381e-003
1.429054e+003,3.193709e-003
1.430983e+003,3.928358e-003
1.432911e+003,4.734089e-003
1.434840e+003,5.486048e-003
1.436768e+003,6.097923e-003
1.438697e+003,6.543015e-003
1.440625e+003,6.950685e-003
1.442554e+003,7.429750e-003
1.444482e+003,7.987804e-003
1.446411e+003,8.668787e-003
1.448340e+003,9.629490e-003
1.450268e+003,1.104334e-002
1.452197e+003,1.322301e-002
1.454125e+003,1.639431e-002
1.456054e+003,2.039355e-002
1.457982e+003,2.728507e-002
1.459911e+003,4.357529e-002
1.461839e+003,6.065677e-002
1.463768e+003,5.542818e-002
1.465697e+003,4.313722e-002
1.467625e+003,4.183988e-002
1.469554e+003,4.970441e-002
1.471482e+003,6.613321e-002
1.473411e+003,6.461123e-002
1.475339e+003,3.420214e-002
1.477268e+003,1.030067e-002
1.479196e+003,1.659571e-003
1.481125e+003,-1.375830e-003
1.483053e+003,-2.898744e-003
1.484982e+003,-3.792153e-003
1.486911e+003,-4.220287e-003
1.488839e+003,-4.415779e-003
1.490768e+003,-4.474059e-003
1.492696e+003,-4.476289e-003
1.494625e+003,-4.445756e-003
1.496553e+003,-4.399215e-003
1.498482e+003,-4.367300e-003
1.500410e+003,-4.324097e-003
1.502339e+003,-4.270521e-003
1.504267e+003,-4.200533e-003
1.506196e+003,-3.990629e-003
1.508125e+003,-3.744327e-003
1.510053e+003,-3.452426e-003
1.511982e+003,-3.002015e-003
1.513910e+003,-2.522181e-003
1.515839e+003,-2.162402e-003
1.517767e+003,-1.893354e-003
1.519696e+003,-1.643251e-003
1.521624e+003,-1.334013e-003
1.523553e+003,-1.115482e-003
1.525481e+003,-8.861929e-004
1.527410e+003,-6.451043e-004
1.529339e+003,-3.713401e-004
1.531267e+003,-1.061154e-004
1.533196e+003,1.062076e-004
1.535124e+003,2.953910e-004
1.537053e+003,7.010191e-004
1.538981e+003,1.448714e-003
1.540910e+003,2.313640e-003
1.542838e+003,2.985509e-003
1.544767e+003,3.409688e-003
1.546696e+003,3.597143e-003
1.548624e+003,3.540718e-003
1.550553e+003,3.394160e-003
1.552481e+003,3.245916e-003
1.554410e+003,3.019974e-003
1.556338e+003,2.734128e-003
1.558267e+003,2.444572e-003
1.560195e+003,2.106128e-003
1.562124e+003,1.794065e-003
1.564052e+003,1.572535e-003
1.565981e+003,1.327322e-003
1.567910e+003,1.141774e-003
1.569838e+003,1.041657e-003
1.571767e+003,9.313023e-004
1.573695e+003,7.916969e-004
1.575624e+003,8.662250e-004
1.577552e+003,1.107026e-003
1.579481e+003,1.166093e-003
1.581409e+003,1.126028e-003
1.583338e+003,1.114833e-003
1.585266e+003,1.051322e-003
1.587195e+003,9.866920e-004
1.589124e+003,9.214072e-004
1.591052e+003,8.785424e-004
1.592981e+003,9.239308e-004
1.594909e+003,9.481376e-004
1.596838e+003,9.363827e-004
1.598766e+003,1.009209e-003
1.600695e+003,1.070654e-003
1.602623e+003,1.199716e-003
1.604552e+003,1.429765e-003
1.606480e+003,1.735412e-003
1.608409e+003,2.004989e-003
1.610338e+003,2.205925e-003
1.612266e+003,2.444338e-003
1.614195e+003,2.782879e-003
1.616123e+003,3.255630e-003
1.618052e+003,3.814259e-003
1.619980e+003,4.345695e-003
1.621909e+003,4.926841e-003
1.623837e+003,5.579644e-003
1.625766e+003,6.137072e-003
1.627695e+003,6.731423e-003
1.629623e+003,7.390653e-003
1.631552e+003,7.943494e-003
1.633480e+003,8.562324e-003
1.635409e+003,9.270068e-003
1.637337e+003,9.940591e-003
1.639266e+003,1.049890e-002
1.641194e+003,1.098434e-002
1.643123e+003,1.145635e-002
1.645052e+003,1.202233e-002
1.646980e+003,1.261282e-002
1.648909e+003,1.302490e-002
1.650837e+003,1.317160e-002
1.652766e+003,1.328654e-002
1.654694e+003,1.327551e-002
1.656623e+003,1.296809e-002
1.658551e+003,1.254174e-002
1.660480e+003,1.205561e-002
1.662408e+003,1.153797e-002
1.664337e+003,1.097968e-002
1.666266e+003,1.034787e-002
1.668194e+003,9.720323e-003
1.670123e+003,9.099504e-003
1.672051e+003,8.452441e-003
1.673980e+003,7.773517e-003
1.675908e+003,7.080564e-003
1.677837e+003,6.370323e-003
1.679765e+003,5.583705e-003
1.681694e+003,4.793283e-003
1.683622e+003,4.040514e-003
1.685551e+003,3.230126e-003
1.687479e+003,2.392560e-003
1.689408e+003,1.564488e-003
1.691337e+003,7.469863e-004
1.693265e+003,-5.228237e-005
1.695194e+003,-7.233760e-004
1.697122e+003,-1.402154e-003
1.699051e+003,-2.147566e-003
1.700979e+003,-2.812337e-003
1.702908e+003,-3.495617e-003
1.704836e+003,-4.056680e-003
1.706765e+003,-4.397214e-003
1.708694e+003,-4.762194e-003
1.710622e+003,-5.034056e-003
1.712551e+003,-5.160494e-003
1.714479e+003,-5.369735e-003
1.716408e+003,-5.717319e-003
1.718336e+003,-5.963518e-003
1.720265e+003,-6.197002e-003
1.722193e+003,-6.422688e-003
1.724122e+003,-6.524896e-003
1.726051e+003,-6.639839e-003
1.727979e+003,-6.658993e-003
1.729908e+003,-6.425888e-003
1.731836e+003,-6.210917e-003
1.733765e+003,-5.989303e-003
1.735693e+003,-5.521790e-003
1.737622e+003,-5.056229e-003
1.739550e+003,-4.880389e-003
1.741479e+003,-5.065989e-003
1.743407e+003,-5.476150e-003
1.745336e+003,-5.798245e-003
1.747265e+003,-5.981820e-003
1.749193e+003,-6.132615e-003
1.751122e+003,-6.401042e-003
1.753050e+003,-6.788938e-003
1.754979e+003,-7.214325e-003
1.756907e+003,-7.550960e-003
1.758836e+003,-7.840283e-003
1.760764e+003,-8.103592e-003
1.762693e+003,-8.339244e-003
1.764621e+003,-8.525256e-003
1.766550e+003,-8.659289e-003
1.768479e+003,-8.755549e-003
1.770407e+003,-8.818249e-003
1.772336e+003,-8.812535e-003
1.774264e+003,-8.907592e-003
1.776193e+003,-9.052378e-003
1.778121e+003,-9.085542e-003
1.780050e+003,-9.074282e-003
1.781978e+003,-9.087813e-003
1.783907e+003,-9.111694e-003
1.785835e+003,-9.161821e-003
1.787764e+003,-9.138039e-003
1.789693e+003,-9.093102e-003
1.791621e+003,-9.103226e-003
1.793550e+003,-9.120325e-003
1.795478e+003,-9.120000e-003
1.797407e+003,-9.083757e-003
1.799335e+003,-9.043292e-003
1.801264e+003,-9.043811e-003
1.803192e+003,-9.101246e-003
1.805121e+003,-9.113770e-003
1.807049e+003,-9.075904e-003
1.808978e+003,-9.092486e-003
1.810907e+003,-9.167855e-003
1.812835e+003,-9.147285e-003
1.814764e+003,-9.091480e-003
1.816692e+003,-9.074833e-003
1.818621e+003,-9.074282e-003
1.820549e+003,-9.076456e-003
1.822478e+003,-9.112505e-003
1.824406e+003,-9.183621e-003
1.826335e+003,-9.169996e-003
1.828264e+003,-9.120811e-003
1.830192e+003,-9.098002e-003
1.832121e+003,-9.188325e-003
1.834049e+003,-9.234453e-003
1.835978e+003,-9.198640e-003
1.837906e+003,-9.200101e-003
1.839835e+003,-9.230982e-003
1.841763e+003,-9.256574e-003
1.843692e+003,-9.251546e-003
1.845620e+003,-9.200457e-003
1.847549e+003,-9.214860e-003
1.849478e+003,-9.249730e-003
1.851406e+003,-9.235069e-003
1.853335e+003,-9.203052e-003
1.855263e+003,-9.233998e-003
1.857192e+003,-9.292024e-003
1.859120e+003,-9.313461e-003
1.861049e+003,-9.294586e-003
1.862977e+003,-9.271980e-003
1.864906e+003,-9.219369e-003
1.866834e+003,-9.198835e-003
1.868763e+003,-9.198413e-003
1.870692e+003,-9.235037e-003
1.872620e+003,-9.275775e-003
1.874549e+003,-9.285505e-003
1.876477e+003,-9.241719e-003
1.878406e+003,-9.207789e-003
1.880334e+003,-9.135833e-003
1.882263e+003,-9.077430e-003
1.884191e+003,-9.040046e-003
1.886120e+003,-8.993606e-003
1.888048e+003,-8.930574e-003
1.889977e+003,-8.882272e-003
1.891906e+003,-8.784254e-003
1.893834e+003,-8.755972e-003
1.895763e+003,-8.805489e-003
1.897691e+003,-8.797599e-003
1.899620e+003,-8.791170e-003
1.901548e+003,-8.845911e-003
1.903477e+003,-8.901619e-003
1.905405e+003,-8.950147e-003
1.907334e+003,-9.008730e-003
1.909263e+003,-9.047316e-003
1.911191e+003,-9.064710e-003
1.913120e+003,-9.134665e-003
1.915048e+003,-9.108384e-003
1.916977e+003,-9.002596e-003
1.918905e+003,-8.996787e-003
1.920834e+003,-9.017590e-003
1.922762e+003,-9.012527e-003
1.924691e+003,-9.013014e-003
1.926620e+003,-9.011554e-003
1.928548e+003,-9.025541e-003
1.930477e+003,-9.002727e-003
1.932405e+003,-8.991464e-003
1.934334e+003,-8.976664e-003
1.936262e+003,-9.023561e-003
1.938191e+003,-9.054812e-003
1.940119e+003,-8.994255e-003
1.942048e+003,-8.905548e-003
1.943976e+003,-8.932035e-003
1.945905e+003,-8.912169e-003
1.947833e+003,-8.852697e-003
1.949762e+003,-8.833801e-003
1.951691e+003,-8.871363e-003
1.953619e+003,-8.849158e-003
1.955548e+003,-8.782631e-003
1.957476e+003,-8.793313e-003
1.959405e+003,-8.847373e-003
1.961333e+003,-8.896393e-003
1.963262e+003,-8.885940e-003
1.965190e+003,-8.876493e-003
1.967119e+003,-8.794418e-003
1.969047e+003,-8.685727e-003
1.970976e+003,-8.689852e-003
1.972905e+003,-8.744184e-003
1.974833e+003,-8.726874e-003
1.976762e+003,-8.728824e-003
1.978690e+003,-8.785748e-003
1.980619e+003,-8.817438e-003
1.982547e+003,-8.770129e-003
1.984476e+003,-8.694269e-003
1.986404e+003,-8.646232e-003
1.988333e+003,-8.603095e-003
1.990262e+003,-8.599035e-003
1.992190e+003,-8.580876e-003
1.994119e+003,-8.594974e-003
1.996047e+003,-8.589549e-003
1.997976e+003,-8.595949e-003
1.999904e+003,-8.578537e-003
2.001833e+003,-8.491368e-003
2.003761e+003,-8.452797e-003
2.005690e+003,-8.453707e-003
2.007619e+003,-8.372104e-003
2.009547e+003,-8.373729e-003
2.011476e+003,-8.353676e-003
2.013404e+003,-8.216265e-003
2.015333e+003,-8.109478e-003
2.017261e+003,-8.113641e-003
2.019190e+003,-8.151233e-003
2.021118e+003,-8.186904e-003
2.023047e+003,-8.160176e-003
2.024975e+003,-8.167915e-003
2.026904e+003,-8.192237e-003
2.028833e+003,-8.180303e-003
2.030761e+003,-8.201699e-003
2.032690e+003,-8.276377e-003
2.034618e+003,-8.295784e-003
2.036547e+003,-8.268510e-003
2.038475e+003,-8.255539e-003
2.040404e+003,-8.253458e-003
2.042332e+003,-8.226278e-003
2.044261e+003,-8.237918e-003
2.046189e+003,-8.254206e-003
2.048118e+003,-8.201146e-003
2.050046e+003,-8.237657e-003
2.051975e+003,-8.338269e-003
2.053904e+003,-8.344932e-003
2.055832e+003,-8.313760e-003
2.057761e+003,-8.316133e-003
2.059689e+003,-8.325787e-003
2.061618e+003,-8.317758e-003
2.063546e+003,-8.316035e-003
2.065475e+003,-8.268737e-003
2.067403e+003,-8.198804e-003
2.069332e+003,-8.156436e-003
2.071260e+003,-8.235024e-003
2.073189e+003,-8.307162e-003
2.075118e+003,-8.246761e-003
2.077046e+003,-8.195845e-003
2.078975e+003,-8.207844e-003
2.080903e+003,-8.202414e-003
2.082832e+003,-8.210380e-003
2.084760e+003,-8.161087e-003
2.086689e+003,-8.119397e-003
2.088617e+003,-8.133803e-003
2.090546e+003,-8.099820e-003
2.092475e+003,-8.084795e-003
2.094403e+003,-8.119333e-003
2.096332e+003,-8.131235e-003
2.098260e+003,-8.069313e-003
2.100189e+003,-7.995477e-003
2.102117e+003,-7.974690e-003
2.104046e+003,-7.986238e-003
2.105974e+003,-8.015906e-003
2.107903e+003,-8.012360e-003
2.109832e+003,-7.968347e-003
2.111760e+003,-7.984157e-003
2.113688e+003,-7.976837e-003
2.115617e+003,-7.879592e-003
2.117546e+003,-7.812655e-003
2.119474e+003,-7.802338e-003
2.121403e+003,-7.809401e-003
2.123331e+003,-7.762991e-003
2.125260e+003,-7.697241e-003
2.127188e+003,-7.711987e-003
2.129117e+003,-7.701538e-003
2.131045e+003,-7.759639e-003
2.132974e+003,-7.783137e-003
2.134903e+003,-7.729987e-003
2.136831e+003,-7.629560e-003
2.138760e+003,-7.492701e-003
2.140688e+003,-7.492766e-003
2.142617e+003,-7.578540e-003
2.144545e+003,-7.552002e-003
2.146474e+003,-7.483908e-003
2.148402e+003,-7.488044e-003
2.150331e+003,-7.461566e-003
2.152260e+003,-7.381665e-003
2.154188e+003,-7.384858e-003
2.156117e+003,-7.498921e-003
2.158045e+003,-7.575252e-003
2.159974e+003,-7.516051e-003
2.161902e+003,-7.462934e-003
2.163831e+003,-7.498987e-003
2.165759e+003,-7.473974e-003
2.167688e+003,-7.445183e-003
2.169616e+003,-7.466288e-003
2.171545e+003,-7.508757e-003
2.173474e+003,-7.467103e-003
2.175402e+003,-7.450329e-003
2.177331e+003,-7.483843e-003
2.179259e+003,-7.485113e-003
2.181188e+003,-7.450264e-003
2.183116e+003,-7.480000e-003
2.185045e+003,-7.520024e-003
2.186973e+003,-7.436877e-003
2.188902e+003,-7.461468e-003
2.190831e+003,-7.599411e-003
2.192759e+003,-7.605141e-003
2.194688e+003,-7.590034e-003
2.196616e+003,-7.576163e-003
2.198545e+003,-7.570856e-003
2.200473e+003,-7.566134e-003
2.202402e+003,-7.540605e-003
2.204330e+003,-7.523639e-003
2.206259e+003,-7.525365e-003
2.208188e+003,-7.531682e-003
2.210116e+003,-7.531292e-003
2.212044e+003,-7.551644e-003
2.213973e+003,-7.550602e-003
2.215902e+003,-7.522336e-003
2.217830e+003,-7.493222e-003
2.219759e+003,-7.425184e-003
2.221687e+003,-7.384988e-003
2.223616e+003,-7.513055e-003
2.225544e+003,-7.659934e-003
2.227473e+003,-7.657591e-003
2.229401e+003,-7.589838e-003
2.231330e+003,-7.564115e-003
2.233259e+003,-7.573037e-003
2.235187e+003,-7.546434e-003
2.237116e+003,-7.497196e-003
2.239044e+003,-7.500485e-003
2.240973e+003,-7.533311e-003
2.242901e+003,-7.471532e-003
2.244830e+003,-7.378310e-003
2.246758e+003,-7.336350e-003
2.248687e+003,-7.386910e-003
2.250615e+003,-7.465702e-003
2.252544e+003,-7.477231e-003
2.254473e+003,-7.395053e-003
2.256401e+003,-7.351825e-003
2.258330e+003,-7.349609e-003
2.260258e+003,-7.378570e-003
2.262187e+003,-7.393131e-003
2.264115e+003,-7.404109e-003
2.266044e+003,-7.349642e-003
2.267972e+003,-7.302141e-003
2.269901e+003,-7.267831e-003
2.271830e+003,-7.164527e-003
2.273758e+003,-7.105075e-003
2.275687e+003,-7.129978e-003
2.277615e+003,-7.133824e-003
2.279544e+003,-7.129293e-003
2.281472e+003,-7.147970e-003
2.283401e+003,-7.171241e-003
2.285329e+003,-7.129424e-003
2.287258e+003,-7.088907e-003
2.289187e+003,-7.081866e-003
2.291115e+003,-7.085126e-003
2.293043e+003,-7.044930e-003
2.294972e+003,-6.985756e-003
2.296901e+003,-6.946758e-003
2.298829e+003,-6.954161e-003
2.300758e+003,-6.932247e-003
2.302686e+003,-6.894321e-003
2.304615e+003,-6.831147e-003
2.306543e+003,-6.840051e-003
2.308472e+003,-6.860664e-003
2.310400e+003,-6.807662e-003
2.312329e+003,-6.774813e-003
2.314258e+003,-6.727934e-003
2.316186e+003,-6.609295e-003
2.318115e+003,-6.527507e-003
2.320043e+003,-6.479557e-003
2.321972e+003,-6.531620e-003
2.323900e+003,-6.564976e-003
2.325829e+003,-6.415996e-003
2.327757e+003,-6.298642e-003
2.329686e+003,-6.332212e-003
2.331615e+003,-6.373975e-003
2.333543e+003,-6.337372e-003
2.335472e+003,-6.265494e-003
2.337400e+003,-6.278917e-003
2.339329e+003,-6.316864e-003
2.341257e+003,-6.313893e-003
2.343186e+003,-6.302692e-003
2.345114e+003,-6.342335e-003
2.347043e+003,-6.379656e-003
2.348971e+003,-6.392260e-003
2.350900e+003,-6.391607e-003
2.352829e+003,-6.441460e-003
2.354757e+003,-6.557927e-003
2.356686e+003,-6.635107e-003
2.358614e+003,-6.703106e-003
2.360543e+003,-6.761014e-003
2.362471e+003,-6.729044e-003
2.364400e+003,-6.657721e-003
2.366328e+003,-6.662484e-003
2.368257e+003,-6.724052e-003
2.370186e+003,-6.689403e-003
2.372114e+003,-6.677559e-003
2.374042e+003,-6.651456e-003
2.375971e+003,-6.642743e-003
2.377900e+003,-6.648029e-003
2.379828e+003,-6.619248e-003
2.381757e+003,-6.610502e-003
2.383685e+003,-6.620978e-003
2.385614e+003,-6.616474e-003
2.387542e+003,-6.582012e-003
2.389471e+003,-6.587528e-003
2.391399e+003,-6.569349e-003
2.393328e+003,-6.564813e-003
2.395257e+003,-6.575485e-003
2.397185e+003,-6.532958e-003
2.399114e+003,-6.418444e-003
2.401042e+003,-6.384358e-003
2.402971e+003,-6.432580e-003
2.404899e+003,-6.412927e-003
2.406828e+003,-6.383967e-003
2.408756e+003,-6.360392e-003
2.410685e+003,-6.293450e-003
2.412614e+003,-6.287898e-003
2.414542e+003,-6.277317e-003
2.416471e+003,-6.247662e-003
2.418399e+003,-6.235969e-003
2.420328e+003,-6.188738e-003
2.422256e+003,-6.115692e-003
2.424185e+003,-6.104845e-003
2.426113e+003,-6.166721e-003
2.428042e+003,-6.227020e-003
2.429970e+003,-6.302888e-003
2.431899e+003,-6.362123e-003
2.433828e+003,-6.341519e-003
2.435756e+003,-6.216502e-003
2.437685e+003,-6.196447e-003
2.439613e+003,-6.244135e-003
2.441542e+003,-6.250928e-003
2.443470e+003,-6.230972e-003
2.445399e+003,-6.205005e-003
2.447327e+003,-6.201281e-003
2.449256e+003,-6.187856e-003
2.451185e+003,-6.161069e-003
2.453113e+003,-6.144474e-003
2.455042e+003,-6.148296e-003
2.456970e+003,-6.142416e-003
2.458899e+003,-6.129577e-003
2.460827e+003,-6.119253e-003
2.462756e+003,-6.077335e-003
2.464684e+003,-6.056881e-003
2.466613e+003,-5.992637e-003
2.468542e+003,-5.920637e-003
2.470470e+003,-5.896645e-003
2.472398e+003,-5.826558e-003
2.474327e+003,-5.817960e-003
2.476256e+003,-5.893867e-003
2.478184e+003,-5.919395e-003
2.480113e+003,-5.905111e-003
2.482041e+003,-5.891579e-003
2.483970e+003,-5.863238e-003
2.485898e+003,-5.877163e-003
2.487827e+003,-5.975120e-003
2.489755e+003,-5.999075e-003
2.491684e+003,-5.861995e-003
2.493613e+003,-5.778432e-003
2.495541e+003,-5.785887e-003
2.497470e+003,-5.783336e-003
2.499398e+003,-5.747827e-003
2.501327e+003,-5.751457e-003
2.503255e+003,-5.786181e-003
2.505184e+003,-5.764470e-003
2.507112e+003,-5.680888e-003
2.509041e+003,-5.673531e-003
2.510969e+003,-5.653908e-003
2.512898e+003,-5.602655e-003
2.514827e+003,-5.620841e-003
2.516755e+003,-5.652534e-003
2.518684e+003,-5.664733e-003
2.520612e+003,-5.620285e-003
2.522541e+003,-5.521692e-003
2.524469e+003,-5.454358e-003
2.526398e+003,-5.444051e-003
2.528326e+003,-5.508867e-003
2.530255e+003,-5.520253e-003
2.532184e+003,-5.419248e-003
2.534112e+003,-5.394181e-003
2.536041e+003,-5.434464e-003
2.537969e+003,-5.407827e-003
2.539898e+003,-5.354811e-003
2.541826e+003,-5.297173e-003
2.543755e+003,-5.231245e-003
2.545683e+003,-5.149951e-003
2.547612e+003,-5.069460e-003
2.549541e+003,-5.060192e-003
2.551469e+003,-5.027244e-003
2.553397e+003,-4.999731e-003
2.555326e+003,-4.988397e-003
2.557255e+003,-5.015649e-003
2.559183e+003,-5.074176e-003
2.561112e+003,-5.068609e-003
2.563040e+003,-4.972281e-003
2.564969e+003,-4.920129e-003
2.566897e+003,-4.942242e-003
2.568826e+003,-4.913872e-003
2.570754e+003,-4.902667e-003
2.572683e+003,-4.836581e-003
2.574612e+003,-4.710410e-003
2.576540e+003,-4.709885e-003
2.578469e+003,-4.720407e-003
2.580397e+003,-4.634099e-003
2.582326e+003,-4.571808e-003
2.584254e+003,-4.514722e-003
2.586183e+003,-4.517247e-003
2.588111e+003,-4.495965e-003
2.590040e+003,-4.394263e-003
2.591969e+003,-4.225799e-003
2.593897e+003,-4.106343e-003
2.595826e+003,-4.104604e-003
2.597754e+003,-4.183731e-003
2.599683e+003,-4.155016e-003
2.601611e+003,-4.074701e-003
2.603540e+003,-4.025232e-003
2.605468e+003,-3.956746e-003
2.607397e+003,-3.812419e-003
2.609325e+003,-3.712692e-003
2.611254e+003,-3.671066e-003
2.613183e+003,-3.580705e-003
2.615111e+003,-3.501303e-003
2.617040e+003,-3.436516e-003
2.618968e+003,-3.349427e-003
2.620897e+003,-3.256828e-003
2.622825e+003,-3.157763e-003
2.624754e+003,-3.039723e-003
2.626682e+003,-2.922211e-003
2.628611e+003,-2.816716e-003
2.630540e+003,-2.746755e-003
2.632468e+003,-2.654391e-003
2.634396e+003,-2.573041e-003
2.636325e+003,-2.588027e-003
2.638254e+003,-2.665093e-003
2.640182e+003,-2.741981e-003
2.642111e+003,-2.709054e-003
2.644039e+003,-2.621918e-003
2.645968e+003,-2.589575e-003
2.647896e+003,-2.592441e-003
2.649825e+003,-2.668485e-003
2.651753e+003,-2.650077e-003
2.653682e+003,-2.589443e-003
2.655611e+003,-2.519513e-003
2.657539e+003,-2.456259e-003
2.659468e+003,-2.461233e-003
2.661396e+003,-2.453557e-003
2.663325e+003,-2.478267e-003
2.665253e+003,-2.550839e-003
2.667182e+003,-2.518887e-003
2.669110e+003,-2.486141e-003
2.671039e+003,-2.525014e-003
2.672968e+003,-2.575807e-003
2.674896e+003,-2.603244e-003
2.676825e+003,-2.686498e-003
2.678753e+003,-2.694072e-003
2.680682e+003,-2.603079e-003
2.682610e+003,-2.652283e-003
2.684539e+003,-2.649056e-003
2.686467e+003,-2.573205e-003
2.688396e+003,-2.547249e-003
2.690324e+003,-2.518491e-003
2.692253e+003,-2.541583e-003
2.694182e+003,-2.476883e-003
2.696110e+003,-2.346069e-003
2.698039e+003,-2.217985e-003
2.699967e+003,-2.169524e-003
2.701896e+003,-2.152215e-003
2.703824e+003,-2.056228e-003
2.705753e+003,-1.960054e-003
2.707681e+003,-1.878409e-003
2.709610e+003,-1.809947e-003
2.711539e+003,-1.793185e-003
2.713467e+003,-1.762166e-003
2.715396e+003,-1.696459e-003
2.717324e+003,-1.590731e-003
2.719253e+003,-1.434915e-003
2.721181e+003,-1.358952e-003
2.723110e+003,-1.315911e-003
2.725038e+003,-1.207051e-003
2.726967e+003,-1.040421e-003
2.728896e+003,-9.043460e-004
2.730824e+003,-8.260077e-004
2.732752e+003,-7.585705e-004
2.734681e+003,-6.908582e-004
2.736610e+003,-5.712526e-004
2.738538e+003,-4.766697e-004
2.740467e+003,-4.441665e-004
2.742395e+003,-3.503505e-004
2.744324e+003,-2.136620e-004
2.746252e+003,-1.320522e-004
2.748181e+003,-1.576563e-004
2.750109e+003,-1.508331e-004
2.752038e+003,-5.632783e-007
2.753967e+003,1.213538e-004
2.755895e+003,2.138666e-004
2.757824e+003,3.887700e-004
2.759752e+003,6.158018e-004
2.761681e+003,7.387882e-004
2.763609e+003,8.070331e-004
2.765538e+003,9.836035e-004
2.767466e+003,1.180180e-003
2.769395e+003,1.373388e-003
2.771323e+003,1.550322e-003
2.773252e+003,1.768547e-003
2.775181e+003,2.038744e-003
2.777109e+003,2.321434e-003
2.779038e+003,2.612842e-003
2.780966e+003,2.910083e-003
2.782895e+003,3.259102e-003
2.784823e+003,3.666741e-003
2.786752e+003,4.073926e-003
2.788680e+003,4.481962e-003
2.790609e+003,4.790837e-003
2.792538e+003,5.166586e-003
2.794466e+003,5.543465e-003
2.796395e+003,6.012245e-003
2.798323e+003,6.590883e-003
2.800252e+003,7.033484e-003
2.802180e+003,7.447413e-003
2.804109e+003,7.944203e-003
2.806037e+003,8.502142e-003
2.807966e+003,9.117911e-003
2.809895e+003,9.840695e-003
2.811823e+003,1.059711e-002
2.813751e+003,1.139263e-002
2.815680e+003,1.230014e-002
2.817609e+003,1.334237e-002
2.819537e+003,1.448429e-002
2.821466e+003,1.580725e-002
2.823394e+003,1.733458e-002
2.825323e+003,1.922953e-002
2.827251e+003,2.151634e-002
2.829180e+003,2.407637e-002
2.831108e+003,2.728934e-002
2.833037e+003,3.153187e-002
2.834966e+003,3.700772e-002
2.836894e+003,4.446524e-002
2.838823e+003,5.503982e-002
2.840751e+003,7.057012e-002
2.842680e+003,9.350442e-002
2.844608e+003,1.260023e-001
2.846537e+003,1.634264e-001
2.848465e+003,1.818874e-001
2.850394e+003,1.610098e-001
2.852323e+003,1.206075e-001
2.854251e+003,8.580273e-002
2.856180e+003,6.169496e-002
2.858108e+003,4.569583e-002
2.860037e+003,3.528401e-002
2.861965e+003,2.874253e-002
2.863894e+003,2.472961e-002
2.865822e+003,2.260172e-002
2.867751e+003,2.181061e-002
2.869679e+003,2.201398e-002
2.871608e+003,2.308394e-002
2.873537e+003,2.496974e-002
2.875465e+003,2.767561e-002
2.877394e+003,3.107901e-002
2.879322e+003,3.503036e-002
2.881251e+003,3.919999e-002
2.883179e+003,4.334593e-002
2.885108e+003,4.753131e-002
2.887036e+003,5.181932e-002
2.888965e+003,5.617346e-002
2.890894e+003,6.055574e-002
2.892822e+003,6.491182e-002
2.894750e+003,6.915002e-002
2.896679e+003,7.341214e-002
2.898608e+003,7.783816e-002
2.900536e+003,8.264033e-002
2.902465e+003,8.840366e-002
2.904393e+003,9.591390e-002
2.906322e+003,1.062528e-001
2.908250e+003,1.209162e-001
2.910179e+003,1.415375e-001
2.912107e+003,1.687535e-001
2.914036e+003,1.974100e-001
2.915965e+003,2.125597e-001
2.917893e+003,2.026734e-001
2.919822e+003,1.751617e-001
2.921750e+003,1.441056e-001
2.923679e+003,1.167354e-001
2.925607e+003,9.480848e-002
2.927536e+003,7.779460e-002
2.929464e+003,6.432884e-002
2.931393e+003,5.322194e-002
2.933322e+003,4.383721e-002
2.935250e+003,3.601712e-002
2.937179e+003,2.950337e-002
2.939107e+003,2.403340e-002
2.941036e+003,1.944013e-002
2.942964e+003,1.548687e-002
2.944893e+003,1.214876e-002
2.946821e+003,9.789587e-003
2.948750e+003,8.308877e-003
2.950678e+003,7.245891e-003
2.952607e+003,6.383168e-003
2.954536e+003,5.750410e-003
2.956464e+003,5.102748e-003
2.958393e+003,4.329799e-003
2.960321e+003,3.578768e-003
2.962250e+003,2.978337e-003
2.964178e+003,2.323633e-003
2.966107e+003,1.492433e-003
2.968035e+003,8.711386e-004
2.969964e+003,3.305052e-004
2.971893e+003,-2.227030e-004
2.973821e+003,-6.921153e-004
2.975750e+003,-1.160558e-003
2.977678e+003,-1.516611e-003
2.979607e+003,-1.813973e-003
2.981535e+003,-2.086929e-003
2.983464e+003,-2.285097e-003
2.985392e+003,-2.512858e-003
2.987321e+003,-2.776683e-003
2.989250e+003,-2.907795e-003
2.991178e+003,-2.972267e-003
2.993106e+003,-3.121479e-003
2.995035e+003,-3.281920e-003
2.996964e+003,-3.443781e-003
2.998892e+003,-3.443222e-003
3.000821e+003,-3.420901e-003
3.002749e+003,-3.456173e-003
3.004678e+003,-3.490128e-003
3.006606e+003,-3.440493e-003
3.008535e+003,-3.358008e-003
3.010463e+003,-3.467974e-003
3.012392e+003,-3.603182e-003
3.014321e+003,-3.606928e-003
3.016249e+003,-3.629240e-003
3.018178e+003,-3.600422e-003
3.020106e+003,-3.524212e-003
3.022035e+003,-3.521089e-003
3.023963e+003,-3.541072e-003
3.025892e+003,-3.486217e-003
3.027820e+003,-3.399269e-003
3.029749e+003,-3.461038e-003
3.031677e+003,-3.503736e-003
3.033606e+003,-3.430040e-003
3.035535e+003,-3.399467e-003
3.037463e+003,-3.448514e-003
3.039392e+003,-3.484278e-003
3.041320e+003,-3.433820e-003
3.043249e+003,-3.359027e-003
3.045177e+003,-3.389439e-003
3.047106e+003,-3.396541e-003
3.049034e+003,-3.359389e-003
3.050963e+003,-3.390261e-003
3.052892e+003,-3.366031e-003
3.054820e+003,-3.301091e-003
3.056749e+003,-3.320196e-003
3.058677e+003,-3.321281e-003
3.060606e+003,-3.295435e-003
3.062534e+003,-3.296816e-003
3.064463e+003,-3.239891e-003
3.066391e+003,-3.258637e-003
3.068320e+003,-3.216508e-003
3.070249e+003,-3.109242e-003
3.072177e+003,-3.034755e-003
3.074105e+003,-3.010636e-003
3.076034e+003,-3.054957e-003
3.077963e+003,-3.022975e-003
3.079891e+003,-2.977631e-003
3.081820e+003,-3.035577e-003
3.083748e+003,-3.045744e-003
3.085677e+003,-2.915628e-003
3.087605e+003,-2.800091e-003
3.089534e+003,-2.892589e-003
3.091462e+003,-3.054891e-003
3.093391e+003,-3.121973e-003
3.095320e+003,-3.066736e-003
3.097248e+003,-2.996717e-003
3.099177e+003,-2.956339e-003
3.101105e+003,-2.924087e-003
3.103034e+003,-2.942912e-003
3.104962e+003,-2.997013e-003
3.106891e+003,-3.041895e-003
3.108819e+003,-3.062755e-003
3.110748e+003,-3.032353e-003
3.112677e+003,-2.967100e-003
3.114605e+003,-2.856317e-003
3.116534e+003,-2.758740e-003
3.118462e+003,-2.820106e-003
3.120391e+003,-2.804206e-003
3.122319e+003,-2.729930e-003
3.124248e+003,-2.691438e-003
3.126176e+003,-2.636343e-003
3.128105e+003,-2.644214e-003
3.130033e+003,-2.633182e-003
3.131962e+003,-2.470491e-003
3.133891e+003,-2.345871e-003
3.135819e+003,-2.322439e-003
3.137748e+003,-2.221183e-003
3.139676e+003,-2.092040e-003
3.141605e+003,-2.074299e-003
3.143533e+003,-2.024997e-003
3.145462e+003,-1.816250e-003
3.147390e+003,-1.740485e-003
3.149319e+003,-1.741475e-003
3.151248e+003,-1.756160e-003
3.153176e+003,-1.725073e-003
3.155104e+003,-1.626020e-003
3.157033e+003,-1.509875e-003
3.158962e+003,-1.344814e-003
3.160890e+003,-1.229552e-003
3.162819e+003,-1.220201e-003
3.164747e+003,-1.191752e-003
3.166676e+003,-1.074962e-003
3.168604e+003,-9.719589e-004
3.170533e+003,-9.466012e-004
3.172461e+003,-8.380454e-004
3.174390e+003,-7.203327e-004
3.176319e+003,-5.490483e-004
3.178247e+003,-3.637919e-004
3.180176e+003,-3.258504e-004
3.182104e+003,-3.005211e-004
3.184033e+003,-2.499244e-004
3.185961e+003,-2.067403e-004
3.187890e+003,6.348946e-005
3.189818e+003,2.706569e-004
3.191747e+003,2.392605e-004
3.193676e+003,3.096154e-004
3.195604e+003,4.079058e-004
3.197532e+003,4.259149e-004
3.199461e+003,5.224403e-004
3.201390e+003,5.812948e-004
3.203318e+003,5.873665e-004
3.205247e+003,6.817375e-004
3.207175e+003,8.875401e-004
3.209104e+003,1.024652e-003
3.211032e+003,9.913413e-004
3.212961e+003,9.519564e-004
3.214889e+003,1.002035e-003
3.216818e+003,1.181575e-003
3.218747e+003,1.305619e-003
3.220675e+003,1.341679e-003
3.222604e+003,1.376878e-003
3.224532e+003,1.387881e-003
3.226461e+003,1.443329e-003
3.228389e+003,1.489707e-003
3.230318e+003,1.545634e-003
3.232246e+003,1.748752e-003
3.234175e+003,1.859515e-003
3.236104e+003,2.038278e-003
3.238032e+003,2.109657e-003
3.239961e+003,1.972569e-003
3.241889e+003,1.933161e-003
3.243818e+003,2.068839e-003
3.245746e+003,2.228505e-003
3.247675e+003,2.445438e-003
3.249603e+003,2.661979e-003
3.251532e+003,2.828600e-003
3.253460e+003,2.814193e-003
3.255389e+003,2.867622e-003
3.257318e+003,3.014035e-003
3.259246e+003,3.011099e-003
3.261175e+003,3.141140e-003
3.263103e+003,3.416468e-003
3.265032e+003,3.488675e-003
3.266960e+003,3.528625e-003
3.268889e+003,3.515731e-003
3.270817e+003,3.594670e-003
3.272746e+003,3.749183e-003
3.274675e+003,3.813691e-003
3.276603e+003,3.952934e-003
3.278531e+003,4.104597e-003
3.280460e+003,4.145741e-003
3.282389e+003,4.163404e-003
3.284317e+003,4.126808e-003
3.286246e+003,4.114632e-003
3.288174e+003,4.164140e-003
3.290103e+003,4.204085e-003
3.292031e+003,4.200906e-003
3.293960e+003,4.189498e-003
3.295888e+003,4.235903e-003
3.297817e+003,4.318387e-003
3.299746e+003,4.307109e-003
3.301674e+003,4.276557e-003
3.303603e+003,4.340474e-003
3.305531e+003,4.453138e-003
3.307460e+003,4.452469e-003
3.309388e+003,4.365843e-003
3.311317e+003,4.197896e-003
3.313245e+003,4.166950e-003
3.315174e+003,4.146410e-003
3.317103e+003,4.178692e-003
3.319031e+003,4.274516e-003
3.320960e+003,4.237542e-003
3.322888e+003,4.243063e-003
3.324817e+003,4.257049e-003
3.326745e+003,4.224862e-003
3.328674e+003,4.187257e-003
3.330602e+003,4.075832e-003
3.332531e+003,4.098744e-003
3.334459e+003,4.097941e-003
3.336388e+003,4.074394e-003
3.338317e+003,4.092221e-003
3.340245e+003,4.090515e-003
3.342174e+003,4.081150e-003
3.344102e+003,4.057738e-003
3.346031e+003,4.067270e-003
3.347959e+003,4.067036e-003
3.349888e+003,4.126272e-003
3.351816e+003,4.018743e-003
3.353745e+003,3.875534e-003
3.355674e+003,3.898101e-003
3.357602e+003,3.935580e-003
3.359531e+003,3.898101e-003
3.361459e+003,3.733943e-003
3.363388e+003,3.584314e-003
3.365316e+003,3.612745e-003
3.367245e+003,3.738087e-003
3.369173e+003,3.762418e-003
3.371102e+003,3.683916e-003
3.373031e+003,3.601686e-003
3.374959e+003,3.656248e-003
3.376887e+003,3.715228e-003
3.378816e+003,3.700458e-003
3.380745e+003,3.734378e-003
3.382673e+003,3.726457e-003
3.384602e+003,3.585282e-003
3.386530e+003,3.567008e-003
3.388459e+003,3.546697e-003
3.390387e+003,3.481394e-003
3.392316e+003,3.487406e-003
3.394244e+003,3.366945e-003
3.396173e+003,3.096888e-003
3.398102e+003,3.009264e-003
3.400030e+003,3.091248e-003
3.401959e+003,3.205091e-003
3.403887e+003,3.234332e-003
3.405816e+003,3.145246e-003
3.407744e+003,3.069558e-003
3.409673e+003,2.836938e-003
3.411601e+003,2.773842e-003
3.413530e+003,2.923393e-003
3.415458e+003,2.973332e-003
3.417387e+003,2.876961e-003
3.419316e+003,2.790515e-003
3.421244e+003,2.699519e-003
3.423173e+003,2.598242e-003
3.425101e+003,2.443105e-003
3.427030e+003,2.375402e-003
3.428958e+003,2.287724e-003
3.430887e+003,2.324732e-003
3.432815e+003,2.365941e-003
3.434744e+003,2.272502e-003
3.436673e+003,2.193636e-003
3.438601e+003,2.085519e-003
3.440530e+003,1.894523e-003
3.442458e+003,1.848001e-003
3.444387e+003,2.041008e-003
3.446315e+003,2.046767e-003
3.448244e+003,1.907202e-003
3.450172e+003,1.765786e-003
3.452101e+003,1.718114e-003
3.454030e+003,1.631200e-003
3.455958e+003,1.480963e-003
3.457886e+003,1.286377e-003
3.459815e+003,1.068627e-003
3.461744e+003,1.074540e-003
3.463672e+003,1.058928e-003
3.465601e+003,9.093874e-004
3.467529e+003,8.809993e-004
3.469458e+003,8.861124e-004
3.471386e+003,6.565500e-004
3.473315e+003,4.572253e-004
3.475243e+003,4.795817e-004
3.477172e+003,4.890354e-004
3.479101e+003,5.016076e-004
3.481029e+003,4.396461e-004
3.482958e+003,3.309695e-004
3.484886e+003,2.034575e-004
3.486815e+003,6.279354e-005
3.488743e+003,1.338822e-004
3.490672e+003,2.750134e-006
3.492600e+003,-1.629889e-004
3.494529e+003,-1.798143e-004
3.496458e+003,-1.871007e-004
3.498386e+003,-3.064811e-004
3.500315e+003,-3.772990e-004
3.502243e+003,-4.010349e-004
3.504172e+003,-5.091373e-004
3.506100e+003,-7.019403e-004
3.508029e+003,-7.123605e-004
3.509957e+003,-7.117982e-004
3.511886e+003,-8.459160e-004
3.513814e+003,-8.554069e-004
3.515743e+003,-1.057278e-003
3.517672e+003,-1.192842e-003
3.519600e+003,-1.076416e-003
3.521529e+003,-1.137591e-003
3.523457e+003,-1.311947e-003
3.525386e+003,-1.420979e-003
3.527314e+003,-1.710584e-003
3.529243e+003,-1.785562e-003
3.531171e+003,-1.656851e-003
3.533100e+003,-1.702168e-003
3.535029e+003,-1.728340e-003
3.536957e+003,-1.989707e-003
3.538885e+003,-2.267265e-003
3.540814e+003,-2.228798e-003
3.542743e+003,-2.174930e-003
3.544671e+003,-2.243005e-003
3.546600e+003,-2.353056e-003
3.548528e+003,-2.473028e-003
3.550457e+003,-2.639999e-003
3.552385e+003,-2.727000e-003
3.554314e+003,-2.696443e-003
3.556242e+003,-2.795877e-003
3.558171e+003,-2.909638e-003
3.560100e+003,-2.893873e-003
3.562028e+003,-3.009616e-003
3.563957e+003,-3.131348e-003
3.565885e+003,-3.148816e-003
3.567814e+003,-3.186840e-003
3.569742e+003,-3.372343e-003
3.571671e+003,-3.393154e-003
3.573599e+003,-3.479840e-003
3.575528e+003,-3.670146e-003
3.577457e+003,-3.737429e-003
3.579385e+003,-3.727114e-003
3.581314e+003,-3.860139e-003
3.583242e+003,-3.988823e-003
3.585171e+003,-4.045093e-003
3.587099e+003,-4.151274e-003
3.589028e+003,-4.217596e-003
3.590956e+003,-4.262221e-003
3.592885e+003,-4.349094e-003
3.594813e+003,-4.324753e-003
3.596742e+003,-4.188161e-003
3.598671e+003,-4.250835e-003
3.600599e+003,-4.410334e-003
3.602528e+003,-4.541938e-003
3.604456e+003,-4.740432e-003
3.606385e+003,-4.794834e-003
3.608313e+003,-4.728502e-003
3.610242e+003,-4.752362e-003
3.612170e+003,-4.933168e-003
3.614099e+003,-5.142485e-003
3.616028e+003,-5.166028e-003
3.617956e+003,-5.180401e-003
3.619885e+003,-5.299366e-003
3.621813e+003,-5.505498e-003
3.623742e+003,-5.650702e-003
3.625670e+003,-5.685075e-003
3.627599e+003,-5.687429e-003
3.629527e+003,-5.644357e-003
3.631456e+003,-5.784873e-003
3.633385e+003,-5.989663e-003
3.635313e+003,-6.152478e-003
3.637241e+003,-6.247172e-003
3.639170e+003,-6.213791e-003
3.641099e+003,-6.264678e-003
3.643027e+003,-6.341649e-003
3.644956e+003,-6.342825e-003
3.646884e+003,-6.389811e-003
3.648813e+003,-6.322122e-003
3.650741e+003,-6.241228e-003
3.652670e+003,-6.306447e-003
3.654598e+003,-6.408127e-003
3.656527e+003,-6.559460e-003
3.658456e+003,-6.602246e-003
3.660384e+003,-6.593728e-003
3.662313e+003,-6.692600e-003
3.664241e+003,-6.757198e-003
3.666170e+003,-6.789460e-003
3.668098e+003,-6.824656e-003
3.670027e+003,-6.834963e-003
3.671955e+003,-6.800094e-003
3.673884e+003,-6.838387e-003
3.675813e+003,-6.959802e-003
3.677741e+003,-7.037335e-003
3.679670e+003,-6.997755e-003
3.681598e+003,-7.019827e-003
3.683527e+003,-7.137540e-003
3.685455e+003,-7.246651e-003
3.687384e+003,-7.240036e-003
3.689312e+003,-7.118798e-003
3.691241e+003,-7.150577e-003
3.693169e+003,-7.214129e-003
3.695098e+003,-7.204809e-003
3.697027e+003,-7.278030e-003
3.698955e+003,-7.332636e-003
3.700884e+003,-7.340064e-003
3.702812e+003,-7.431145e-003
3.704741e+003,-7.506445e-003
3.706669e+003,-7.366647e-003
3.708598e+003,-7.237690e-003
3.710526e+003,-7.308755e-003
3.712455e+003,-7.333874e-003
3.714384e+003,-7.309276e-003
3.716312e+003,-7.322732e-003
3.718240e+003,-7.355180e-003
3.720169e+003,-7.322960e-003
3.722098e+003,-7.269004e-003
3.724026e+003,-7.368700e-003
3.725955e+003,-7.520480e-003
3.727883e+003,-7.583294e-003
3.729812e+003,-7.597002e-003
3.731740e+003,-7.610546e-003
3.733669e+003,-7.593648e-003
3.735597e+003,-7.527449e-003
3.737526e+003,-7.411894e-003
3.739455e+003,-7.400037e-003
3.741383e+003,-7.497684e-003
3.743312e+003,-7.495828e-003
3.745240e+003,-7.198942e-003
3.747169e+003,-7.224492e-003
3.749097e+003,-7.514228e-003
3.751026e+003,-7.560989e-003
3.752954e+003,-7.552198e-003
3.754883e+003,-7.520643e-003
3.756812e+003,-7.460230e-003
3.758740e+003,-7.389255e-003
3.760669e+003,-7.367103e-003
3.762597e+003,-7.422904e-003
3.764526e+003,-7.435509e-003
3.766454e+003,-7.410982e-003
3.768383e+003,-7.447007e-003
3.770311e+003,-7.462119e-003
3.772240e+003,-7.549137e-003
3.774168e+003,-7.640564e-003
3.776097e+003,-7.554282e-003
3.778026e+003,-7.537120e-003
3.779954e+003,-7.539921e-003
3.781883e+003,-7.462022e-003
3.783811e+003,-7.436063e-003
3.785740e+003,-7.420493e-003
3.787668e+003,-7.405477e-003
3.789597e+003,-7.457559e-003
3.791525e+003,-7.512469e-003
3.793454e+003,-7.585215e-003
3.795383e+003,-7.599086e-003
3.797311e+003,-7.523151e-003
3.799240e+003,-7.526147e-003
3.801168e+003,-7.454889e-003
3.803097e+003,-7.367006e-003
3.805025e+003,-7.385900e-003
3.806954e+003,-7.386845e-003
3.808882e+003,-7.405542e-003
3.810811e+003,-7.432057e-003
3.812740e+003,-7.506640e-003
3.814668e+003,-7.661725e-003
3.816596e+003,-7.582057e-003
3.818525e+003,-7.444890e-003
3.820454e+003,-7.313968e-003
3.822382e+003,-7.290639e-003
3.824311e+003,-7.367364e-003
3.826239e+003,-7.455345e-003
3.828168e+003,-7.587234e-003
3.830096e+003,-7.633272e-003
3.832025e+003,-7.665436e-003
3.833953e+003,-7.643918e-003
3.835882e+003,-7.497554e-003
3.837811e+003,-7.419842e-003
3.839739e+003,-7.434532e-003
3.841668e+003,-7.520839e-003
3.843596e+003,-7.589187e-003
3.845525e+003,-7.539726e-003
3.847453e+003,-7.468796e-003
3.849382e+003,-7.436845e-003
3.851310e+003,-7.540019e-003
3.853239e+003,-7.682462e-003
3.855167e+003,-7.556007e-003
3.857096e+003,-7.472346e-003
3.859025e+003,-7.514195e-003
3.860953e+003,-7.580624e-003
3.862882e+003,-7.647271e-003
3.864810e+003,-7.625262e-003
3.866739e+003,-7.524616e-003
3.868667e+003,-7.462217e-003
3.870596e+003,-7.479381e-003
3.872524e+003,-7.685359e-003
3.874453e+003,-7.598760e-003
3.876382e+003,-7.343648e-003
3.878310e+003,-7.415152e-003
3.880239e+003,-7.610905e-003
3.882167e+003,-7.522564e-003
3.884096e+003,-7.375704e-003
3.886024e+003,-7.401568e-003
3.887953e+003,-7.541907e-003
3.889881e+003,-7.613802e-003
3.891810e+003,-7.392447e-003
3.893739e+003,-7.345831e-003
3.895667e+003,-7.496837e-003
3.897595e+003,-7.531878e-003
3.899524e+003,-7.665892e-003
3.901453e+003,-7.782356e-003
3.903381e+003,-7.580624e-003
3.905310e+003,-7.382512e-003
3.907238e+003,-7.394142e-003
3.909167e+003,-7.461273e-003
3.911095e+003,-7.490259e-003
3.913024e+003,-7.588406e-003
3.914952e+003,-7.653489e-003
3.916881e+003,-7.601951e-003
3.918810e+003,-7.535493e-003
3.920738e+003,-7.528491e-003
3.922667e+003,-7.668985e-003
3.924595e+003,-7.712638e-003
3.926524e+003,-7.680997e-003
3.928452e+003,-7.666999e-003
3.930381e+003,-7.663613e-003
3.932309e+003,-7.585736e-003
3.934238e+003,-7.508236e-003
3.936167e+003,-7.595960e-003
3.938095e+003,-7.633890e-003
3.940024e+003,-7.597002e-003
3.941952e+003,-7.613737e-003
3.943881e+003,-7.646880e-003
3.945809e+003,-7.660651e-003
3.947738e+003,-7.583294e-003
3.949666e+003,-7.566753e-003
3.951595e+003,-7.627086e-003
3.953523e+003,-7.724844e-003
3.955452e+003,-7.751046e-003
3.957380e+003,-7.565939e-003
3.959309e+003,-7.520187e-003
3.961238e+003,-7.551123e-003
3.963166e+003,-7.624937e-003
3.965095e+003,-7.747986e-003
3.967023e+003,-7.638057e-003
3.968952e+003,-7.542005e-003
3.970880e+003,-7.632718e-003
3.972809e+003,-7.722468e-003
3.974737e+003,-7.712930e-003
3.976666e+003,-7.668789e-003
3.978594e+003,-7.679467e-003
3.980523e+003,-7.636299e-003
3.982452e+003,-7.433067e-003
3.984380e+003,-7.435249e-003
3.986309e+003,-7.603481e-003
3.988237e+003,-7.677091e-003
3.990166e+003,-7.786847e-003
3.992094e+003,-7.892183e-003
3.994023e+003,-7.815063e-003
3.995951e+003,-7.732233e-003
3.997880e+003,-7.711270e-003
3.999809e+003,-7.591662e-003
4.001737e+003,0.000000e+000
