3.992094e+002,0.000000e+000
4.011380e+002,0.000000e+000
4.030665e+002,0.000000e+000
4.049951e+002,0.000000e+000
4.069236e+002,0.000000e+000
4.088522e+002,0.000000e+000
4.107807e+002,0.000000e+000
4.127093e+002,0.000000e+000
4.146378e+002,0.000000e+000
4.165664e+002,0.000000e+000
4.184949e+002,0.000000e+000
4.204235e+002,0.000000e+000
4.223520e+002,0.000000e+000
4.242806e+002,0.000000e+000
4.262091e+002,0.000000e+000
4.281377e+002,0.000000e+000
4.300662e+002,0.000000e+000
4.319948e+002,0.000000e+000
4.339233e+002,0.000000e+000
4.358519e+002,0.000000e+000
4.377804e+002,0.000000e+000
4.397090e+002,0.000000e+000
4.416375e+002,0.000000e+000
4.435660e+002,0.000000e+000
4.454946e+002,0.000000e+000
4.474232e+002,0.000000e+000
4.493517e+002,0.000000e+000
4.512802e+002,0.000000e+000
4.532088e+002,0.000000e+000
4.551373e+002,0.000000e+000
4.570659e+002,0.000000e+000
4.589944e+002,0.000000e+000
4.609230e+002,0.000000e+000
4.628515e+002,0.000000e+000
4.647801e+002,0.000000e+000
4.667086e+002,0.000000e+000
4.686372e+002,0.000000e+000
4.705657e+002,0.000000e+000
4.724943e+002,0.000000e+000
4.744228e+002,0.000000e+000
4.763514e+002,0.000000e+000
4.782799e+002,0.000000e+000
4.802085e+002,0.000000e+000
4.821370e+002,0.000000e+000
4.840656e+002,0.000000e+000
4.859941e+002,0.000000e+000
4.879226e+002,0.000000e+000
4.898512e+002,0.000000e+000
4.917798e+002,0.000000e+000
4.937083e+002,0.000000e+000
4.956368e+002,0.000000e+000
4.975654e+002,0.000000e+000
4.994939e+002,0.000000e+000
5.014225e+002,0.000000e+000
5.033510e+002,0.000000e+000
5.052796e+002,0.000000e+000
5.072081e+002,0.000000e+000
5.091367e+002,0.000000e+000
5.110652e+002,0.000000e+000
5.129938e+002,0.000000e+000
5.149223e+002,0.000000e+000
5.168509e+002,0.000000e+000
5.187794e+002,0.000000e+000
5.207079e+002,0.000000e+000
5.226365e+002,0.000000e+000
5.245651e+002,0.000000e+000
5.264936e+002,0.000000e+000
5.284221e+002,0.000000e+000
5.303507e+002,0.000000e+000
5.322792e+002,0.000000e+000
5.342078e+002,0.000000e+000
5.361364e+002,0.000000e+000
5.380649e+002,0.000000e+000
5.399934e+002,0.000000e+000
5.419220e+002,0.000000e+000
5.438505e+002,0.000000e+000
5.457791e+002,0.000000e+000
5.477076e+002,0.000000e+000
5.496362e+002,0.000000e+000
5.515647e+002,0.000000e+000
5.534933e+002,0.000000e+000
5.554218e+002,0.000000e+000
5.573503e+002,0.000000e+000
5.592789e+002,0.000000e+000
5.612075e+002,0.000000e+000
5.631360e+002,0.000000e+000
5.650646e+002,0.000000e+000
5.669931e+002,0.000000e+000
5.689216e+002,0.000000e+000
5.708502e+002,0.000000e+000
5.727787e+002,0.000000e+000
5.747073e+002,0.000000e+000
5.766359e+002,0.000000e+000
5.785644e+002,0.000000e+000
5.804929e+002,0.000000e+000
5.824215e+002,0.000000e+000
5.843500e+002,0.000000e+000
5.862786e+002,0.000000e+000
5.882072e+002,0.000000e+000
5.901357e+002,0.000000e+000
5.920642e+002,0.000000e+000
5.939928e+002,0.000000e+000
5.959213e+002,0.000000e+000
5.978499e+002,0.000000e+000
5.997784e+002,0.000000e+000
6.017070e+002,0.000000e+000
6.036355e+002,0.000000e+000
6.055641e+002,0.000000e+000
6.074926e+002,0.000000e+000
6.094211e+002,0.000000e+000
6.113497e+002,0.000000e+000
6.132783e+002,0.000000e+000
6.152068e+002,0.000000e+000
6.171354e+002,0.000000e+000
6.190639e+002,0.000000e+000
6.209924e+002,0.000000e+000
6.229210e+002,0.000000e+000
6.248495e+002,0.000000e+000
6.267781e+002,0.000000e+000
6.287067e+002,0.000000e+000
6.306352e+002,0.000000e+000
6.325637e+002,0.000000e+000
6.344923e+002,0.000000e+000
6.364208e+002,0.000000e+000
6.383494e+002,0.000000e+000
6.402780e+002,0.000000e+000
6.422065e+002,0.000000e+000
6.441350e+002,0.000000e+000
6.460636e+002,0.000000e+000
6.479921e+002,0.000000e+000
6.499207e+002,0.000000e+000
6.518492e+002,0.000000e+000
6.537778e+002,0.000000e+000
6.557063e+002,0.000000e+000
6.576349e+002,0.000000e+000
6.595634e+002,0.000000e+000
6.614919e+002,0.000000e+000
6.634205e+002,0.000000e+000
6.653491e+002,0.000000e+000
6.672776e+002,0.000000e+000
6.692062e+002,0.000000e+000
6.711347e+002,0.000000e+000
6.730632e+002,0.000000e+000
6.749918e+002,-1.554952e-002
6.769203e+002,-1.614587e-002
6.788489e+002,-1.602943e-002
6.807775e+002,-1.562570e-002
6.827060e+002,-1.581641e-002
6.846345e+002,-1.561358e-002
6.865631e+002,-1.551222e-002
6.884916e+002,-1.539426e-002
6.904202e+002,-1.501100e-002
6.923488e+002,-1.459751e-002
6.942773e+002,-1.460863e-002
6.962058e+002,-1.393579e-002
6.981344e+002,-1.322408e-002
7.000629e+002,-1.252105e-002
7.019915e+002,-1.154391e-002
7.039200e+002,-9.824307e-003
7.058486e+002,-7.994208e-003
7.077771e+002,-5.954138e-003
7.097057e+002,-2.276132e-003
7.116342e+002,4.520998e-003
7.135627e+002,1.611400e-002
7.154913e+002,3.501520e-002
7.174199e+002,5.944299e-002
7.193484e+002,6.965353e-002
7.212770e+002,4.541837e-002
7.232055e+002,1.946805e-002
7.251340e+002,1.095437e-002
7.270626e+002,1.575632e-002
7.289911e+002,3.426427e-002
7.309197e+002,4.431110e-002
7.328483e+002,2.209775e-002
7.347768e+002,-2.820469e-003
7.367053e+002,-1.268568e-002
7.386339e+002,-1.603531e-002
7.405624e+002,-1.784214e-002
7.424910e+002,-1.880329e-002
7.444196e+002,-1.929375e-002
7.463481e+002,-1.952113e-002
7.482766e+002,-1.940555e-002
7.502052e+002,-1.941645e-002
7.521337e+002,-1.991584e-002
7.540623e+002,-2.007830e-002
7.559908e+002,-2.022210e-002
7.579194e+002,-2.041163e-002
7.598479e+002,-2.031912e-002
7.617765e+002,-2.028563e-002
7.637050e+002,-2.046372e-002
7.656335e+002,-2.056726e-002
7.675621e+002,-2.061656e-002
7.694907e+002,-2.074050e-002
7.714192e+002,-2.086819e-002
7.733478e+002,-2.070360e-002
7.752763e+002,-2.065867e-002
7.772048e+002,-2.082840e-002
7.791334e+002,-2.107082e-002
7.810620e+002,-2.131894e-002
7.829905e+002,-2.133358e-002
7.849191e+002,-2.129677e-002
7.868476e+002,-2.128506e-002
7.887761e+002,-2.107123e-002
7.907047e+002,-2.121486e-002
7.926332e+002,-2.151512e-002
7.945618e+002,-2.177591e-002
7.964904e+002,-2.181530e-002
7.984189e+002,-2.191811e-002
8.003474e+002,-2.180364e-002
8.022760e+002,-2.158950e-002
8.042045e+002,-2.169920e-002
8.061331e+002,-2.181861e-002
8.080616e+002,-2.185274e-002
8.099902e+002,-2.182964e-002
8.119187e+002,-2.190803e-002
8.138473e+002,-2.213253e-002
8.157758e+002,-2.238685e-002
8.177043e+002,-2.257531e-002
8.196329e+002,-2.244934e-002
8.215615e+002,-2.244733e-002
8.234900e+002,-2.277834e-002
8.254186e+002,-2.296920e-002
8.273471e+002,-2.297769e-002
8.292756e+002,-2.310275e-002
8.312042e+002,-2.349990e-002
8.331328e+002,-2.380393e-002
8.350613e+002,-2.380891e-002
8.369899e+002,-2.373381e-002
8.389184e+002,-2.362092e-002
8.408469e+002,-2.371280e-002
8.427755e+002,-2.374781e-002
8.447040e+002,-2.358939e-002
8.466326e+002,-2.350794e-002
8.485612e+002,-2.357457e-002
8.504896e+002,-2.358590e-002
8.524182e+002,-2.361841e-002
8.543468e+002,-2.360056e-002
8.562753e+002,-2.355835e-002
8.582039e+002,-2.351789e-002
8.601324e+002,-2.358499e-002
8.620609e+002,-2.352467e-002
8.639895e+002,-2.336564e-002
8.659181e+002,-2.325657e-002
8.678466e+002,-2.308123e-002
8.697751e+002,-2.290138e-002
8.717037e+002,-2.287171e-002
8.736322e+002,-2.298605e-002
8.755608e+002,-2.301952e-002
8.774894e+002,-2.298548e-002
8.794178e+002,-2.312971e-002
8.813464e+002,-2.334296e-002
8.832750e+002,-2.363272e-002
8.852035e+002,-2.363009e-002
8.871321e+002,-2.340730e-002
8.890607e+002,-2.357040e-002
8.909891e+002,-2.388682e-002
8.929177e+002,-2.381029e-002
8.948463e+002,-2.362667e-002
8.967748e+002,-2.363617e-002
8.987034e+002,-2.376606e-002
9.006320e+002,-2.371813e-002
9.025604e+002,-2.363724e-002
9.044890e+002,-2.351397e-002
9.064176e+002,-2.352210e-002
9.083461e+002,-2.355800e-002
9.102747e+002,-2.360297e-002
9.122032e+002,-2.366730e-002
9.141317e+002,-2.372707e-002
9.160603e+002,-2.374523e-002
9.179889e+002,-2.380430e-002
9.199174e+002,-2.382165e-002
9.218459e+002,-2.380725e-002
9.237745e+002,-2.372371e-002
9.257030e+002,-2.369215e-002
9.276316e+002,-2.373604e-002
9.295602e+002,-2.378695e-002
9.314886e+002,-2.378702e-002
9.334172e+002,-2.379216e-002
9.353458e+002,-2.373381e-002
9.372743e+002,-2.370250e-002
9.392029e+002,-2.375646e-002
9.411315e+002,-2.384683e-002
9.430599e+002,-2.385041e-002
9.449885e+002,-2.385568e-002
9.469171e+002,-2.376493e-002
9.488456e+002,-2.370119e-002
9.507742e+002,-2.359808e-002
9.527028e+002,-2.357454e-002
9.546312e+002,-2.357746e-002
9.565598e+002,-2.349912e-002
9.584884e+002,-2.343646e-002
9.604169e+002,-2.338611e-002
9.623455e+002,-2.342676e-002
9.642740e+002,-2.359346e-002
9.662025e+002,-2.363322e-002
9.681311e+002,-2.364518e-002
9.700597e+002,-2.362121e-002
9.719882e+002,-2.359915e-002
9.739167e+002,-2.358521e-002
9.758453e+002,-2.359695e-002
9.777738e+002,-2.366711e-002
9.797024e+002,-2.367681e-002
9.816310e+002,-2.357981e-002
9.835594e+002,-2.355458e-002
9.854880e+002,-2.350760e-002
9.874166e+002,-2.349086e-002
9.893451e+002,-2.349887e-002
9.912737e+002,-2.344544e-002
9.932023e+002,-2.332654e-002
9.951307e+002,-2.321734e-002
9.970593e+002,-2.318408e-002
9.989879e+002,-2.318794e-002
1.000916e+003,-2.316071e-002
1.002845e+003,-2.306857e-002
1.004774e+003,-2.289582e-002
1.006702e+003,-2.277730e-002
1.008631e+003,-2.273413e-002
1.010559e+003,-2.265790e-002
1.012488e+003,-2.249181e-002
1.014416e+003,-2.234949e-002
1.016345e+003,-2.227140e-002
1.018273e+003,-2.218876e-002
1.020202e+003,-2.202914e-002
1.022130e+003,-2.190072e-002
1.024059e+003,-2.168735e-002
1.025988e+003,-2.159366e-002
1.027916e+003,-2.157878e-002
1.029845e+003,-2.142789e-002
1.031773e+003,-2.132450e-002
1.033702e+003,-2.125042e-002
1.035630e+003,-2.102950e-002
1.037559e+003,-2.087148e-002
1.039487e+003,-2.076558e-002
1.041416e+003,-2.067763e-002
1.043344e+003,-2.051929e-002
1.045273e+003,-2.031558e-002
1.047202e+003,-2.007941e-002
1.049130e+003,-1.972695e-002
1.051059e+003,-1.946962e-002
1.052987e+003,-1.938144e-002
1.054916e+003,-1.929131e-002
1.056844e+003,-1.924069e-002
1.058773e+003,-1.914029e-002
1.060701e+003,-1.907650e-002
1.062630e+003,-1.902110e-002
1.064558e+003,-1.902395e-002
1.066487e+003,-1.900892e-002
1.068416e+003,-1.901526e-002
1.070344e+003,-1.899487e-002
1.072273e+003,-1.883737e-002
1.074201e+003,-1.862449e-002
1.076130e+003,-1.841655e-002
1.078058e+003,-1.810521e-002
1.079987e+003,-1.781056e-002
1.081915e+003,-1.768584e-002
1.083844e+003,-1.771374e-002
1.085773e+003,-1.771692e-002
1.087701e+003,-1.774924e-002
1.089630e+003,-1.779501e-002
1.091558e+003,-1.783397e-002
1.093487e+003,-1.790167e-002
1.095415e+003,-1.794084e-002
1.097344e+003,-1.787632e-002
1.099272e+003,-1.782080e-002
1.101201e+003,-1.782328e-002
1.103129e+003,-1.794662e-002
1.105058e+003,-1.794176e-002
1.106987e+003,-1.787887e-002
1.108915e+003,-1.776950e-002
1.110844e+003,-1.761814e-002
1.112772e+003,-1.746323e-002
1.114701e+003,-1.740864e-002
1.116629e+003,-1.730311e-002
1.118558e+003,-1.707737e-002
1.120486e+003,-1.692794e-002
1.122415e+003,-1.691264e-002
1.124344e+003,-1.698603e-002
1.126272e+003,-1.703789e-002
1.128201e+003,-1.708954e-002
1.130129e+003,-1.711887e-002
1.132058e+003,-1.720248e-002
1.133986e+003,-1.732886e-002
1.135915e+003,-1.741845e-002
1.137843e+003,-1.745381e-002
1.139772e+003,-1.748386e-002
1.141700e+003,-1.759084e-002
1.143629e+003,-1.758789e-002
1.145557e+003,-1.762368e-002
1.147486e+003,-1.766399e-002
1.149415e+003,-1.768785e-002
1.151343e+003,-1.771651e-002
1.153272e+003,-1.772284e-002
1.155200e+003,-1.771155e-002
1.157129e+003,-1.770633e-002
1.159057e+003,-1.771320e-002
1.160986e+003,-1.771056e-002
1.162914e+003,-1.766389e-002
1.164843e+003,-1.766447e-002
1.166771e+003,-1.769074e-002
1.168700e+003,-1.768063e-002
1.170629e+003,-1.760647e-002
1.172557e+003,-1.759345e-002
1.174486e+003,-1.757455e-002
1.176414e+003,-1.764585e-002
1.178343e+003,-1.786074e-002
1.180271e+003,-1.814290e-002
1.182200e+003,-1.842881e-002
1.184128e+003,-1.862271e-002
1.186057e+003,-1.873567e-002
1.187986e+003,-1.883851e-002
1.189914e+003,-1.893844e-002
1.191843e+003,-1.899274e-002
1.193771e+003,-1.904735e-002
1.195700e+003,-1.916290e-002
1.197628e+003,-1.931755e-002
1.199557e+003,-1.943775e-002
1.201485e+003,-1.946582e-002
1.203414e+003,-1.943600e-002
1.205343e+003,-1.941170e-002
1.207271e+003,-1.943116e-002
1.209200e+003,-1.937799e-002
1.211128e+003,-1.924091e-002
1.213057e+003,-1.914926e-002
1.214985e+003,-1.906806e-002
1.216914e+003,-1.895998e-002
1.218842e+003,-1.892474e-002
1.220771e+003,-1.896588e-002
1.222699e+003,-1.899017e-002
1.224628e+003,-1.901123e-002
1.226557e+003,-1.917472e-002
1.228485e+003,-1.940742e-002
1.230414e+003,-1.963215e-002
1.232342e+003,-1.978834e-002
1.234271e+003,-1.989632e-002
1.236199e+003,-1.993885e-002
1.238128e+003,-2.000306e-002
1.240056e+003,-2.003467e-002
1.241985e+003,-2.005457e-002
1.243913e+003,-2.004634e-002
1.245842e+003,-2.000711e-002
1.247771e+003,-1.997262e-002
1.249699e+003,-2.004112e-002
1.251628e+003,-2.007096e-002
1.253556e+003,-1.995775e-002
1.255485e+003,-1.981905e-002
1.257413e+003,-1.969583e-002
1.259342e+003,-1.951274e-002
1.261270e+003,-1.931835e-002
1.263199e+003,-1.923099e-002
1.265127e+003,-1.931321e-002
1.267056e+003,-1.939674e-002
1.268985e+003,-1.947114e-002
1.270913e+003,-1.958312e-002
1.272842e+003,-1.968598e-002
1.274770e+003,-1.970419e-002
1.276699e+003,-1.967094e-002
1.278627e+003,-1.966274e-002
1.280556e+003,-1.970295e-002
1.282484e+003,-1.961824e-002
1.284413e+003,-1.952709e-002
1.286342e+003,-1.948397e-002
1.288270e+003,-1.941718e-002
1.290199e+003,-1.924782e-002
1.292127e+003,-1.911290e-002
1.294056e+003,-1.901564e-002
1.295984e+003,-1.893301e-002
1.297913e+003,-1.885739e-002
1.299841e+003,-1.881506e-002
1.301770e+003,-1.875465e-002
1.303698e+003,-1.881164e-002
1.305627e+003,-1.887236e-002
1.307556e+003,-1.888657e-002
1.309484e+003,-1.889952e-002
1.311413e+003,-1.895148e-002
1.313341e+003,-1.905978e-002
1.315270e+003,-1.911207e-002
1.317198e+003,-1.914188e-002
1.319127e+003,-1.924190e-002
1.321055e+003,-1.939392e-002
1.322984e+003,-1.952579e-002
1.324912e+003,-1.954045e-002
1.326841e+003,-1.951910e-002
1.328770e+003,-1.953675e-002
1.330698e+003,-1.957963e-002
1.332627e+003,-1.949252e-002
1.334555e+003,-1.932297e-002
1.336484e+003,-1.910196e-002
1.338412e+003,-1.884305e-002
1.340341e+003,-1.856541e-002
1.342269e+003,-1.835681e-002
1.344198e+003,-1.815161e-002
1.346126e+003,-1.795241e-002
1.348055e+003,-1.774953e-002
1.349984e+003,-1.754868e-002
1.351912e+003,-1.745413e-002
1.353841e+003,-1.752777e-002
1.355769e+003,-1.767745e-002
1.357698e+003,-1.771091e-002
1.359626e+003,-1.758381e-002
1.361555e+003,-1.728938e-002
1.363483e+003,-1.695451e-002
1.365412e+003,-1.663364e-002
1.367341e+003,-1.633470e-002
1.369269e+003,-1.631737e-002
1.371198e+003,-1.658092e-002
1.373126e+003,-1.687854e-002
1.375055e+003,-1.693944e-002
1.376983e+003,-1.690646e-002
1.378912e+003,-1.706609e-002
1.380840e+003,-1.755199e-002
1.382769e+003,-1.807807e-002
1.384698e+003,-1.833016e-002
1.386626e+003,-1.833508e-002
1.388555e+003,-1.830818e-002
1.390483e+003,-1.828531e-002
1.392412e+003,-1.828191e-002
1.394340e+003,-1.811929e-002
1.396269e+003,-1.794910e-002
1.398197e+003,-1.783320e-002
1.400126e+003,-1.766011e-002
1.402054e+003,-1.755502e-002
1.403983e+003,-1.743796e-002
1.405911e+003,-1.715617e-002
1.407840e+003,-1.686614e-002
1.409769e+003,-1.659498e-002
1.411697e+003,-1.638461e-002
1.413626e+003,-1.617850e-002
1.415554e+003,-1.571861e-002
1.417483e+003,-1.512586e-002
1.419411e+003,-1.466889e-002
1.421340e+003,-1.443052e-002
1.423268e+003,-1.425712e-002
1.425197e+003,-1.403631e-002
1.427125e+003,-1.374331e-002
1.429054e+003,-1.328013e-002
1.430983e+003,-1.264954e-002
1.432911e+003,-1.194017e-002
1.434840e+003,-1.136868e-002
1.436768e+003,-1.083699e-002
1.438697e+003,-1.036503e-002
1.440625e+003,-9.921896e-003
1.442554e+003,-9.375595e-003
1.444482e+003,-8.839873e-003
1.446411e+003,-8.166581e-003
1.448340e+003,-7.197476e-003
1.450268e+003,-5.731936e-003
1.452197e+003,-3.339629e-003
1.454125e+003,1.465766e-004
1.456054e+003,4.570352e-003
1.457982e+003,1.270428e-002
1.459911e+003,3.296461e-002
1.461839e+003,5.379300e-002
1.463768e+003,4.481023e-002
1.465697e+003,2.738892e-002
1.467625e+003,2.394624e-002
1.469554e+003,3.086775e-002
1.471482e+003,5.010795e-002
1.473411e+003,5.330757e-002
1.475339e+003,2.161150e-002
1.477268e+003,-4.454611e-003
1.479196e+003,-1.334504e-002
1.481125e+003,-1.644283e-002
1.483053e+003,-1.797352e-002
1.484982e+003,-1.886798e-002
1.486911e+003,-1.941024e-002
1.488839e+003,-1.977464e-002
1.490768e+003,-1.996420e-002
1.492696e+003,-2.014242e-002
1.494625e+003,-2.031558e-002
1.496553e+003,-2.048003e-002
1.498482e+003,-2.061093e-002
1.500410e+003,-2.074410e-002
1.502339e+003,-2.086251e-002
1.504267e+003,-2.095367e-002
1.506196e+003,-2.093157e-002
1.508125e+003,-2.086841e-002
1.510053e+003,-2.086570e-002
1.511982e+003,-2.082654e-002
1.513910e+003,-2.069377e-002
1.515839e+003,-2.059093e-002
1.517767e+003,-2.053272e-002
1.519696e+003,-2.050645e-002
1.521624e+003,-2.035870e-002
1.523553e+003,-2.025005e-002
1.525481e+003,-2.017535e-002
1.527410e+003,-1.999249e-002
1.529339e+003,-1.982177e-002
1.531267e+003,-1.974174e-002
1.533196e+003,-1.950060e-002
1.535124e+003,-1.921910e-002
1.537053e+003,-1.900578e-002
1.538981e+003,-1.859433e-002
1.540910e+003,-1.810511e-002
1.542838e+003,-1.780633e-002
1.544767e+003,-1.767687e-002
1.546696e+003,-1.768432e-002
1.548624e+003,-1.773267e-002
1.550553e+003,-1.776394e-002
1.552481e+003,-1.785607e-002
1.554410e+003,-1.790367e-002
1.556338e+003,-1.798706e-002
1.558267e+003,-1.808137e-002
1.560195e+003,-1.793317e-002
1.562124e+003,-1.779654e-002
1.564052e+003,-1.770465e-002
1.565981e+003,-1.754954e-002
1.567910e+003,-1.737942e-002
1.569838e+003,-1.719070e-002
1.571767e+003,-1.693867e-002
1.573695e+003,-1.678505e-002
1.575624e+003,-1.653604e-002
1.577552e+003,-1.623589e-002
1.579481e+003,-1.619864e-002
1.581409e+003,-1.625929e-002
1.583338e+003,-1.627534e-002
1.585266e+003,-1.630378e-002
1.587195e+003,-1.630796e-002
1.589124e+003,-1.632541e-002
1.591052e+003,-1.640563e-002
1.592981e+003,-1.648679e-002
1.594909e+003,-1.641913e-002
1.596838e+003,-1.635567e-002
1.598766e+003,-1.632107e-002
1.600695e+003,-1.632079e-002
1.602623e+003,-1.628010e-002
1.604552e+003,-1.616691e-002
1.606480e+003,-1.603811e-002
1.608409e+003,-1.595543e-002
1.610338e+003,-1.589184e-002
1.612266e+003,-1.574177e-002
1.614195e+003,-1.560077e-002
1.616123e+003,-1.542688e-002
1.618052e+003,-1.508647e-002
1.619980e+003,-1.480991e-002
1.621909e+003,-1.454275e-002
1.623837e+003,-1.420043e-002
1.625766e+003,-1.386002e-002
1.627695e+003,-1.357809e-002
1.629623e+003,-1.333273e-002
1.631552e+003,-1.320232e-002
1.633480e+003,-1.313507e-002
1.635409e+003,-1.302119e-002
1.637337e+003,-1.266164e-002
1.639266e+003,-1.218264e-002
1.641194e+003,-1.152510e-002
1.643123e+003,-1.061925e-002
1.645052e+003,-9.543175e-003
1.646980e+003,-9.001883e-003
1.648909e+003,-9.420568e-003
1.650837e+003,-1.027207e-002
1.652766e+003,-1.080774e-002
1.654694e+003,-1.110779e-002
1.656623e+003,-1.139459e-002
1.658551e+003,-1.158659e-002
1.660480e+003,-1.169556e-002
1.662408e+003,-1.177893e-002
1.664337e+003,-1.186080e-002
1.666266e+003,-1.202674e-002
1.668194e+003,-1.218309e-002
1.670123e+003,-1.229049e-002
1.672051e+003,-1.246600e-002
1.673980e+003,-1.271947e-002
1.675908e+003,-1.288779e-002
1.677837e+003,-1.309530e-002
1.679765e+003,-1.340705e-002
1.681694e+003,-1.380960e-002
1.683622e+003,-1.416868e-002
1.685551e+003,-1.442049e-002
1.687479e+003,-1.475063e-002
1.689408e+003,-1.512016e-002
1.691337e+003,-1.554796e-002
1.693265e+003,-1.605172e-002
1.695194e+003,-1.640075e-002
1.697122e+003,-1.665229e-002
1.699051e+003,-1.701142e-002
1.700979e+003,-1.733762e-002
1.702908e+003,-1.775023e-002
1.704836e+003,-1.814312e-002
1.706765e+003,-1.841350e-002
1.708694e+003,-1.860817e-002
1.710622e+003,-1.873075e-002
1.712551e+003,-1.893064e-002
1.714479e+003,-1.918173e-002
1.716408e+003,-1.932624e-002
1.718336e+003,-1.931610e-002
1.720265e+003,-1.934937e-002
1.722193e+003,-1.936788e-002
1.724122e+003,-1.939269e-002
1.726051e+003,-1.939896e-002
1.727979e+003,-1.931781e-002
1.729908e+003,-1.922782e-002
1.731836e+003,-1.915431e-002
1.733765e+003,-1.893019e-002
1.735693e+003,-1.862017e-002
1.737622e+003,-1.833661e-002
1.739550e+003,-1.808989e-002
1.741479e+003,-1.789712e-002
1.743407e+003,-1.775977e-002
1.745336e+003,-1.770754e-002
1.747265e+003,-1.779285e-002
1.749193e+003,-1.795050e-002
1.751122e+003,-1.819161e-002
1.753050e+003,-1.852572e-002
1.754979e+003,-1.895230e-002
1.756907e+003,-1.932266e-002
1.758836e+003,-1.966853e-002
1.760764e+003,-1.987951e-002
1.762693e+003,-1.997050e-002
1.764621e+003,-2.012544e-002
1.766550e+003,-2.026084e-002
1.768479e+003,-2.026460e-002
1.770407e+003,-2.029632e-002
1.772336e+003,-2.028221e-002
1.774264e+003,-2.028800e-002
1.776193e+003,-2.036307e-002
1.778121e+003,-2.042380e-002
1.780050e+003,-2.043521e-002
1.781978e+003,-2.040167e-002
1.783907e+003,-2.039841e-002
1.785835e+003,-2.042446e-002
1.787764e+003,-2.040021e-002
1.789693e+003,-2.042278e-002
1.791621e+003,-2.042278e-002
1.793550e+003,-2.033900e-002
1.795478e+003,-2.026631e-002
1.797407e+003,-2.024873e-002
1.799335e+003,-2.030495e-002
1.801264e+003,-2.033306e-002
1.803192e+003,-2.030609e-002
1.805121e+003,-2.032895e-002
1.807049e+003,-2.033619e-002
1.808978e+003,-2.029970e-002
1.810907e+003,-2.027156e-002
1.812835e+003,-2.028203e-002
1.814764e+003,-2.031532e-002
1.816692e+003,-2.035668e-002
1.818621e+003,-2.035538e-002
1.820549e+003,-2.034833e-002
1.822478e+003,-2.036512e-002
1.824406e+003,-2.035870e-002
1.826335e+003,-2.035545e-002
1.828264e+003,-2.042712e-002
1.830192e+003,-2.045180e-002
1.832121e+003,-2.045566e-002
1.834049e+003,-2.047251e-002
1.835978e+003,-2.049527e-002
1.837906e+003,-2.052087e-002
1.839835e+003,-2.052911e-002
1.841763e+003,-2.046884e-002
1.843692e+003,-2.041972e-002
1.845620e+003,-2.044302e-002
1.847549e+003,-2.051878e-002
1.849478e+003,-2.054097e-002
1.851406e+003,-2.052832e-002
1.853335e+003,-2.052156e-002
1.855263e+003,-2.052719e-002
1.857192e+003,-2.052905e-002
1.859120e+003,-2.054978e-002
1.861049e+003,-2.061497e-002
1.862977e+003,-2.066420e-002
1.864906e+003,-2.064973e-002
1.866834e+003,-2.062420e-002
1.868763e+003,-2.062885e-002
1.870692e+003,-2.066073e-002
1.872620e+003,-2.069150e-002
1.874549e+003,-2.070196e-002
1.876477e+003,-2.061096e-002
1.878406e+003,-2.047311e-002
1.880334e+003,-2.046862e-002
1.882263e+003,-2.056195e-002
1.884191e+003,-2.053063e-002
1.886120e+003,-2.047592e-002
1.888048e+003,-2.045917e-002
1.889977e+003,-2.035583e-002
1.891906e+003,-2.023374e-002
1.893834e+003,-2.019461e-002
1.895763e+003,-2.020015e-002
1.897691e+003,-2.020050e-002
1.899620e+003,-2.019477e-002
1.901548e+003,-2.024142e-002
1.903477e+003,-2.030037e-002
1.905405e+003,-2.039522e-002
1.907334e+003,-2.046476e-002
1.909263e+003,-2.040859e-002
1.911191e+003,-2.041561e-002
1.913120e+003,-2.050598e-002
1.915048e+003,-2.053297e-002
1.916977e+003,-2.058022e-002
1.918905e+003,-2.054798e-002
1.920834e+003,-2.047867e-002
1.922762e+003,-2.049075e-002
1.924691e+003,-2.059684e-002
1.926620e+003,-2.057687e-002
1.928548e+003,-2.049542e-002
1.930477e+003,-2.048136e-002
1.932405e+003,-2.048654e-002
1.934334e+003,-2.049255e-002
1.936262e+003,-2.041175e-002
1.938191e+003,-2.033935e-002
1.940119e+003,-2.040075e-002
1.942048e+003,-2.038548e-002
1.943976e+003,-2.034957e-002
1.945905e+003,-2.039471e-002
1.947833e+003,-2.042269e-002
1.949762e+003,-2.038453e-002
1.951691e+003,-2.039402e-002
1.953619e+003,-2.036680e-002
1.955548e+003,-2.034659e-002
1.957476e+003,-2.035371e-002
1.959405e+003,-2.032003e-002
1.961333e+003,-2.027769e-002
1.963262e+003,-2.033474e-002
1.965190e+003,-2.035105e-002
1.967119e+003,-2.028930e-002
1.969047e+003,-2.026833e-002
1.970976e+003,-2.030900e-002
1.972905e+003,-2.029676e-002
1.974833e+003,-2.022776e-002
1.976762e+003,-2.016966e-002
1.978690e+003,-2.015428e-002
1.980619e+003,-2.018079e-002
1.982547e+003,-2.024531e-002
1.984476e+003,-2.025145e-002
1.986404e+003,-2.020720e-002
1.988333e+003,-2.016526e-002
1.990262e+003,-2.019240e-002
1.992190e+003,-2.012601e-002
1.994119e+003,-2.003141e-002
1.996047e+003,-1.998591e-002
1.997976e+003,-1.998566e-002
1.999904e+003,-1.999274e-002
2.001833e+003,-1.998882e-002
2.003761e+003,-1.991173e-002
2.005690e+003,-1.986511e-002
2.007619e+003,-1.984254e-002
2.009547e+003,-1.980804e-002
2.011476e+003,-1.972892e-002
2.013404e+003,-1.960532e-002
2.015333e+003,-1.947333e-002
2.017261e+003,-1.948495e-002
2.019190e+003,-1.954197e-002
2.021118e+003,-1.953257e-002
2.023047e+003,-1.956687e-002
2.024975e+003,-1.964215e-002
2.026904e+003,-1.967385e-002
2.028833e+003,-1.962993e-002
2.030761e+003,-1.964842e-002
2.032690e+003,-1.970815e-002
2.034618e+003,-1.971983e-002
2.036547e+003,-1.971305e-002
2.038475e+003,-1.970444e-002
2.040404e+003,-1.972021e-002
2.042332e+003,-1.973804e-002
2.044261e+003,-1.974263e-002
2.046189e+003,-1.975051e-002
2.048118e+003,-1.976137e-002
2.050046e+003,-1.976409e-002
2.051975e+003,-1.979398e-002
2.053904e+003,-1.980284e-002
2.055832e+003,-1.976099e-002
2.057761e+003,-1.980313e-002
2.059689e+003,-1.986802e-002
2.061618e+003,-1.982465e-002
2.063546e+003,-1.979775e-002
2.065475e+003,-1.976093e-002
2.067403e+003,-1.971622e-002
2.069332e+003,-1.971986e-002
2.071260e+003,-1.976542e-002
2.073189e+003,-1.979363e-002
2.075118e+003,-1.974959e-002
2.077046e+003,-1.968395e-002
2.078975e+003,-1.968044e-002
2.080903e+003,-1.968544e-002
2.082832e+003,-1.964795e-002
2.084760e+003,-1.966293e-002
2.086689e+003,-1.963531e-002
2.088617e+003,-1.959430e-002
2.090546e+003,-1.961378e-002
2.092475e+003,-1.961824e-002
2.094403e+003,-1.961903e-002
2.096332e+003,-1.965659e-002
2.098260e+003,-1.964393e-002
2.100189e+003,-1.959899e-002
2.102117e+003,-1.955958e-002
2.104046e+003,-1.950472e-002
2.105974e+003,-1.946224e-002
2.107903e+003,-1.944199e-002
2.109832e+003,-1.942621e-002
2.111760e+003,-1.939735e-002
2.113688e+003,-1.944985e-002
2.115617e+003,-1.951194e-002
2.117546e+003,-1.949807e-002
2.119474e+003,-1.947200e-002
2.121403e+003,-1.947510e-002
2.123331e+003,-1.942371e-002
2.125260e+003,-1.930928e-002
2.127188e+003,-1.924716e-002
2.129117e+003,-1.926117e-002
2.131045e+003,-1.926279e-002
2.132974e+003,-1.919549e-002
2.134903e+003,-1.916429e-002
2.136831e+003,-1.919565e-002
2.138760e+003,-1.924313e-002
2.140688e+003,-1.918138e-002
2.142617e+003,-1.912003e-002
2.144545e+003,-1.914080e-002
2.146474e+003,-1.911033e-002
2.148402e+003,-1.904092e-002
2.150331e+003,-1.904304e-002
2.152260e+003,-1.905221e-002
2.154188e+003,-1.899214e-002
2.156117e+003,-1.904234e-002
2.158045e+003,-1.905211e-002
2.159974e+003,-1.907393e-002
2.161902e+003,-1.907164e-002
2.163831e+003,-1.906549e-002
2.165759e+003,-1.912748e-002
2.167688e+003,-1.914603e-002
2.169616e+003,-1.907494e-002
2.171545e+003,-1.902278e-002
2.173474e+003,-1.901196e-002
2.175402e+003,-1.903698e-002
2.177331e+003,-1.909492e-002
2.179259e+003,-1.914451e-002
2.181188e+003,-1.917735e-002
2.183116e+003,-1.914175e-002
2.185045e+003,-1.914502e-002
2.186973e+003,-1.918202e-002
2.188902e+003,-1.921486e-002
2.190831e+003,-1.925581e-002
2.192759e+003,-1.924269e-002
2.194688e+003,-1.922858e-002
2.196616e+003,-1.924675e-002
2.198545e+003,-1.924155e-002
2.200473e+003,-1.917662e-002
2.202402e+003,-1.911626e-002
2.204330e+003,-1.912010e-002
2.206259e+003,-1.913757e-002
2.208188e+003,-1.914945e-002
2.210116e+003,-1.916134e-002
2.212044e+003,-1.917399e-002
2.213973e+003,-1.914546e-002
2.215902e+003,-1.913103e-002
2.217830e+003,-1.918756e-002
2.219759e+003,-1.919235e-002
2.221687e+003,-1.919133e-002
2.223616e+003,-1.916759e-002
2.225544e+003,-1.916461e-002
2.227473e+003,-1.919321e-002
2.229401e+003,-1.928564e-002
2.231330e+003,-1.927473e-002
2.233259e+003,-1.925156e-002
2.235187e+003,-1.924491e-002
2.237116e+003,-1.915690e-002
2.239044e+003,-1.905002e-002
2.240973e+003,-1.908293e-002
2.242901e+003,-1.912352e-002
2.244830e+003,-1.907792e-002
2.246758e+003,-1.910450e-002
2.248687e+003,-1.914124e-002
2.250615e+003,-1.915497e-002
2.252544e+003,-1.919191e-002
2.254473e+003,-1.916439e-002
2.256401e+003,-1.909612e-002
2.258330e+003,-1.907729e-002
2.260258e+003,-1.906971e-002
2.262187e+003,-1.905037e-002
2.264115e+003,-1.906533e-002
2.266044e+003,-1.900295e-002
2.267972e+003,-1.893628e-002
2.269901e+003,-1.893952e-002
2.271830e+003,-1.888312e-002
2.273758e+003,-1.879092e-002
2.275687e+003,-1.877657e-002
2.277615e+003,-1.876115e-002
2.279544e+003,-1.873706e-002
2.281472e+003,-1.872723e-002
2.283401e+003,-1.872164e-002
2.285329e+003,-1.873005e-002
2.287258e+003,-1.875068e-002
2.289187e+003,-1.872564e-002
2.291115e+003,-1.865632e-002
2.293043e+003,-1.861306e-002
2.294972e+003,-1.860871e-002
2.296901e+003,-1.858881e-002
2.298829e+003,-1.858843e-002
2.300758e+003,-1.848879e-002
2.302686e+003,-1.840302e-002
2.304615e+003,-1.839870e-002
2.306543e+003,-1.842208e-002
2.308472e+003,-1.837641e-002
2.310400e+003,-1.830618e-002
2.312329e+003,-1.828226e-002
2.314258e+003,-1.826351e-002
2.316186e+003,-1.818824e-002
2.318115e+003,-1.809679e-002
2.320043e+003,-1.808207e-002
2.321972e+003,-1.804539e-002
2.323900e+003,-1.799329e-002
2.325829e+003,-1.799552e-002
2.327757e+003,-1.805591e-002
2.329686e+003,-1.807285e-002
2.331615e+003,-1.800684e-002
2.333543e+003,-1.793079e-002
2.335472e+003,-1.791136e-002
2.337400e+003,-1.790386e-002
2.339329e+003,-1.785149e-002
2.341257e+003,-1.781145e-002
2.343186e+003,-1.777189e-002
2.345114e+003,-1.780557e-002
2.347043e+003,-1.783912e-002
2.348971e+003,-1.784354e-002
2.350900e+003,-1.787950e-002
2.352829e+003,-1.795931e-002
2.354757e+003,-1.800912e-002
2.356686e+003,-1.803872e-002
2.358614e+003,-1.805353e-002
2.360543e+003,-1.809977e-002
2.362471e+003,-1.815049e-002
2.364400e+003,-1.819806e-002
2.366328e+003,-1.822205e-002
2.368257e+003,-1.817271e-002
2.370186e+003,-1.808655e-002
2.372114e+003,-1.810359e-002
2.374042e+003,-1.810260e-002
2.375971e+003,-1.807502e-002
2.377900e+003,-1.810025e-002
2.379828e+003,-1.808639e-002
2.381757e+003,-1.805823e-002
2.383685e+003,-1.806456e-002
2.385614e+003,-1.809227e-002
2.387542e+003,-1.808989e-002
2.389471e+003,-1.803217e-002
2.391399e+003,-1.800896e-002
2.393328e+003,-1.800823e-002
2.395257e+003,-1.803630e-002
2.397185e+003,-1.802451e-002
2.399114e+003,-1.797908e-002
2.401042e+003,-1.804736e-002
2.402971e+003,-1.806914e-002
2.404899e+003,-1.799701e-002
2.406828e+003,-1.792402e-002
2.408756e+003,-1.786710e-002
2.410685e+003,-1.785174e-002
2.412614e+003,-1.780865e-002
2.414542e+003,-1.773044e-002
2.416471e+003,-1.770853e-002
2.418399e+003,-1.773149e-002
2.420328e+003,-1.776479e-002
2.422256e+003,-1.776483e-002
2.424185e+003,-1.775226e-002
2.426113e+003,-1.773416e-002
2.428042e+003,-1.769211e-002
2.429970e+003,-1.768467e-002
2.431899e+003,-1.780394e-002
2.433828e+003,-1.789194e-002
2.435756e+003,-1.786065e-002
2.437685e+003,-1.777462e-002
2.439613e+003,-1.775481e-002
2.441542e+003,-1.780528e-002
2.443470e+003,-1.785836e-002
2.445399e+003,-1.785378e-002
2.447327e+003,-1.782239e-002
2.449256e+003,-1.782675e-002
2.451185e+003,-1.784341e-002
2.453113e+003,-1.784010e-002
2.455042e+003,-1.780716e-002
2.456970e+003,-1.777923e-002
2.458899e+003,-1.770305e-002
2.460827e+003,-1.760787e-002
2.462756e+003,-1.759081e-002
2.464684e+003,-1.766736e-002
2.466613e+003,-1.768254e-002
2.468542e+003,-1.753513e-002
2.470470e+003,-1.737668e-002
2.472398e+003,-1.737216e-002
2.474327e+003,-1.738225e-002
2.476256e+003,-1.737872e-002
2.478184e+003,-1.741135e-002
2.480113e+003,-1.744604e-002
2.482041e+003,-1.740409e-002
2.483970e+003,-1.735418e-002
2.485898e+003,-1.736739e-002
2.487827e+003,-1.738846e-002
2.489755e+003,-1.740772e-002
2.491684e+003,-1.744754e-002
2.493613e+003,-1.744159e-002
2.495541e+003,-1.743124e-002
2.497470e+003,-1.748943e-002
2.499398e+003,-1.746466e-002
2.501327e+003,-1.739817e-002
2.503255e+003,-1.738353e-002
2.505184e+003,-1.742761e-002
2.507112e+003,-1.740438e-002
2.509041e+003,-1.735220e-002
2.510969e+003,-1.737375e-002
2.512898e+003,-1.738209e-002
2.514827e+003,-1.730027e-002
2.516755e+003,-1.723837e-002
2.518684e+003,-1.722114e-002
2.520612e+003,-1.723137e-002
2.522541e+003,-1.716904e-002
2.524469e+003,-1.703452e-002
2.526398e+003,-1.696767e-002
2.528326e+003,-1.698892e-002
2.530255e+003,-1.703789e-002
2.532184e+003,-1.705895e-002
2.534112e+003,-1.706618e-002
2.536041e+003,-1.710913e-002
2.537969e+003,-1.707345e-002
2.539898e+003,-1.703611e-002
2.541826e+003,-1.705159e-002
2.543755e+003,-1.700466e-002
2.545683e+003,-1.689661e-002
2.547612e+003,-1.687385e-002
2.549541e+003,-1.689721e-002
2.551469e+003,-1.681071e-002
2.553397e+003,-1.672336e-002
2.555326e+003,-1.672094e-002
2.557255e+003,-1.672897e-002
2.559183e+003,-1.674389e-002
2.561112e+003,-1.674584e-002
2.563040e+003,-1.668791e-002
2.564969e+003,-1.659218e-002
2.566897e+003,-1.652545e-002
2.568826e+003,-1.648584e-002
2.570754e+003,-1.647655e-002
2.572683e+003,-1.643486e-002
2.574612e+003,-1.635394e-002
2.576540e+003,-1.625919e-002
2.578469e+003,-1.620359e-002
2.580397e+003,-1.618399e-002
2.582326e+003,-1.612835e-002
2.584254e+003,-1.598673e-002
2.586183e+003,-1.590196e-002
2.588111e+003,-1.585005e-002
2.590040e+003,-1.584692e-002
2.591969e+003,-1.588979e-002
2.593897e+003,-1.585472e-002
2.595826e+003,-1.575845e-002
2.597754e+003,-1.570844e-002
2.599683e+003,-1.572247e-002
2.601611e+003,-1.568876e-002
2.603540e+003,-1.557414e-002
2.605468e+003,-1.549703e-002
2.607397e+003,-1.539099e-002
2.609325e+003,-1.528314e-002
2.611254e+003,-1.529907e-002
2.613183e+003,-1.526494e-002
2.615111e+003,-1.514778e-002
2.617040e+003,-1.501561e-002
2.618968e+003,-1.487840e-002
2.620897e+003,-1.474611e-002
2.622825e+003,-1.464867e-002
2.624754e+003,-1.456938e-002
2.626682e+003,-1.445511e-002
2.628611e+003,-1.432509e-002
2.630540e+003,-1.417109e-002
2.632468e+003,-1.410515e-002
2.634396e+003,-1.414527e-002
2.636325e+003,-1.419062e-002
2.638254e+003,-1.418440e-002
2.640182e+003,-1.416442e-002
2.642111e+003,-1.410800e-002
2.644039e+003,-1.404131e-002
2.645968e+003,-1.410604e-002
2.647896e+003,-1.424362e-002
2.649825e+003,-1.423577e-002
2.651753e+003,-1.417298e-002
2.653682e+003,-1.409655e-002
2.655611e+003,-1.401606e-002
2.657539e+003,-1.404840e-002
2.659468e+003,-1.407230e-002
2.661396e+003,-1.397330e-002
2.663325e+003,-1.395963e-002
2.665253e+003,-1.400804e-002
2.667182e+003,-1.403246e-002
2.669110e+003,-1.409244e-002
2.671039e+003,-1.416121e-002
2.672968e+003,-1.416246e-002
2.674896e+003,-1.413860e-002
2.676825e+003,-1.412904e-002
2.678753e+003,-1.428492e-002
2.680682e+003,-1.444934e-002
2.682610e+003,-1.447805e-002
2.684539e+003,-1.443732e-002
2.686467e+003,-1.437231e-002
2.688396e+003,-1.422509e-002
2.690324e+003,-1.415265e-002
2.692253e+003,-1.418930e-002
2.694182e+003,-1.419411e-002
2.696110e+003,-1.416887e-002
2.698039e+003,-1.413424e-002
2.699967e+003,-1.405847e-002
2.701896e+003,-1.387969e-002
2.703824e+003,-1.375988e-002
2.705753e+003,-1.371876e-002
2.707681e+003,-1.367346e-002
2.709610e+003,-1.363187e-002
2.711539e+003,-1.362513e-002
2.713467e+003,-1.352995e-002
2.715396e+003,-1.343037e-002
2.717324e+003,-1.336849e-002
2.719253e+003,-1.327968e-002
2.721181e+003,-1.325230e-002
2.723110e+003,-1.327360e-002
2.725038e+003,-1.320669e-002
2.726967e+003,-1.308871e-002
2.728896e+003,-1.294038e-002
2.730824e+003,-1.280837e-002
2.732752e+003,-1.269720e-002
2.734681e+003,-1.259415e-002
2.736610e+003,-1.257661e-002
2.738538e+003,-1.254635e-002
2.740467e+003,-1.248448e-002
2.742395e+003,-1.242823e-002
2.744324e+003,-1.230199e-002
2.746252e+003,-1.225255e-002
2.748181e+003,-1.219965e-002
2.750109e+003,-1.207634e-002
2.752038e+003,-1.194558e-002
2.753967e+003,-1.187595e-002
2.755895e+003,-1.179541e-002
2.757824e+003,-1.168288e-002
2.759752e+003,-1.153991e-002
2.761681e+003,-1.138320e-002
2.763609e+003,-1.130027e-002
2.765538e+003,-1.116663e-002
2.767466e+003,-1.096285e-002
2.769395e+003,-1.073806e-002
2.771323e+003,-1.048624e-002
2.773252e+003,-1.023489e-002
2.775181e+003,-1.006340e-002
2.777109e+003,-9.814557e-003
2.779038e+003,-9.455422e-003
2.780966e+003,-9.147448e-003
2.782895e+003,-8.839418e-003
2.784823e+003,-8.491791e-003
2.786752e+003,-8.115170e-003
2.788680e+003,-7.779264e-003
2.790609e+003,-7.408637e-003
2.792538e+003,-6.988756e-003
2.794466e+003,-6.535341e-003
2.796395e+003,-6.122716e-003
2.798323e+003,-5.680791e-003
2.800252e+003,-5.233963e-003
2.802180e+003,-4.813218e-003
2.804109e+003,-4.340598e-003
2.806037e+003,-3.746167e-003
2.807966e+003,-3.111972e-003
2.809895e+003,-2.411547e-003
2.811823e+003,-1.662726e-003
2.813751e+003,-9.124138e-004
2.815680e+003,-5.781505e-005
2.817609e+003,8.757868e-004
2.819537e+003,1.949869e-003
2.821466e+003,3.254228e-003
2.823394e+003,4.779212e-003
2.825323e+003,6.611169e-003
2.827251e+003,8.801954e-003
2.829180e+003,1.147819e-002
2.831108e+003,1.487151e-002
2.833037e+003,1.915888e-002
2.834966e+003,2.476125e-002
2.836894e+003,3.256667e-002
2.838823e+003,4.391481e-002
2.840751e+003,6.104130e-002
2.842680e+003,8.768108e-002
2.844608e+003,1.284027e-001
2.846537e+003,1.791404e-001
2.848465e+003,2.062348e-001
2.850394e+003,1.781034e-001
2.852323e+003,1.252246e-001
2.854251e+003,8.318096e-002
2.856180e+003,5.614933e-002
2.858108e+003,3.879308e-002
2.860037e+003,2.727339e-002
2.861965e+003,1.971222e-002
2.863894e+003,1.495466e-002
2.865822e+003,1.221834e-002
2.867751e+003,1.106383e-002
2.869679e+003,1.123422e-002
2.871608e+003,1.241172e-002
2.873537e+003,1.436858e-002
2.875465e+003,1.714276e-002
2.877394e+003,2.064936e-002
2.879322e+003,2.480973e-002
2.881251e+003,2.942383e-002
2.883179e+003,3.414701e-002
2.885108e+003,3.893850e-002
2.887036e+003,4.382617e-002
2.888965e+003,4.876941e-002
2.890894e+003,5.372449e-002
2.892822e+003,5.870159e-002
2.894750e+003,6.367367e-002
2.896679e+003,6.850437e-002
2.898608e+003,7.352696e-002
2.900536e+003,7.901482e-002
2.902465e+003,8.557522e-002
2.904393e+003,9.412629e-002
2.906322e+003,1.058918e-001
2.908250e+003,1.227378e-001
2.910179e+003,1.467465e-001
2.912107e+003,1.791311e-001
2.914036e+003,2.151914e-001
2.915965e+003,2.380575e-001
2.917893e+003,2.300526e-001
2.919822e+003,1.970938e-001
2.921750e+003,1.581227e-001
2.923679e+003,1.239226e-001
2.925607e+003,9.711363e-002
2.927536e+003,7.675379e-002
2.929464e+003,6.077734e-002
2.931393e+003,4.767484e-002
2.933322e+003,3.674196e-002
2.935250e+003,2.755888e-002
2.937179e+003,1.991708e-002
2.939107e+003,1.364093e-002
2.941036e+003,8.425176e-003
2.942964e+003,3.974000e-003
2.944893e+003,2.058443e-004
2.946821e+003,-2.578245e-003
2.948750e+003,-4.392098e-003
2.950678e+003,-5.609458e-003
2.952607e+003,-6.402414e-003
2.954536e+003,-7.118374e-003
2.956464e+003,-7.848711e-003
2.958393e+003,-8.468720e-003
2.960321e+003,-9.147675e-003
2.962250e+003,-9.913378e-003
2.964178e+003,-1.070298e-002
2.966107e+003,-1.128717e-002
2.968035e+003,-1.187163e-002
2.969964e+003,-1.252234e-002
2.971893e+003,-1.313067e-002
2.973821e+003,-1.361897e-002
2.975750e+003,-1.405270e-002
2.977678e+003,-1.442623e-002
2.979607e+003,-1.465357e-002
2.981535e+003,-1.491138e-002
2.983464e+003,-1.520713e-002
2.985392e+003,-1.540328e-002
2.987321e+003,-1.556314e-002
2.989250e+003,-1.575676e-002
2.991178e+003,-1.590976e-002
2.993106e+003,-1.592528e-002
2.995035e+003,-1.588612e-002
2.996964e+003,-1.596811e-002
2.998892e+003,-1.606321e-002
3.000821e+003,-1.616793e-002
3.002749e+003,-1.617770e-002
3.004678e+003,-1.606321e-002
3.006606e+003,-1.603032e-002
3.008535e+003,-1.611970e-002
3.010463e+003,-1.624189e-002
3.012392e+003,-1.626334e-002
3.014321e+003,-1.624671e-002
3.016249e+003,-1.633891e-002
3.018178e+003,-1.633218e-002
3.020106e+003,-1.630391e-002
3.022035e+003,-1.636240e-002
3.023963e+003,-1.645119e-002
3.025892e+003,-1.642991e-002
3.027820e+003,-1.636444e-002
3.029749e+003,-1.638907e-002
3.031677e+003,-1.643808e-002
3.033606e+003,-1.644580e-002
3.035535e+003,-1.639408e-002
3.037463e+003,-1.633279e-002
3.039392e+003,-1.641007e-002
3.041320e+003,-1.654765e-002
3.043249e+003,-1.651199e-002
3.045177e+003,-1.651381e-002
3.047106e+003,-1.649043e-002
3.049034e+003,-1.648440e-002
3.050963e+003,-1.655212e-002
3.052892e+003,-1.645330e-002
3.054820e+003,-1.640688e-002
3.056749e+003,-1.652721e-002
3.058677e+003,-1.659693e-002
3.060606e+003,-1.658019e-002
3.062534e+003,-1.657445e-002
3.064463e+003,-1.650651e-002
3.066391e+003,-1.645773e-002
3.068320e+003,-1.657224e-002
3.070249e+003,-1.675113e-002
3.072177e+003,-1.681709e-002
3.074105e+003,-1.675575e-002
3.076034e+003,-1.662566e-002
3.077963e+003,-1.655869e-002
3.079891e+003,-1.667570e-002
3.081820e+003,-1.665382e-002
3.083748e+003,-1.656708e-002
3.085677e+003,-1.654590e-002
3.087605e+003,-1.648271e-002
3.089534e+003,-1.650718e-002
3.091462e+003,-1.656957e-002
3.093391e+003,-1.654708e-002
3.095320e+003,-1.649627e-002
3.097248e+003,-1.653706e-002
3.099177e+003,-1.658143e-002
3.101105e+003,-1.656239e-002
3.103034e+003,-1.669358e-002
3.104962e+003,-1.678441e-002
3.106891e+003,-1.666842e-002
3.108819e+003,-1.655671e-002
3.110748e+003,-1.650788e-002
3.112677e+003,-1.657282e-002
3.114605e+003,-1.664671e-002
3.116534e+003,-1.661307e-002
3.118462e+003,-1.655097e-002
3.120391e+003,-1.652010e-002
3.122319e+003,-1.647177e-002
3.124248e+003,-1.645693e-002
3.126176e+003,-1.652935e-002
3.128105e+003,-1.646874e-002
3.130033e+003,-1.633863e-002
3.131962e+003,-1.631089e-002
3.133891e+003,-1.622153e-002
3.135819e+003,-1.620688e-002
3.137748e+003,-1.623126e-002
3.139676e+003,-1.616394e-002
3.141605e+003,-1.616353e-002
3.143533e+003,-1.616069e-002
3.145462e+003,-1.612742e-002
3.147390e+003,-1.612611e-002
3.149319e+003,-1.618559e-002
3.151248e+003,-1.614872e-002
3.153176e+003,-1.602678e-002
3.155104e+003,-1.600359e-002
3.157033e+003,-1.597533e-002
3.158962e+003,-1.589989e-002
3.160890e+003,-1.580849e-002
3.162819e+003,-1.570045e-002
3.164747e+003,-1.564875e-002
3.166676e+003,-1.557385e-002
3.168604e+003,-1.547119e-002
3.170533e+003,-1.541648e-002
3.172461e+003,-1.526101e-002
3.174390e+003,-1.520921e-002
3.176319e+003,-1.515274e-002
3.178247e+003,-1.498802e-002
3.180176e+003,-1.486905e-002
3.182104e+003,-1.481907e-002
3.184033e+003,-1.478054e-002
3.185961e+003,-1.468234e-002
3.187890e+003,-1.460613e-002
3.189818e+003,-1.461503e-002
3.191747e+003,-1.462615e-002
3.193676e+003,-1.461401e-002
3.195604e+003,-1.456230e-002
3.197532e+003,-1.458944e-002
3.199461e+003,-1.459315e-002
3.201390e+003,-1.454224e-002
3.203318e+003,-1.449872e-002
3.205247e+003,-1.453817e-002
3.207175e+003,-1.456973e-002
3.209104e+003,-1.457473e-002
3.211032e+003,-1.454644e-002
3.212961e+003,-1.443722e-002
3.214889e+003,-1.434859e-002
3.216818e+003,-1.435972e-002
3.218747e+003,-1.455419e-002
3.220675e+003,-1.460071e-002
3.222604e+003,-1.442036e-002
3.224532e+003,-1.433490e-002
3.226461e+003,-1.440905e-002
3.228389e+003,-1.449613e-002
3.230318e+003,-1.458485e-002
3.232246e+003,-1.455970e-002
3.234175e+003,-1.451654e-002
3.236104e+003,-1.447283e-002
3.238032e+003,-1.438055e-002
3.239961e+003,-1.430765e-002
3.241889e+003,-1.428495e-002
3.243818e+003,-1.430910e-002
3.245746e+003,-1.429473e-002
3.247675e+003,-1.420922e-002
3.249603e+003,-1.413286e-002
3.251532e+003,-1.419293e-002
3.253460e+003,-1.420175e-002
3.255389e+003,-1.409918e-002
3.257318e+003,-1.399033e-002
3.259246e+003,-1.382623e-002
3.261175e+003,-1.380617e-002
3.263103e+003,-1.393675e-002
3.265032e+003,-1.402104e-002
3.266960e+003,-1.395725e-002
3.268889e+003,-1.390039e-002
3.270817e+003,-1.391204e-002
3.272746e+003,-1.389288e-002
3.274675e+003,-1.375487e-002
3.276603e+003,-1.367108e-002
3.278531e+003,-1.359167e-002
3.280460e+003,-1.353287e-002
3.282389e+003,-1.366572e-002
3.284317e+003,-1.372197e-002
3.286246e+003,-1.362905e-002
3.288174e+003,-1.368004e-002
3.290103e+003,-1.371330e-002
3.292031e+003,-1.364482e-002
3.293960e+003,-1.349673e-002
3.295888e+003,-1.340778e-002
3.297817e+003,-1.335728e-002
3.299746e+003,-1.332065e-002
3.301674e+003,-1.337929e-002
3.303603e+003,-1.338144e-002
3.305531e+003,-1.335416e-002
3.307460e+003,-1.331088e-002
3.309388e+003,-1.333405e-002
3.311317e+003,-1.325712e-002
3.313245e+003,-1.310623e-002
3.315174e+003,-1.314703e-002
3.317103e+003,-1.328630e-002
3.319031e+003,-1.328273e-002
3.320960e+003,-1.317821e-002
3.322888e+003,-1.311192e-002
3.324817e+003,-1.305856e-002
3.326745e+003,-1.298315e-002
3.328674e+003,-1.294321e-002
3.330602e+003,-1.299913e-002
3.332531e+003,-1.293015e-002
3.334459e+003,-1.278237e-002
3.336388e+003,-1.270383e-002
3.338317e+003,-1.280605e-002
3.340245e+003,-1.295456e-002
3.342174e+003,-1.297653e-002
3.344102e+003,-1.290738e-002
3.346031e+003,-1.278344e-002
3.347959e+003,-1.272439e-002
3.349888e+003,-1.272645e-002
3.351816e+003,-1.274656e-002
3.353745e+003,-1.276252e-002
3.355674e+003,-1.281036e-002
3.357602e+003,-1.282912e-002
3.359531e+003,-1.285932e-002
3.361459e+003,-1.291195e-002
3.363388e+003,-1.279321e-002
3.365316e+003,-1.262730e-002
3.367245e+003,-1.260716e-002
3.369173e+003,-1.266071e-002
3.371102e+003,-1.261568e-002
3.373031e+003,-1.252179e-002
3.374959e+003,-1.248805e-002
3.376887e+003,-1.246989e-002
3.378816e+003,-1.250392e-002
3.380745e+003,-1.248815e-002
3.382673e+003,-1.237816e-002
3.384602e+003,-1.232044e-002
3.386530e+003,-1.219904e-002
3.388459e+003,-1.204653e-002
3.390387e+003,-1.196102e-002
3.392316e+003,-1.201202e-002
3.394244e+003,-1.202939e-002
3.396173e+003,-1.213264e-002
3.398102e+003,-1.235948e-002
3.400030e+003,-1.255855e-002
3.401959e+003,-1.258694e-002
3.403887e+003,-1.244462e-002
3.405816e+003,-1.252153e-002
3.407744e+003,-1.269524e-002
3.409673e+003,-1.276156e-002
3.411601e+003,-1.294366e-002
3.413530e+003,-1.320113e-002
3.415458e+003,-1.315963e-002
3.417387e+003,-1.298010e-002
3.419316e+003,-1.300888e-002
3.421244e+003,-1.314790e-002
3.423173e+003,-1.314748e-002
3.425101e+003,-1.314587e-002
3.427030e+003,-1.317946e-002
3.428958e+003,-1.328379e-002
3.430887e+003,-1.335140e-002
3.432815e+003,-1.343956e-002
3.434744e+003,-1.357366e-002
3.436673e+003,-1.361926e-002
3.438601e+003,-1.351906e-002
3.440530e+003,-1.354164e-002
3.442458e+003,-1.358692e-002
3.444387e+003,-1.353582e-002
3.446315e+003,-1.348116e-002
3.448244e+003,-1.346847e-002
3.450172e+003,-1.347910e-002
3.452101e+003,-1.346853e-002
3.454030e+003,-1.355198e-002
3.455958e+003,-1.359247e-002
3.457886e+003,-1.367532e-002
3.459815e+003,-1.364838e-002
3.461744e+003,-1.359228e-002
3.463672e+003,-1.379837e-002
3.465601e+003,-1.408657e-002
3.467529e+003,-1.405305e-002
3.469458e+003,-1.396418e-002
3.471386e+003,-1.396091e-002
3.473315e+003,-1.399608e-002
3.475243e+003,-1.405036e-002
3.477172e+003,-1.408940e-002
3.479101e+003,-1.411239e-002
3.481029e+003,-1.417994e-002
3.482958e+003,-1.430179e-002
3.484886e+003,-1.431301e-002
3.486815e+003,-1.422429e-002
3.488743e+003,-1.438924e-002
3.490672e+003,-1.446152e-002
3.492600e+003,-1.450718e-002
3.494529e+003,-1.455977e-002
3.496458e+003,-1.445661e-002
3.498386e+003,-1.434792e-002
3.500315e+003,-1.437818e-002
3.502243e+003,-1.449622e-002
3.504172e+003,-1.446834e-002
3.506100e+003,-1.440962e-002
3.508029e+003,-1.458290e-002
3.509957e+003,-1.476251e-002
3.511886e+003,-1.465642e-002
3.513814e+003,-1.461638e-002
3.515743e+003,-1.487552e-002
3.517672e+003,-1.503126e-002
3.519600e+003,-1.483447e-002
3.521529e+003,-1.477689e-002
3.523457e+003,-1.481490e-002
3.525386e+003,-1.474851e-002
3.527314e+003,-1.484430e-002
3.529243e+003,-1.494384e-002
3.531171e+003,-1.503296e-002
3.533100e+003,-1.507162e-002
3.535029e+003,-1.510148e-002
3.536957e+003,-1.513028e-002
3.538885e+003,-1.514928e-002
3.540814e+003,-1.519945e-002
3.542743e+003,-1.531938e-002
3.544671e+003,-1.541153e-002
3.546600e+003,-1.522527e-002
3.548528e+003,-1.510592e-002
3.550457e+003,-1.517331e-002
3.552385e+003,-1.524882e-002
3.554314e+003,-1.534507e-002
3.556242e+003,-1.548657e-002
3.558171e+003,-1.556257e-002
3.560100e+003,-1.566603e-002
3.562028e+003,-1.576871e-002
3.563957e+003,-1.571237e-002
3.565885e+003,-1.555816e-002
3.567814e+003,-1.553133e-002
3.569742e+003,-1.564206e-002
3.571671e+003,-1.570819e-002
3.573599e+003,-1.569486e-002
3.575528e+003,-1.569879e-002
3.577457e+003,-1.575833e-002
3.579385e+003,-1.584986e-002
3.581314e+003,-1.588650e-002
3.583242e+003,-1.575318e-002
3.585171e+003,-1.569461e-002
3.587099e+003,-1.586957e-002
3.589028e+003,-1.600966e-002
3.590956e+003,-1.602403e-002
3.592885e+003,-1.609514e-002
3.594813e+003,-1.607388e-002
3.596742e+003,-1.595693e-002
3.598671e+003,-1.601161e-002
3.600599e+003,-1.603406e-002
3.602528e+003,-1.594361e-002
3.604456e+003,-1.595294e-002
3.606385e+003,-1.605597e-002
3.608313e+003,-1.608365e-002
3.610242e+003,-1.612397e-002
3.612170e+003,-1.625479e-002
3.614099e+003,-1.634660e-002
3.616028e+003,-1.646153e-002
3.617956e+003,-1.645799e-002
3.619885e+003,-1.648226e-002
3.621813e+003,-1.661906e-002
3.623742e+003,-1.670286e-002
3.625670e+003,-1.673050e-002
3.627599e+003,-1.685023e-002
3.629527e+003,-1.671456e-002
3.631456e+003,-1.666839e-002
3.633385e+003,-1.669572e-002
3.635313e+003,-1.662783e-002
3.637241e+003,-1.671781e-002
3.639170e+003,-1.676318e-002
3.641099e+003,-1.678974e-002
3.643027e+003,-1.690094e-002
3.644956e+003,-1.706459e-002
3.646884e+003,-1.714458e-002
3.648813e+003,-1.713639e-002
3.650741e+003,-1.710744e-002
3.652670e+003,-1.715824e-002
3.654598e+003,-1.717213e-002
3.656527e+003,-1.698258e-002
3.658456e+003,-1.692169e-002
3.660384e+003,-1.713821e-002
3.662313e+003,-1.719519e-002
3.664241e+003,-1.713974e-002
3.666170e+003,-1.725722e-002
3.668098e+003,-1.747822e-002
3.670027e+003,-1.746619e-002
3.671955e+003,-1.730088e-002
3.673884e+003,-1.744789e-002
3.675813e+003,-1.739422e-002
3.677741e+003,-1.730852e-002
3.679670e+003,-1.737130e-002
3.681598e+003,-1.738146e-002
3.683527e+003,-1.749834e-002
3.685455e+003,-1.763551e-002
3.687384e+003,-1.756933e-002
3.689312e+003,-1.740702e-002
3.691241e+003,-1.751937e-002
3.693169e+003,-1.759905e-002
3.695098e+003,-1.769405e-002
3.697027e+003,-1.769128e-002
3.698955e+003,-1.760768e-002
3.700884e+003,-1.754273e-002
3.702812e+003,-1.757156e-002
3.704741e+003,-1.768483e-002
3.706669e+003,-1.777427e-002
3.708598e+003,-1.787585e-002
3.710526e+003,-1.780795e-002
3.712455e+003,-1.761140e-002
3.714384e+003,-1.750197e-002
3.716312e+003,-1.761528e-002
3.718240e+003,-1.773687e-002
3.720169e+003,-1.768934e-002
3.722098e+003,-1.763173e-002
3.724026e+003,-1.770067e-002
3.725955e+003,-1.768546e-002
3.727883e+003,-1.763154e-002
3.729812e+003,-1.762441e-002
3.731740e+003,-1.765925e-002
3.733669e+003,-1.756882e-002
3.735597e+003,-1.750633e-002
3.737526e+003,-1.747148e-002
3.739455e+003,-1.754025e-002
3.741383e+003,-1.764535e-002
3.743312e+003,-1.767035e-002
3.745240e+003,-1.731938e-002
3.747169e+003,-1.747580e-002
3.749097e+003,-1.765674e-002
3.751026e+003,-1.749280e-002
3.752954e+003,-1.746425e-002
3.754883e+003,-1.760866e-002
3.756812e+003,-1.764748e-002
3.758740e+003,-1.762133e-002
3.760669e+003,-1.760424e-002
3.762597e+003,-1.767398e-002
3.764526e+003,-1.767983e-002
3.766454e+003,-1.751479e-002
3.768383e+003,-1.742058e-002
3.770311e+003,-1.739349e-002
3.772240e+003,-1.745028e-002
3.774168e+003,-1.751587e-002
3.776097e+003,-1.761060e-002
3.778026e+003,-1.767115e-002
3.779954e+003,-1.771514e-002
3.781883e+003,-1.771215e-002
3.783811e+003,-1.769386e-002
3.785740e+003,-1.767840e-002
3.787668e+003,-1.760402e-002
3.789597e+003,-1.742685e-002
3.791525e+003,-1.749340e-002
3.793454e+003,-1.761814e-002
3.795383e+003,-1.760179e-002
3.797311e+003,-1.759428e-002
3.799240e+003,-1.775659e-002
3.801168e+003,-1.770131e-002
3.803097e+003,-1.752930e-002
3.805025e+003,-1.752586e-002
3.806954e+003,-1.748449e-002
3.808882e+003,-1.750976e-002
3.810811e+003,-1.760984e-002
3.812740e+003,-1.759091e-002
3.814668e+003,-1.748739e-002
3.816596e+003,-1.735771e-002
3.818525e+003,-1.753528e-002
3.820454e+003,-1.765304e-002
3.822382e+003,-1.744640e-002
3.824311e+003,-1.740626e-002
3.826239e+003,-1.736115e-002
3.828168e+003,-1.740034e-002
3.830096e+003,-1.760733e-002
3.832025e+003,-1.772672e-002
3.833953e+003,-1.766036e-002
3.835882e+003,-1.765976e-002
3.837811e+003,-1.759940e-002
3.839739e+003,-1.760841e-002
3.841668e+003,-1.763631e-002
3.843596e+003,-1.765126e-002
3.845525e+003,-1.763256e-002
3.847453e+003,-1.758629e-002
3.849382e+003,-1.762174e-002
3.851310e+003,-1.769784e-002
3.853239e+003,-1.753506e-002
3.855167e+003,-1.731950e-002
3.857096e+003,-1.745502e-002
3.859025e+003,-1.759746e-002
3.860953e+003,-1.770436e-002
3.862882e+003,-1.777558e-002
3.864810e+003,-1.766822e-002
3.866739e+003,-1.755027e-002
3.868667e+003,-1.765082e-002
3.870596e+003,-1.761254e-002
3.872524e+003,-1.760994e-002
3.874453e+003,-1.768740e-002
3.876382e+003,-1.758209e-002
3.878310e+003,-1.753815e-002
3.880239e+003,-1.769456e-002
3.882167e+003,-1.781403e-002
3.884096e+003,-1.783056e-002
3.886024e+003,-1.761423e-002
3.887953e+003,-1.761006e-002
3.889881e+003,-1.779921e-002
3.891810e+003,-1.776435e-002
3.893739e+003,-1.764207e-002
3.895667e+003,-1.761153e-002
3.897595e+003,-1.775694e-002
3.899524e+003,-1.772507e-002
3.901453e+003,-1.757016e-002
3.903381e+003,-1.750633e-002
3.905310e+003,-1.749710e-002
3.907238e+003,-1.764455e-002
3.909167e+003,-1.783972e-002
3.911095e+003,-1.781546e-002
3.913024e+003,-1.776995e-002
3.914952e+003,-1.783317e-002
3.916881e+003,-1.770773e-002
3.918810e+003,-1.768829e-002
3.920738e+003,-1.776692e-002
3.922667e+003,-1.770544e-002
3.924595e+003,-1.763450e-002
3.926524e+003,-1.754617e-002
3.928452e+003,-1.764856e-002
3.930381e+003,-1.785165e-002
3.932309e+003,-1.793352e-002
3.934238e+003,-1.802511e-002
3.936167e+003,-1.803570e-002
3.938095e+003,-1.799895e-002
3.940024e+003,-1.801078e-002
3.941952e+003,-1.795162e-002
3.943881e+003,-1.801027e-002
3.945809e+003,-1.813540e-002
3.947738e+003,-1.808671e-002
3.949666e+003,-1.804266e-002
3.951595e+003,-1.791686e-002
3.953523e+003,-1.771571e-002
3.955452e+003,-1.776375e-002
3.957380e+003,-1.787753e-002
3.959309e+003,-1.779412e-002
3.961238e+003,-1.793731e-002
3.963166e+003,-1.817617e-002
3.965095e+003,-1.822472e-002
3.967023e+003,-1.807146e-002
3.968952e+003,-1.806513e-002
3.970880e+003,-1.824648e-002
3.972809e+003,-1.824651e-002
3.974737e+003,-1.816991e-002
3.976666e+003,-1.819692e-002
3.978594e+003,-1.822335e-002
3.980523e+003,-1.821007e-002
3.982452e+003,-1.812698e-002
3.984380e+003,-1.801195e-002
3.986309e+003,-1.805769e-002
3.988237e+003,-1.827908e-002
3.990166e+003,-1.824156e-002
3.992094e+003,-1.808865e-002
3.994023e+003,-1.802130e-002
3.995951e+003,-1.809132e-002
3.997880e+003,-1.815329e-002
3.999809e+003,-1.805070e-002
4.001737e+003,0.000000e+000
