3.992094e+002,0.000000e+000
4.011380e+002,0.000000e+000
4.030665e+002,0.000000e+000
4.049951e+002,0.000000e+000
4.069236e+002,0.000000e+000
4.088522e+002,0.000000e+000
4.107807e+002,0.000000e+000
4.127093e+002,0.000000e+000
4.146378e+002,0.000000e+000
4.165664e+002,0.000000e+000
4.184949e+002,0.000000e+000
4.204235e+002,0.000000e+000
4.223520e+002,0.000000e+000
4.242806e+002,0.000000e+000
4.262091e+002,0.000000e+000
4.281377e+002,0.000000e+000
4.300662e+002,0.000000e+000
4.319948e+002,0.000000e+000
4.339233e+002,0.000000e+000
4.358519e+002,0.000000e+000
4.377804e+002,0.000000e+000
4.397090e+002,0.000000e+000
4.416375e+002,0.000000e+000
4.435660e+002,0.000000e+000
4.454946e+002,0.000000e+000
4.474232e+002,0.000000e+000
4.493517e+002,0.000000e+000
4.512802e+002,0.000000e+000
4.532088e+002,0.000000e+000
4.551373e+002,0.000000e+000
4.570659e+002,0.000000e+000
4.589944e+002,0.000000e+000
4.609230e+002,0.000000e+000
4.628515e+002,0.000000e+000
4.647801e+002,0.000000e+000
4.667086e+002,0.000000e+000
4.686372e+002,0.000000e+000
4.705657e+002,0.000000e+000
4.724943e+002,0.000000e+000
4.744228e+002,0.000000e+000
4.763514e+002,0.000000e+000
4.782799e+002,0.000000e+000
4.802085e+002,0.000000e+000
4.821370e+002,0.000000e+000
4.840656e+002,0.000000e+000
4.859941e+002,0.000000e+000
4.879226e+002,0.000000e+000
4.898512e+002,0.000000e+000
4.917798e+002,0.000000e+000
4.937083e+002,0.000000e+000
4.956368e+002,0.000000e+000
4.975654e+002,0.000000e+000
4.994939e+002,0.000000e+000
5.014225e+002,0.000000e+000
5.033510e+002,0.000000e+000
5.052796e+002,0.000000e+000
5.072081e+002,0.000000e+000
5.091367e+002,0.000000e+000
5.110652e+002,0.000000e+000
5.129938e+002,0.000000e+000
5.149223e+002,0.000000e+000
5.168509e+002,0.000000e+000
5.187794e+002,0.000000e+000
5.207079e+002,0.000000e+000
5.226365e+002,0.000000e+000
5.245651e+002,0.000000e+000
5.264936e+002,0.000000e+000
5.284221e+002,0.000000e+000
5.303507e+002,0.000000e+000
5.322792e+002,0.000000e+000
5.342078e+002,0.000000e+000
5.361364e+002,0.000000e+000
5.380649e+002,0.000000e+000
5.399934e+002,0.000000e+000
5.419220e+002,0.000000e+000
5.438505e+002,0.000000e+000
5.457791e+002,0.000000e+000
5.477076e+002,0.000000e+000
5.496362e+002,0.000000e+000
5.515647e+002,0.000000e+000
5.534933e+002,0.000000e+000
5.554218e+002,0.000000e+000
5.573503e+002,0.000000e+000
5.592789e+002,0.000000e+000
5.612075e+002,0.000000e+000
5.631360e+002,0.000000e+000
5.650646e+002,0.000000e+000
5.669931e+002,0.000000e+000
5.689216e+002,0.000000e+000
5.708502e+002,0.000000e+000
5.727787e+002,0.000000e+000
5.747073e+002,0.000000e+000
5.766359e+002,0.000000e+000
5.785644e+002,0.000000e+000
5.804929e+002,0.000000e+000
5.824215e+002,0.000000e+000
5.843500e+002,0.000000e+000
5.862786e+002,0.000000e+000
5.882072e+002,0.000000e+000
5.901357e+002,0.000000e+000
5.920642e+002,0.000000e+000
5.939928e+002,0.000000e+000
5.959213e+002,0.000000e+000
5.978499e+002,0.000000e+000
5.997784e+002,0.000000e+000
6.017070e+002,0.000000e+000
6.036355e+002,0.000000e+000
6.055641e+002,0.000000e+000
6.074926e+002,0.000000e+000
6.094211e+002,0.000000e+000
6.113497e+002,0.000000e+000
6.132783e+002,0.000000e+000
6.152068e+002,0.000000e+000
6.171354e+002,0.000000e+000
6.190639e+002,0.000000e+000
6.209924e+002,0.000000e+000
6.229210e+002,0.000000e+000
6.248495e+002,0.000000e+000
6.267781e+002,0.000000e+000
6.287067e+002,0.000000e+000
6.306352e+002,0.000000e+000
6.325637e+002,0.000000e+000
6.344923e+002,0.000000e+000
6.364208e+002,0.000000e+000
6.383494e+002,0.000000e+000
6.402780e+002,0.000000e+000
6.422065e+002,0.000000e+000
6.441350e+002,0.000000e+000
6.460636e+002,0.000000e+000
6.479921e+002,0.000000e+000
6.499207e+002,0.000000e+000
6.518492e+002,0.000000e+000
6.537778e+002,0.000000e+000
6.557063e+002,0.000000e+000
6.576349e+002,0.000000e+000
6.595634e+002,0.000000e+000
6.614919e+002,0.000000e+000
6.634205e+002,0.000000e+000
6.653491e+002,0.000000e+000
6.672776e+002,0.000000e+000
6.692062e+002,0.000000e+000
6.711347e+002,0.000000e+000
6.730632e+002,0.000000e+000
6.749918e+002,-3.816853e-003
6.769203e+002,-3.585470e-003
6.788489e+002,-3.739662e-003
6.807775e+002,-3.836198e-003
6.827060e+002,-4.353260e-003
6.846345e+002,-4.277838e-003
6.865631e+002,-3.526677e-003
6.884916e+002,-3.333875e-003
6.904202e+002,-3.626775e-003
6.923488e+002,-3.691567e-003
6.942773e+002,-3.344100e-003
6.962058e+002,-2.585195e-003
6.981344e+002,-1.896653e-003
7.000629e+002,-1.244321e-003
7.019915e+002,-1.709711e-004
7.039200e+002,1.356503e-003
7.058486e+002,2.678782e-003
7.077771e+002,4.196089e-003
7.097057e+002,7.086391e-003
7.116342e+002,1.181635e-002
7.135627e+002,2.084764e-002
7.154913e+002,3.564674e-002
7.174199e+002,5.249497e-002
7.193484e+002,5.669748e-002
7.212770e+002,3.724329e-002
7.232055e+002,1.875914e-002
7.251340e+002,1.364230e-002
7.270626e+002,1.831802e-002
7.289911e+002,3.179115e-002
7.309197e+002,3.654014e-002
7.328483e+002,1.915965e-002
7.347768e+002,2.319536e-003
7.367053e+002,-4.369202e-003
7.386339e+002,-6.700496e-003
7.405624e+002,-7.594690e-003
7.424910e+002,-8.088632e-003
7.444196e+002,-8.354976e-003
7.463481e+002,-8.437915e-003
7.482766e+002,-8.842665e-003
7.502052e+002,-9.241524e-003
7.521337e+002,-9.526644e-003
7.540623e+002,-9.364440e-003
7.559908e+002,-9.312197e-003
7.579194e+002,-9.593251e-003
7.598479e+002,-9.753134e-003
7.617765e+002,-9.695688e-003
7.637050e+002,-9.633925e-003
7.656335e+002,-9.932064e-003
7.675621e+002,-1.031368e-002
7.694907e+002,-1.004287e-002
7.714192e+002,-9.796027e-003
7.733478e+002,-9.996765e-003
7.752763e+002,-1.010590e-002
7.772048e+002,-1.021042e-002
7.791334e+002,-1.047249e-002
7.810620e+002,-1.038709e-002
7.829905e+002,-1.026307e-002
7.849191e+002,-1.020744e-002
7.868476e+002,-1.035684e-002
7.887761e+002,-1.033138e-002
7.907047e+002,-1.022505e-002
7.926332e+002,-1.038971e-002
7.945618e+002,-1.056373e-002
7.964904e+002,-1.069315e-002
7.984189e+002,-1.085173e-002
8.003474e+002,-1.078069e-002
8.022760e+002,-1.073815e-002
8.042045e+002,-1.080496e-002
8.061331e+002,-1.110085e-002
8.080616e+002,-1.124158e-002
8.099902e+002,-1.103664e-002
8.119187e+002,-1.096211e-002
8.138473e+002,-1.116114e-002
8.157758e+002,-1.125882e-002
8.177043e+002,-1.122153e-002
8.196329e+002,-1.120341e-002
8.215615e+002,-1.128933e-002
8.234900e+002,-1.144485e-002
8.254186e+002,-1.146327e-002
8.273471e+002,-1.140128e-002
8.292756e+002,-1.157933e-002
8.312042e+002,-1.163469e-002
8.331328e+002,-1.177954e-002
8.350613e+002,-1.191070e-002
8.369899e+002,-1.190764e-002
8.389184e+002,-1.187440e-002
8.408469e+002,-1.188582e-002
8.427755e+002,-1.178899e-002
8.447040e+002,-1.169775e-002
8.466326e+002,-1.167240e-002
8.485612e+002,-1.165056e-002
8.504896e+002,-1.182410e-002
8.524182e+002,-1.201085e-002
8.543468e+002,-1.194204e-002
8.562753e+002,-1.182346e-002
8.582039e+002,-1.182598e-002
8.601324e+002,-1.184632e-002
8.620609e+002,-1.169653e-002
8.639895e+002,-1.153236e-002
8.659181e+002,-1.148654e-002
8.678466e+002,-1.129269e-002
8.697751e+002,-1.108273e-002
8.717037e+002,-1.102882e-002
8.736322e+002,-1.098375e-002
8.755608e+002,-1.099865e-002
8.774894e+002,-1.107908e-002
8.794178e+002,-1.121513e-002
8.813464e+002,-1.144504e-002
8.832750e+002,-1.167908e-002
8.852035e+002,-1.158459e-002
8.871321e+002,-1.152242e-002
8.890607e+002,-1.158756e-002
8.909891e+002,-1.175603e-002
8.929177e+002,-1.189410e-002
8.948463e+002,-1.189958e-002
8.967748e+002,-1.180831e-002
8.987034e+002,-1.175790e-002
9.006320e+002,-1.174133e-002
9.025604e+002,-1.181279e-002
9.044890e+002,-1.187708e-002
9.064176e+002,-1.174626e-002
9.083461e+002,-1.155801e-002
9.102747e+002,-1.149370e-002
9.122032e+002,-1.153013e-002
9.141317e+002,-1.174187e-002
9.160603e+002,-1.184451e-002
9.179889e+002,-1.177777e-002
9.199174e+002,-1.166227e-002
9.218459e+002,-1.167834e-002
9.237745e+002,-1.176596e-002
9.257030e+002,-1.183471e-002
9.276316e+002,-1.180753e-002
9.295602e+002,-1.182704e-002
9.314886e+002,-1.184880e-002
9.334172e+002,-1.176864e-002
9.353458e+002,-1.172656e-002
9.372743e+002,-1.175626e-002
9.392029e+002,-1.168798e-002
9.411315e+002,-1.170001e-002
9.430599e+002,-1.168450e-002
9.449885e+002,-1.161534e-002
9.469171e+002,-1.152745e-002
9.488456e+002,-1.150384e-002
9.507742e+002,-1.143168e-002
9.527028e+002,-1.126502e-002
9.546312e+002,-1.106871e-002
9.565598e+002,-1.108777e-002
9.584884e+002,-1.117451e-002
9.604169e+002,-1.115433e-002
9.623455e+002,-1.103570e-002
9.642740e+002,-1.101205e-002
9.662025e+002,-1.101292e-002
9.681311e+002,-1.091287e-002
9.700597e+002,-1.082290e-002
9.719882e+002,-1.088753e-002
9.739167e+002,-1.093923e-002
9.758453e+002,-1.087167e-002
9.777738e+002,-1.077300e-002
9.797024e+002,-1.074759e-002
9.816310e+002,-1.071077e-002
9.835594e+002,-1.066293e-002
9.854880e+002,-1.057740e-002
9.874166e+002,-1.048970e-002
9.893451e+002,-1.044946e-002
9.912737e+002,-1.042620e-002
9.932023e+002,-1.032277e-002
9.951307e+002,-1.024450e-002
9.970593e+002,-1.019900e-002
9.989879e+002,-1.010704e-002
1.000916e+003,-9.926689e-003
1.002845e+003,-9.852391e-003
1.004774e+003,-9.751773e-003
1.006702e+003,-9.695332e-003
1.008631e+003,-9.549496e-003
1.010559e+003,-9.302079e-003
1.012488e+003,-9.095405e-003
1.014416e+003,-9.002629e-003
1.016345e+003,-8.817048e-003
1.018273e+003,-8.570967e-003
1.020202e+003,-8.416044e-003
1.022130e+003,-8.277548e-003
1.024059e+003,-8.052466e-003
1.025988e+003,-7.881511e-003
1.027916e+003,-7.751306e-003
1.029845e+003,-7.605597e-003
1.031773e+003,-7.540638e-003
1.033702e+003,-7.526863e-003
1.035630e+003,-7.392350e-003
1.037559e+003,-7.286371e-003
1.039487e+003,-7.079356e-003
1.041416e+003,-6.845726e-003
1.043344e+003,-6.809162e-003
1.045273e+003,-6.700953e-003
1.047202e+003,-6.455726e-003
1.049130e+003,-6.245376e-003
1.051059e+003,-5.996689e-003
1.052987e+003,-5.823027e-003
1.054916e+003,-5.729941e-003
1.056844e+003,-5.622345e-003
1.058773e+003,-5.497547e-003
1.060701e+003,-5.449352e-003
1.062630e+003,-5.522150e-003
1.064558e+003,-5.558855e-003
1.066487e+003,-5.563795e-003
1.068416e+003,-5.620285e-003
1.070344e+003,-5.532390e-003
1.072273e+003,-5.480272e-003
1.074201e+003,-5.379618e-003
1.076130e+003,-5.171495e-003
1.078058e+003,-4.970447e-003
1.079987e+003,-4.897851e-003
1.081915e+003,-4.786543e-003
1.083844e+003,-4.673272e-003
1.085773e+003,-4.631443e-003
1.087701e+003,-4.561054e-003
1.089630e+003,-4.540692e-003
1.091558e+003,-4.489177e-003
1.093487e+003,-4.285679e-003
1.095415e+003,-4.087568e-003
1.097344e+003,-4.001233e-003
1.099272e+003,-3.921055e-003
1.101201e+003,-3.847003e-003
1.103129e+003,-3.895606e-003
1.105058e+003,-3.930610e-003
1.106987e+003,-3.878727e-003
1.108915e+003,-3.901517e-003
1.110844e+003,-3.922434e-003
1.112772e+003,-3.846280e-003
1.114701e+003,-3.878563e-003
1.116629e+003,-3.891665e-003
1.118558e+003,-3.831468e-003
1.120486e+003,-3.865427e-003
1.122415e+003,-4.046930e-003
1.124344e+003,-4.200893e-003
1.126272e+003,-4.351981e-003
1.128201e+003,-4.531576e-003
1.130129e+003,-4.689957e-003
1.132058e+003,-4.703559e-003
1.133986e+003,-4.568661e-003
1.135915e+003,-4.436343e-003
1.137843e+003,-4.386882e-003
1.139772e+003,-4.378977e-003
1.141700e+003,-4.375434e-003
1.143629e+003,-4.297162e-003
1.145557e+003,-4.284203e-003
1.147486e+003,-4.259038e-003
1.149415e+003,-4.196267e-003
1.151343e+003,-4.104078e-003
1.153272e+003,-3.971390e-003
1.155200e+003,-3.913273e-003
1.157129e+003,-3.889859e-003
1.159057e+003,-3.781840e-003
1.160986e+003,-3.675535e-003
1.162914e+003,-3.595854e-003
1.164843e+003,-3.568546e-003
1.166771e+003,-3.605614e-003
1.168700e+003,-3.640510e-003
1.170629e+003,-3.634201e-003
1.172557e+003,-3.649184e-003
1.174486e+003,-3.693506e-003
1.176414e+003,-3.882996e-003
1.178343e+003,-4.175724e-003
1.180271e+003,-4.525904e-003
1.182200e+003,-4.908499e-003
1.184128e+003,-5.271510e-003
1.186057e+003,-5.532880e-003
1.187986e+003,-5.713231e-003
1.189914e+003,-5.881608e-003
1.191843e+003,-5.980349e-003
1.193771e+003,-6.036459e-003
1.195700e+003,-6.143592e-003
1.197628e+003,-6.284926e-003
1.199557e+003,-6.452364e-003
1.201485e+003,-6.584754e-003
1.203414e+003,-6.743463e-003
1.205343e+003,-6.801334e-003
1.207271e+003,-6.797387e-003
1.209200e+003,-6.889755e-003
1.211128e+003,-7.016241e-003
1.213057e+003,-7.037302e-003
1.214985e+003,-7.045811e-003
1.216914e+003,-7.048451e-003
1.218842e+003,-7.002808e-003
1.220771e+003,-6.935997e-003
1.222699e+003,-6.880363e-003
1.224628e+003,-6.863338e-003
1.226557e+003,-6.907953e-003
1.228485e+003,-6.881700e-003
1.230414e+003,-6.884700e-003
1.232342e+003,-6.857272e-003
1.234271e+003,-6.770997e-003
1.236199e+003,-6.674133e-003
1.238128e+003,-6.614745e-003
1.240056e+003,-6.641633e-003
1.241985e+003,-6.623458e-003
1.243913e+003,-6.600843e-003
1.245842e+003,-6.604334e-003
1.247771e+003,-6.639741e-003
1.249699e+003,-6.719680e-003
1.251628e+003,-6.806520e-003
1.253556e+003,-6.763657e-003
1.255485e+003,-6.675405e-003
1.257413e+003,-6.613276e-003
1.259342e+003,-6.485269e-003
1.261270e+003,-6.387721e-003
1.263199e+003,-6.303639e-003
1.265127e+003,-6.243906e-003
1.267056e+003,-6.266245e-003
1.268985e+003,-6.331853e-003
1.270913e+003,-6.414983e-003
1.272842e+003,-6.461276e-003
1.274770e+003,-6.429120e-003
1.276699e+003,-6.418248e-003
1.278627e+003,-6.413090e-003
1.280556e+003,-6.430687e-003
1.282484e+003,-6.431960e-003
1.284413e+003,-6.411751e-003
1.286342e+003,-6.352066e-003
1.288270e+003,-6.273692e-003
1.290199e+003,-6.187137e-003
1.292127e+003,-6.155842e-003
1.294056e+003,-6.103538e-003
1.295984e+003,-6.054006e-003
1.297913e+003,-6.026426e-003
1.299841e+003,-6.015055e-003
1.301770e+003,-5.996820e-003
1.303698e+003,-5.971688e-003
1.305627e+003,-6.011689e-003
1.307556e+003,-5.971296e-003
1.309484e+003,-5.818418e-003
1.311413e+003,-5.807792e-003
1.313341e+003,-5.912302e-003
1.315270e+003,-6.009793e-003
1.317198e+003,-6.123631e-003
1.319127e+003,-6.171686e-003
1.321055e+003,-6.228163e-003
1.322984e+003,-6.281954e-003
1.324912e+003,-6.299426e-003
1.326841e+003,-6.370906e-003
1.328770e+003,-6.438032e-003
1.330698e+003,-6.455074e-003
1.332627e+003,-6.374204e-003
1.334555e+003,-6.226889e-003
1.336484e+003,-6.080929e-003
1.338412e+003,-5.917630e-003
1.340341e+003,-5.685238e-003
1.342269e+003,-5.453442e-003
1.344198e+003,-5.237596e-003
1.346126e+003,-4.996914e-003
1.348055e+003,-4.795325e-003
1.349984e+003,-4.740432e-003
1.351912e+003,-4.770157e-003
1.353841e+003,-4.811940e-003
1.355769e+003,-4.820820e-003
1.357698e+003,-4.806992e-003
1.359626e+003,-4.724602e-003
1.361555e+003,-4.559414e-003
1.363483e+003,-4.243945e-003
1.365412e+003,-3.969847e-003
1.367341e+003,-3.742323e-003
1.369269e+003,-3.628812e-003
1.371198e+003,-3.794354e-003
1.373126e+003,-4.026413e-003
1.375055e+003,-3.967023e-003
1.376983e+003,-3.820959e-003
1.378912e+003,-3.930348e-003
1.380840e+003,-4.340040e-003
1.382769e+003,-4.779333e-003
1.384698e+003,-5.061993e-003
1.386626e+003,-5.150115e-003
1.388555e+003,-5.105483e-003
1.390483e+003,-5.063336e-003
1.392412e+003,-5.018466e-003
1.394340e+003,-4.850606e-003
1.396269e+003,-4.675370e-003
1.398197e+003,-4.543381e-003
1.400126e+003,-4.462253e-003
1.402054e+003,-4.372122e-003
1.403983e+003,-4.186520e-003
1.405911e+003,-3.987182e-003
1.407840e+003,-3.794978e-003
1.409769e+003,-3.556420e-003
1.411697e+003,-3.299020e-003
1.413626e+003,-2.981909e-003
1.415554e+003,-2.660582e-003
1.417483e+003,-2.303225e-003
1.419411e+003,-2.073441e-003
1.421340e+003,-1.992213e-003
1.423268e+003,-1.838158e-003
1.425197e+003,-1.569767e-003
1.427125e+003,-1.223505e-003
1.429054e+003,-6.973752e-004
1.430983e+003,-5.503215e-005
1.432911e+003,5.076450e-004
1.434840e+003,1.006020e-003
1.436768e+003,1.504336e-003
1.438697e+003,1.904440e-003
1.440625e+003,2.220412e-003
1.442554e+003,2.601042e-003
1.444482e+003,3.081571e-003
1.446411e+003,3.707843e-003
1.448340e+003,4.543230e-003
1.450268e+003,5.794262e-003
1.452197e+003,7.771425e-003
1.454125e+003,1.048820e-002
1.456054e+003,1.370822e-002
1.457982e+003,1.921256e-002
1.459911e+003,3.255903e-002
1.461839e+003,4.539685e-002
1.463768e+003,3.867549e-002
1.465697e+003,2.700844e-002
1.467625e+003,2.525937e-002
1.469554e+003,3.138774e-002
1.471482e+003,4.498046e-002
1.473411e+003,4.424949e-002
1.475339e+003,2.071138e-002
1.477268e+003,3.046400e-003
1.479196e+003,-2.882847e-003
1.481125e+003,-5.123559e-003
1.483053e+003,-6.292568e-003
1.484982e+003,-6.932736e-003
1.486911e+003,-7.379222e-003
1.488839e+003,-7.679207e-003
1.490768e+003,-7.837842e-003
1.492696e+003,-7.983083e-003
1.494625e+003,-8.039455e-003
1.496553e+003,-8.010538e-003
1.498482e+003,-8.010896e-003
1.500410e+003,-8.031226e-003
1.502339e+003,-8.026444e-003
1.504267e+003,-8.030185e-003
1.506196e+003,-8.034478e-003
1.508125e+003,-7.910762e-003
1.510053e+003,-7.726927e-003
1.511982e+003,-7.549918e-003
1.513910e+003,-7.365931e-003
1.515839e+003,-7.210903e-003
1.517767e+003,-7.010307e-003
1.519696e+003,-6.863795e-003
1.521624e+003,-6.740364e-003
1.523553e+003,-6.562887e-003
1.525481e+003,-6.382464e-003
1.527410e+003,-6.163422e-003
1.529339e+003,-5.849932e-003
1.531267e+003,-5.430799e-003
1.533196e+003,-4.896541e-003
1.535124e+003,-4.252509e-003
1.537053e+003,-3.624048e-003
1.538981e+003,-3.118815e-003
1.540910e+003,-2.952785e-003
1.542838e+003,-3.144967e-003
1.544767e+003,-3.343640e-003
1.546696e+003,-3.565654e-003
1.548624e+003,-3.709505e-003
1.550553e+003,-3.785650e-003
1.552481e+003,-3.946141e-003
1.554410e+003,-4.081365e-003
1.556338e+003,-4.145728e-003
1.558267e+003,-4.261860e-003
1.560195e+003,-4.259760e-003
1.562124e+003,-4.145367e-003
1.564052e+003,-3.986722e-003
1.565981e+003,-3.844441e-003
1.567910e+003,-3.643500e-003
1.569838e+003,-3.368628e-003
1.571767e+003,-3.086213e-003
1.573695e+003,-2.850721e-003
1.575624e+003,-2.779021e-003
1.577552e+003,-2.783367e-003
1.579481e+003,-2.934586e-003
1.581409e+003,-3.262189e-003
1.583338e+003,-3.593948e-003
1.585266e+003,-3.856198e-003
1.587195e+003,-3.976938e-003
1.589124e+003,-4.065346e-003
1.591052e+003,-4.144350e-003
1.592981e+003,-4.211755e-003
1.594909e+003,-4.257430e-003
1.596838e+003,-4.258152e-003
1.598766e+003,-4.220976e-003
1.600695e+003,-4.129810e-003
1.602623e+003,-4.005042e-003
1.604552e+003,-3.902436e-003
1.606480e+003,-3.795077e-003
1.608409e+003,-3.679740e-003
1.610338e+003,-3.570485e-003
1.612266e+003,-3.429580e-003
1.614195e+003,-3.232031e-003
1.616123e+003,-2.998922e-003
1.618052e+003,-2.746591e-003
1.619980e+003,-2.535918e-003
1.621909e+003,-2.246730e-003
1.623837e+003,-1.915885e-003
1.625766e+003,-1.567093e-003
1.627695e+003,-1.220367e-003
1.629623e+003,-9.028580e-004
1.631552e+003,-7.013118e-004
1.633480e+003,-4.727972e-004
1.635409e+003,-2.147880e-004
1.637337e+003,8.784722e-005
1.639266e+003,4.377224e-004
1.641194e+003,8.074315e-004
1.643123e+003,1.175529e-003
1.645052e+003,1.535326e-003
1.646980e+003,1.743762e-003
1.648909e+003,1.838551e-003
1.650837e+003,1.801019e-003
1.652766e+003,1.836654e-003
1.654694e+003,2.016174e-003
1.656623e+003,2.001328e-003
1.658551e+003,1.942647e-003
1.660480e+003,1.887468e-003
1.662408e+003,1.708533e-003
1.664337e+003,1.495559e-003
1.666266e+003,1.288870e-003
1.668194e+003,1.005821e-003
1.670123e+003,7.014837e-004
1.672051e+003,4.871779e-004
1.673980e+003,2.825596e-004
1.675908e+003,1.583836e-005
1.677837e+003,-3.759748e-004
1.679765e+003,-7.762990e-004
1.681694e+003,-1.105732e-003
1.683622e+003,-1.507663e-003
1.685551e+003,-1.903086e-003
1.687479e+003,-2.249927e-003
1.689408e+003,-2.603310e-003
1.691337e+003,-2.973517e-003
1.693265e+003,-3.407883e-003
1.695194e+003,-3.879022e-003
1.697122e+003,-4.264681e-003
1.699051e+003,-4.598791e-003
1.700979e+003,-4.895623e-003
1.702908e+003,-5.119498e-003
1.704836e+003,-5.306436e-003
1.706765e+003,-5.427821e-003
1.708694e+003,-5.569519e-003
1.710622e+003,-5.734944e-003
1.712551e+003,-5.892690e-003
1.714479e+003,-5.958125e-003
1.716408e+003,-5.939725e-003
1.718336e+003,-5.887950e-003
1.720265e+003,-5.859511e-003
1.722193e+003,-5.857288e-003
1.724122e+003,-5.779969e-003
1.726051e+003,-5.641185e-003
1.727979e+003,-5.503273e-003
1.729908e+003,-5.223519e-003
1.731836e+003,-4.813840e-003
1.733765e+003,-4.278986e-003
1.735693e+003,-3.546758e-003
1.737622e+003,-2.724004e-003
1.739550e+003,-1.937261e-003
1.741479e+003,-1.247195e-003
1.743407e+003,-7.420321e-004
1.745336e+003,-5.655610e-004
1.747265e+003,-7.646234e-004
1.749193e+003,-1.371536e-003
1.751122e+003,-2.313376e-003
1.753050e+003,-3.370272e-003
1.754979e+003,-4.413221e-003
1.756907e+003,-5.391203e-003
1.758836e+003,-6.233552e-003
1.760764e+003,-6.847650e-003
1.762693e+003,-7.329378e-003
1.764621e+003,-7.696557e-003
1.766550e+003,-7.954358e-003
1.768479e+003,-8.107852e-003
1.770407e+003,-8.209762e-003
1.772336e+003,-8.282813e-003
1.774264e+003,-8.347890e-003
1.776193e+003,-8.310964e-003
1.778121e+003,-8.250630e-003
1.780050e+003,-8.282066e-003
1.781978e+003,-8.367944e-003
1.783907e+003,-8.436809e-003
1.785835e+003,-8.440254e-003
1.787764e+003,-8.462481e-003
1.789693e+003,-8.531494e-003
1.791621e+003,-8.586106e-003
1.793550e+003,-8.511188e-003
1.795478e+003,-8.475544e-003
1.797407e+003,-8.479411e-003
1.799335e+003,-8.478014e-003
1.801264e+003,-8.512390e-003
1.803192e+003,-8.421666e-003
1.805121e+003,-8.370544e-003
1.807049e+003,-8.387185e-003
1.808978e+003,-8.379774e-003
1.810907e+003,-8.413606e-003
1.812835e+003,-8.477201e-003
1.814764e+003,-8.472847e-003
1.816692e+003,-8.380522e-003
1.818621e+003,-8.331833e-003
1.820549e+003,-8.381042e-003
1.822478e+003,-8.392807e-003
1.824406e+003,-8.364499e-003
1.826335e+003,-8.351141e-003
1.828264e+003,-8.379580e-003
1.830192e+003,-8.398755e-003
1.832121e+003,-8.399274e-003
1.834049e+003,-8.382374e-003
1.835978e+003,-8.409934e-003
1.837906e+003,-8.448574e-003
1.839835e+003,-8.475577e-003
1.841763e+003,-8.481490e-003
1.843692e+003,-8.497834e-003
1.845620e+003,-8.469695e-003
1.847549e+003,-8.392709e-003
1.849478e+003,-8.324357e-003
1.851406e+003,-8.331476e-003
1.853335e+003,-8.380392e-003
1.855263e+003,-8.397650e-003
1.857192e+003,-8.368951e-003
1.859120e+003,-8.364174e-003
1.861049e+003,-8.422478e-003
1.862977e+003,-8.462383e-003
1.864906e+003,-8.392515e-003
1.866834e+003,-8.380424e-003
1.868763e+003,-8.430343e-003
1.870692e+003,-8.429238e-003
1.872620e+003,-8.393294e-003
1.874549e+003,-8.338236e-003
1.876477e+003,-8.306284e-003
1.878406e+003,-8.313760e-003
1.880334e+003,-8.317921e-003
1.882263e+003,-8.308429e-003
1.884191e+003,-8.266007e-003
1.886120e+003,-8.229822e-003
1.888048e+003,-8.194188e-003
1.889977e+003,-8.085379e-003
1.891906e+003,-8.000715e-003
1.893834e+003,-8.022931e-003
1.895763e+003,-8.020524e-003
1.897691e+003,-8.015515e-003
1.899620e+003,-8.020687e-003
1.901548e+003,-8.051326e-003
1.903477e+003,-8.089152e-003
1.905405e+003,-8.118520e-003
1.907334e+003,-8.106877e-003
1.909263e+003,-8.038772e-003
1.911191e+003,-8.030607e-003
1.913120e+003,-8.065312e-003
1.915048e+003,-8.054384e-003
1.916977e+003,-8.110584e-003
1.918905e+003,-8.134682e-003
1.920834e+003,-8.133056e-003
1.922762e+003,-8.154453e-003
1.924691e+003,-8.109218e-003
1.926620e+003,-8.081184e-003
1.928548e+003,-8.083201e-003
1.930477e+003,-8.094128e-003
1.932405e+003,-8.088632e-003
1.934334e+003,-8.023452e-003
1.936262e+003,-7.997656e-003
1.938191e+003,-8.078745e-003
1.940119e+003,-8.084176e-003
1.942048e+003,-7.982530e-003
1.943976e+003,-7.926086e-003
1.945905e+003,-7.988515e-003
1.947833e+003,-7.995738e-003
1.949762e+003,-7.924069e-003
1.951691e+003,-7.901652e-003
1.953619e+003,-7.883593e-003
1.955548e+003,-7.942873e-003
1.957476e+003,-7.982823e-003
1.959405e+003,-7.897975e-003
1.961333e+003,-7.853755e-003
1.963262e+003,-7.903408e-003
1.965190e+003,-7.920262e-003
1.967119e+003,-7.908192e-003
1.969047e+003,-7.961418e-003
1.970976e+003,-7.972251e-003
1.972905e+003,-7.940271e-003
1.974833e+003,-7.845522e-003
1.976762e+003,-7.696915e-003
1.978690e+003,-7.680248e-003
1.980619e+003,-7.700952e-003
1.982547e+003,-7.708569e-003
1.984476e+003,-7.688875e-003
1.986404e+003,-7.647629e-003
1.988333e+003,-7.653879e-003
1.990262e+003,-7.670222e-003
1.992190e+003,-7.631253e-003
1.994119e+003,-7.646815e-003
1.996047e+003,-7.604458e-003
1.997976e+003,-7.488532e-003
1.999904e+003,-7.460915e-003
2.001833e+003,-7.487230e-003
2.003761e+003,-7.479934e-003
2.005690e+003,-7.486969e-003
2.007619e+003,-7.527124e-003
2.009547e+003,-7.470783e-003
2.011476e+003,-7.357070e-003
2.013404e+003,-7.269786e-003
2.015333e+003,-7.235148e-003
2.017261e+003,-7.194315e-003
2.019190e+003,-7.152468e-003
2.021118e+003,-7.195423e-003
2.023047e+003,-7.200931e-003
2.024975e+003,-7.137116e-003
2.026904e+003,-7.146503e-003
2.028833e+003,-7.194054e-003
2.030761e+003,-7.244565e-003
2.032690e+003,-7.251180e-003
2.034618e+003,-7.219734e-003
2.036547e+003,-7.265746e-003
2.038475e+003,-7.301587e-003
2.040404e+003,-7.309732e-003
2.042332e+003,-7.303835e-003
2.044261e+003,-7.249714e-003
2.046189e+003,-7.244989e-003
2.048118e+003,-7.257078e-003
2.050046e+003,-7.211001e-003
2.051975e+003,-7.149599e-003
2.053904e+003,-7.157911e-003
2.055832e+003,-7.188514e-003
2.057761e+003,-7.208426e-003
2.059689e+003,-7.198845e-003
2.061618e+003,-7.185874e-003
2.063546e+003,-7.205004e-003
2.065475e+003,-7.216019e-003
2.067403e+003,-7.199757e-003
2.069332e+003,-7.144971e-003
2.071260e+003,-7.107520e-003
2.073189e+003,-7.138713e-003
2.075118e+003,-7.211001e-003
2.077046e+003,-7.201387e-003
2.078975e+003,-7.143178e-003
2.080903e+003,-7.132488e-003
2.082832e+003,-7.165733e-003
2.084760e+003,-7.194478e-003
2.086689e+003,-7.200898e-003
2.088617e+003,-7.141354e-003
2.090546e+003,-7.031075e-003
2.092475e+003,-6.979072e-003
2.094403e+003,-7.018686e-003
2.096332e+003,-7.041736e-003
2.098260e+003,-7.042942e-003
2.100189e+003,-6.982789e-003
2.102117e+003,-6.944769e-003
2.104046e+003,-6.954062e-003
2.105974e+003,-6.936780e-003
2.107903e+003,-6.870122e-003
2.109832e+003,-6.805770e-003
2.111760e+003,-6.798724e-003
2.113688e+003,-6.784567e-003
2.115617e+003,-6.745715e-003
2.117546e+003,-6.758046e-003
2.119474e+003,-6.745094e-003
2.121403e+003,-6.697332e-003
2.123331e+003,-6.666596e-003
2.125260e+003,-6.637065e-003
2.127188e+003,-6.669826e-003
2.129117e+003,-6.699876e-003
2.131045e+003,-6.690153e-003
2.132974e+003,-6.655795e-003
2.134903e+003,-6.616115e-003
2.136831e+003,-6.587005e-003
2.138760e+003,-6.549082e-003
2.140688e+003,-6.514810e-003
2.142617e+003,-6.490721e-003
2.144545e+003,-6.480928e-003
2.146474e+003,-6.485073e-003
2.148402e+003,-6.497543e-003
2.150331e+003,-6.484258e-003
2.152260e+003,-6.437478e-003
2.154188e+003,-6.462125e-003
2.156117e+003,-6.477729e-003
2.158045e+003,-6.403948e-003
2.159974e+003,-6.442309e-003
2.161902e+003,-6.450568e-003
2.163831e+003,-6.443321e-003
2.165759e+003,-6.390627e-003
2.167688e+003,-6.362188e-003
2.169616e+003,-6.403818e-003
2.171545e+003,-6.359935e-003
2.173474e+003,-6.290902e-003
2.175402e+003,-6.306708e-003
2.177331e+003,-6.383150e-003
2.179259e+003,-6.412306e-003
2.181188e+003,-6.381909e-003
2.183116e+003,-6.366008e-003
2.185045e+003,-6.393337e-003
2.186973e+003,-6.436661e-003
2.188902e+003,-6.410641e-003
2.190831e+003,-6.433690e-003
2.192759e+003,-6.475019e-003
2.194688e+003,-6.425039e-003
2.196616e+003,-6.308766e-003
2.198545e+003,-6.262587e-003
2.200473e+003,-6.315591e-003
2.202402e+003,-6.358596e-003
2.204330e+003,-6.409890e-003
2.206259e+003,-6.481124e-003
2.208188e+003,-6.440024e-003
2.210116e+003,-6.358335e-003
2.212044e+003,-6.328098e-003
2.213973e+003,-6.316603e-003
2.215902e+003,-6.343151e-003
2.217830e+003,-6.362678e-003
2.219759e+003,-6.394219e-003
2.221687e+003,-6.379918e-003
2.223616e+003,-6.362057e-003
2.225544e+003,-6.359380e-003
2.227473e+003,-6.369764e-003
2.229401e+003,-6.338613e-003
2.231330e+003,-6.395688e-003
2.233259e+003,-6.493528e-003
2.235187e+003,-6.416550e-003
2.237116e+003,-6.321959e-003
2.239044e+003,-6.346058e-003
2.240973e+003,-6.399932e-003
2.242901e+003,-6.361960e-003
2.244830e+003,-6.323135e-003
2.246758e+003,-6.316832e-003
2.248687e+003,-6.321469e-003
2.250615e+003,-6.298087e-003
2.252544e+003,-6.272843e-003
2.254473e+003,-6.275292e-003
2.256401e+003,-6.319509e-003
2.258330e+003,-6.328000e-003
2.260258e+003,-6.236296e-003
2.262187e+003,-6.228849e-003
2.264115e+003,-6.292666e-003
2.266044e+003,-6.281236e-003
2.267972e+003,-6.258244e-003
2.269901e+003,-6.216535e-003
2.271830e+003,-6.139606e-003
2.273758e+003,-6.095665e-003
2.275687e+003,-6.060900e-003
2.277615e+003,-6.042275e-003
2.279544e+003,-6.028191e-003
2.281472e+003,-5.965479e-003
2.283401e+003,-5.968943e-003
2.285329e+003,-5.959792e-003
2.287258e+003,-5.915080e-003
2.289187e+003,-5.906844e-003
2.291115e+003,-5.938156e-003
2.293043e+003,-5.891023e-003
2.294972e+003,-5.853626e-003
2.296901e+003,-5.842119e-003
2.298829e+003,-5.848069e-003
2.300758e+003,-5.844113e-003
2.302686e+003,-5.864545e-003
2.304615e+003,-5.827833e-003
2.306543e+003,-5.748024e-003
2.308472e+003,-5.739097e-003
2.310400e+003,-5.743904e-003
2.312329e+003,-5.762705e-003
2.314258e+003,-5.748122e-003
2.316186e+003,-5.662869e-003
2.318115e+003,-5.588230e-003
2.320043e+003,-5.521724e-003
2.321972e+003,-5.452918e-003
2.323900e+003,-5.435249e-003
2.325829e+003,-5.499445e-003
2.327757e+003,-5.500819e-003
2.329686e+003,-5.458514e-003
2.331615e+003,-5.427625e-003
2.333543e+003,-5.438816e-003
2.335472e+003,-5.457172e-003
2.337400e+003,-5.477556e-003
2.339329e+003,-5.460640e-003
2.341257e+003,-5.366789e-003
2.343186e+003,-5.303360e-003
2.345114e+003,-5.311706e-003
2.347043e+003,-5.320183e-003
2.348971e+003,-5.302083e-003
2.350900e+003,-5.371077e-003
2.352829e+003,-5.456910e-003
2.354757e+003,-5.480436e-003
2.356686e+003,-5.476346e-003
2.358614e+003,-5.538246e-003
2.360543e+003,-5.588491e-003
2.362471e+003,-5.556238e-003
2.364400e+003,-5.518780e-003
2.366328e+003,-5.447814e-003
2.368257e+003,-5.411001e-003
2.370186e+003,-5.396275e-003
2.372114e+003,-5.378080e-003
2.374042e+003,-5.465876e-003
2.375971e+003,-5.487536e-003
2.377900e+003,-5.404293e-003
2.379828e+003,-5.344796e-003
2.381757e+003,-5.314357e-003
2.383685e+003,-5.277435e-003
2.385614e+003,-5.230722e-003
2.387542e+003,-5.176603e-003
2.389471e+003,-5.103125e-003
2.391399e+003,-5.097853e-003
2.393328e+003,-5.207804e-003
2.395257e+003,-5.265553e-003
2.397185e+003,-5.192122e-003
2.399114e+003,-5.137017e-003
2.401042e+003,-5.161411e-003
2.402971e+003,-5.178666e-003
2.404899e+003,-5.152014e-003
2.406828e+003,-5.078892e-003
2.408756e+003,-5.016042e-003
2.410685e+003,-5.041589e-003
2.412614e+003,-5.015748e-003
2.414542e+003,-4.875015e-003
2.416471e+003,-4.884713e-003
2.418399e+003,-4.966614e-003
2.420328e+003,-4.951316e-003
2.422256e+003,-4.937034e-003
2.424185e+003,-4.986203e-003
2.426113e+003,-4.991083e-003
2.428042e+003,-4.938704e-003
2.429970e+003,-4.885106e-003
2.431899e+003,-4.900177e-003
2.433828e+003,-4.963240e-003
2.435756e+003,-5.011915e-003
2.437685e+003,-4.996750e-003
2.439613e+003,-4.975033e-003
2.441542e+003,-4.992132e-003
2.443470e+003,-4.975393e-003
2.445399e+003,-4.958556e-003
2.447327e+003,-5.019874e-003
2.449256e+003,-5.001729e-003
2.451185e+003,-4.918065e-003
2.453113e+003,-4.888284e-003
2.455042e+003,-4.817183e-003
2.456970e+003,-4.742824e-003
2.458899e+003,-4.747085e-003
2.460827e+003,-4.776581e-003
2.462756e+003,-4.776351e-003
2.464684e+003,-4.710672e-003
2.466613e+003,-4.649670e-003
2.468542e+003,-4.642491e-003
2.470470e+003,-4.611446e-003
2.472398e+003,-4.599348e-003
2.474327e+003,-4.581021e-003
2.476256e+003,-4.583415e-003
2.478184e+003,-4.636820e-003
2.480113e+003,-4.662258e-003
2.482041e+003,-4.613052e-003
2.483970e+003,-4.607708e-003
2.485898e+003,-4.580398e-003
2.487827e+003,-4.518887e-003
2.489755e+003,-4.559414e-003
2.491684e+003,-4.579218e-003
2.493613e+003,-4.556431e-003
2.495541e+003,-4.616003e-003
2.497470e+003,-4.644196e-003
2.499398e+003,-4.655079e-003
2.501327e+003,-4.662324e-003
2.503255e+003,-4.586595e-003
2.505184e+003,-4.519903e-003
2.507112e+003,-4.431522e-003
2.509041e+003,-4.376714e-003
2.510969e+003,-4.362281e-003
2.512898e+003,-4.296112e-003
2.514827e+003,-4.282825e-003
2.516755e+003,-4.322489e-003
2.518684e+003,-4.296342e-003
2.520612e+003,-4.283547e-003
2.522541e+003,-4.276099e-003
2.524469e+003,-4.263992e-003
2.526398e+003,-4.216185e-003
2.528326e+003,-4.161875e-003
2.530255e+003,-4.182779e-003
2.532184e+003,-4.136998e-003
2.534112e+003,-4.089308e-003
2.536041e+003,-4.124329e-003
2.537969e+003,-4.157674e-003
2.539898e+003,-4.181204e-003
2.541826e+003,-4.133683e-003
2.543755e+003,-4.034588e-003
2.545683e+003,-3.984063e-003
2.547612e+003,-3.993486e-003
2.549541e+003,-3.981634e-003
2.551469e+003,-3.942201e-003
2.553397e+003,-3.930282e-003
2.555326e+003,-3.872553e-003
2.557255e+003,-3.795372e-003
2.559183e+003,-3.809561e-003
2.561112e+003,-3.829629e-003
2.563040e+003,-3.784763e-003
2.564969e+003,-3.741338e-003
2.566897e+003,-3.708914e-003
2.568826e+003,-3.626808e-003
2.570754e+003,-3.554875e-003
2.572683e+003,-3.601309e-003
2.574612e+003,-3.692882e-003
2.576540e+003,-3.686738e-003
2.578469e+003,-3.546626e-003
2.580397e+003,-3.441677e-003
2.582326e+003,-3.448120e-003
2.584254e+003,-3.428791e-003
2.586183e+003,-3.396442e-003
2.588111e+003,-3.364420e-003
2.590040e+003,-3.265741e-003
2.591969e+003,-3.235780e-003
2.593897e+003,-3.240746e-003
2.595826e+003,-3.248475e-003
2.597754e+003,-3.178782e-003
2.599683e+003,-3.083449e-003
2.601611e+003,-3.073250e-003
2.603540e+003,-3.045613e-003
2.605468e+003,-2.951831e-003
2.607397e+003,-2.888936e-003
2.609325e+003,-2.847330e-003
2.611254e+003,-2.827513e-003
2.613183e+003,-2.761143e-003
2.615111e+003,-2.603804e-003
2.617040e+003,-2.540266e-003
2.618968e+003,-2.552025e-003
2.620897e+003,-2.475960e-003
2.622825e+003,-2.324746e-003
2.624754e+003,-2.267595e-003
2.626682e+003,-2.223853e-003
2.628611e+003,-2.142257e-003
2.630540e+003,-2.115253e-003
2.632468e+003,-2.082741e-003
2.634396e+003,-1.982747e-003
2.636325e+003,-1.884941e-003
2.638254e+003,-1.901931e-003
2.640182e+003,-1.976019e-003
2.642111e+003,-1.987332e-003
2.644039e+003,-1.968466e-003
2.645968e+003,-1.942374e-003
2.647896e+003,-1.943990e-003
2.649825e+003,-1.892430e-003
2.651753e+003,-1.754279e-003
2.653682e+003,-1.703423e-003
2.655611e+003,-1.706624e-003
2.657539e+003,-1.679197e-003
2.659468e+003,-1.606874e-003
2.661396e+003,-1.559929e-003
2.663325e+003,-1.569767e-003
2.665253e+003,-1.629619e-003
2.667182e+003,-1.699495e-003
2.669110e+003,-1.773188e-003
2.671039e+003,-1.783154e-003
2.672968e+003,-1.779359e-003
2.674896e+003,-1.763816e-003
2.676825e+003,-1.725799e-003
2.678753e+003,-1.793812e-003
2.680682e+003,-1.827072e-003
2.682610e+003,-1.751837e-003
2.684539e+003,-1.681705e-003
2.686467e+003,-1.641634e-003
2.688396e+003,-1.629685e-003
2.690324e+003,-1.660911e-003
2.692253e+003,-1.681969e-003
2.694182e+003,-1.598159e-003
2.696110e+003,-1.502049e-003
2.698039e+003,-1.445846e-003
2.699967e+003,-1.389801e-003
2.701896e+003,-1.282711e-003
2.703824e+003,-1.210190e-003
2.705753e+003,-1.169447e-003
2.707681e+003,-1.102493e-003
2.709610e+003,-1.093536e-003
2.711539e+003,-1.059559e-003
2.713467e+003,-9.414766e-004
2.715396e+003,-8.485946e-004
2.717324e+003,-7.618120e-004
2.719253e+003,-7.111697e-004
2.721181e+003,-7.309841e-004
2.723110e+003,-6.620103e-004
2.725038e+003,-5.790950e-004
2.726967e+003,-5.074826e-004
2.728896e+003,-3.967976e-004
2.730824e+003,-3.550517e-004
2.732752e+003,-3.571375e-004
2.734681e+003,-2.725082e-004
2.736610e+003,-2.033291e-004
2.738538e+003,-1.791851e-004
2.740467e+003,-1.104548e-004
2.742395e+003,3.711028e-006
2.744324e+003,7.091263e-005
2.746252e+003,8.735011e-005
2.748181e+003,1.808501e-004
2.750109e+003,2.923406e-004
2.752038e+003,3.443329e-004
2.753967e+003,4.370922e-004
2.755895e+003,5.513357e-004
2.757824e+003,6.261544e-004
2.759752e+003,7.730420e-004
2.761681e+003,8.913915e-004
2.763609e+003,9.248273e-004
2.765538e+003,1.000507e-003
2.767466e+003,1.171077e-003
2.769395e+003,1.378840e-003
2.771323e+003,1.539914e-003
2.773252e+003,1.737508e-003
2.775181e+003,1.996002e-003
2.777109e+003,2.213385e-003
2.779038e+003,2.317903e-003
2.780966e+003,2.526149e-003
2.782895e+003,2.795484e-003
2.784823e+003,3.111705e-003
2.786752e+003,3.406249e-003
2.788680e+003,3.640744e-003
2.790609e+003,3.869684e-003
2.792538e+003,4.196791e-003
2.794466e+003,4.569582e-003
2.796395e+003,4.890784e-003
2.798323e+003,5.203672e-003
2.800252e+003,5.561688e-003
2.802180e+003,5.889402e-003
2.804109e+003,6.232791e-003
2.806037e+003,6.614567e-003
2.807966e+003,6.981863e-003
2.809895e+003,7.491739e-003
2.811823e+003,8.136866e-003
2.813751e+003,8.720406e-003
2.815680e+003,9.336147e-003
2.817609e+003,1.010538e-002
2.819537e+003,1.089433e-002
2.821466e+003,1.188820e-002
2.823394e+003,1.310705e-002
2.825323e+003,1.438071e-002
2.827251e+003,1.589935e-002
2.829180e+003,1.783736e-002
2.831108e+003,2.017507e-002
2.833037e+003,2.301340e-002
2.834966e+003,2.675443e-002
2.836894e+003,3.199591e-002
2.838823e+003,3.927354e-002
2.840751e+003,4.974973e-002
2.842680e+003,6.548410e-002
2.844608e+003,8.848363e-002
2.846537e+003,1.155211e-001
2.848465e+003,1.288791e-001
2.850394e+003,1.131681e-001
2.852323e+003,8.369464e-002
2.854251e+003,5.990962e-002
2.856180e+003,4.430409e-002
2.858108e+003,3.387335e-002
2.860037e+003,2.663027e-002
2.861965e+003,2.162226e-002
2.863894e+003,1.849764e-002
2.865822e+003,1.681544e-002
2.867751e+003,1.619303e-002
2.869679e+003,1.647587e-002
2.871608e+003,1.739352e-002
2.873537e+003,1.865101e-002
2.875465e+003,2.038508e-002
2.877394e+003,2.262029e-002
2.879322e+003,2.518232e-002
2.881251e+003,2.797949e-002
2.883179e+003,3.092927e-002
2.885108e+003,3.406590e-002
2.887036e+003,3.731824e-002
2.888965e+003,4.055016e-002
2.890894e+003,4.370769e-002
2.892822e+003,4.670439e-002
2.894750e+003,4.963312e-002
2.896679e+003,5.263327e-002
2.898608e+003,5.575675e-002
2.900536e+003,5.918702e-002
2.902465e+003,6.334990e-002
2.904393e+003,6.878281e-002
2.906322e+003,7.613402e-002
2.908250e+003,8.636442e-002
2.910179e+003,1.003743e-001
2.912107e+003,1.182083e-001
2.914036e+003,1.363061e-001
2.915965e+003,1.460938e-001
2.917893e+003,1.409223e-001
2.919822e+003,1.240436e-001
2.921750e+003,1.040074e-001
2.923679e+003,8.598973e-002
2.925607e+003,7.145549e-002
2.927536e+003,5.991194e-002
2.929464e+003,5.025411e-002
2.931393e+003,4.193866e-002
2.933322e+003,3.488833e-002
2.935250e+003,2.881699e-002
2.937179e+003,2.364549e-002
2.939107e+003,1.925395e-002
2.941036e+003,1.543183e-002
2.942964e+003,1.211564e-002
2.944893e+003,9.432878e-003
2.946821e+003,7.664911e-003
2.948750e+003,6.668197e-003
2.950678e+003,6.095839e-003
2.952607e+003,5.631132e-003
2.954536e+003,5.163400e-003
2.956464e+003,4.709536e-003
2.958393e+003,4.110317e-003
2.960321e+003,3.387581e-003
2.962250e+003,2.648978e-003
2.964178e+003,1.896320e-003
2.966107e+003,1.237894e-003
2.968035e+003,5.511367e-004
2.969964e+003,-1.129393e-004
2.971893e+003,-5.837937e-004
2.973821e+003,-9.592968e-004
2.975750e+003,-1.392443e-003
2.977678e+003,-1.799685e-003
2.979607e+003,-2.077498e-003
2.981535e+003,-2.296534e-003
2.983464e+003,-2.485449e-003
2.985392e+003,-2.695620e-003
2.987321e+003,-2.850194e-003
2.989250e+003,-2.961177e-003
2.991178e+003,-3.129144e-003
2.993106e+003,-3.283104e-003
2.995035e+003,-3.228545e-003
2.996964e+003,-3.161612e-003
2.998892e+003,-3.169012e-003
3.000821e+003,-3.100918e-003
3.002749e+003,-2.982041e-003
3.004678e+003,-2.928826e-003
3.006606e+003,-2.915464e-003
3.008535e+003,-2.916813e-003
3.010463e+003,-2.849338e-003
3.012392e+003,-2.935145e-003
3.014321e+003,-3.019784e-003
3.016249e+003,-3.049726e-003
3.018178e+003,-3.142401e-003
3.020106e+003,-3.287116e-003
3.022035e+003,-3.425963e-003
3.023963e+003,-3.507943e-003
3.025892e+003,-3.512610e-003
3.027820e+003,-3.531771e-003
3.029749e+003,-3.571471e-003
3.031677e+003,-3.536142e-003
3.033606e+003,-3.460677e-003
3.035535e+003,-3.546363e-003
3.037463e+003,-3.674812e-003
3.039392e+003,-3.669062e-003
3.041320e+003,-3.645241e-003
3.043249e+003,-3.726095e-003
3.045177e+003,-3.690845e-003
3.047106e+003,-3.547481e-003
3.049034e+003,-3.507285e-003
3.050963e+003,-3.471064e-003
3.052892e+003,-3.508863e-003
3.054820e+003,-3.544654e-003
3.056749e+003,-3.559509e-003
3.058677e+003,-3.554974e-003
3.060606e+003,-3.512051e-003
3.062534e+003,-3.467941e-003
3.064463e+003,-3.486677e-003
3.066391e+003,-3.439803e-003
3.068320e+003,-3.366129e-003
3.070249e+003,-3.349032e-003
3.072177e+003,-3.391511e-003
3.074105e+003,-3.441578e-003
3.076034e+003,-3.411137e-003
3.077963e+003,-3.333776e-003
3.079891e+003,-3.281197e-003
3.081820e+003,-3.189110e-003
3.083748e+003,-3.282347e-003
3.085677e+003,-3.351334e-003
3.087605e+003,-3.260709e-003
3.089534e+003,-3.241536e-003
3.091462e+003,-3.275047e-003
3.093391e+003,-3.307142e-003
3.095320e+003,-3.293725e-003
3.097248e+003,-3.291785e-003
3.099177e+003,-3.332592e-003
3.101105e+003,-3.368332e-003
3.103034e+003,-3.341010e-003
3.104962e+003,-3.379083e-003
3.106891e+003,-3.496340e-003
3.108819e+003,-3.509487e-003
3.110748e+003,-3.420375e-003
3.112677e+003,-3.371587e-003
3.114605e+003,-3.346796e-003
3.116534e+003,-3.335913e-003
3.118462e+003,-3.298724e-003
3.120391e+003,-3.295534e-003
3.122319e+003,-3.313718e-003
3.124248e+003,-3.245647e-003
3.126176e+003,-3.040151e-003
3.128105e+003,-2.978717e-003
3.130033e+003,-3.037157e-003
3.131962e+003,-3.036235e-003
3.133891e+003,-3.070947e-003
3.135819e+003,-2.968680e-003
3.137748e+003,-2.845454e-003
3.139676e+003,-2.840944e-003
3.141605e+003,-2.815827e-003
3.143533e+003,-2.740730e-003
3.145462e+003,-2.725979e-003
3.147390e+003,-2.662788e-003
3.149319e+003,-2.593429e-003
3.151248e+003,-2.554397e-003
3.153176e+003,-2.585425e-003
3.155104e+003,-2.585129e-003
3.157033e+003,-2.531339e-003
3.158962e+003,-2.470459e-003
3.160890e+003,-2.398268e-003
3.162819e+003,-2.360800e-003
3.164747e+003,-2.287372e-003
3.166676e+003,-2.183008e-003
3.168604e+003,-2.065659e-003
3.170533e+003,-1.961077e-003
3.172461e+003,-1.891803e-003
3.174390e+003,-1.748735e-003
3.176319e+003,-1.697020e-003
3.178247e+003,-1.634405e-003
3.180176e+003,-1.553029e-003
3.182104e+003,-1.611661e-003
3.184033e+003,-1.688867e-003
3.185961e+003,-1.512583e-003
3.187890e+003,-1.359612e-003
3.189818e+003,-1.359943e-003
3.191747e+003,-1.368564e-003
3.193676e+003,-1.372428e-003
3.195604e+003,-1.342601e-003
3.197532e+003,-1.334607e-003
3.199461e+003,-1.320866e-003
3.201390e+003,-1.272238e-003
3.203318e+003,-1.230180e-003
3.205247e+003,-1.199055e-003
3.207175e+003,-1.178535e-003
3.209104e+003,-1.195255e-003
3.211032e+003,-1.140367e-003
3.212961e+003,-9.871993e-004
3.214889e+003,-9.149267e-004
3.216818e+003,-9.281192e-004
3.218747e+003,-9.872654e-004
3.220675e+003,-9.303674e-004
3.222604e+003,-8.116877e-004
3.224532e+003,-8.279258e-004
3.226461e+003,-8.492560e-004
3.228389e+003,-7.682948e-004
3.230318e+003,-7.677325e-004
3.232246e+003,-7.660788e-004
3.234175e+003,-6.848043e-004
3.236104e+003,-6.110586e-004
3.238032e+003,-6.684946e-004
3.239961e+003,-6.442441e-004
3.241889e+003,-4.705466e-004
3.243818e+003,-4.351301e-004
3.245746e+003,-4.742204e-004
3.247675e+003,-3.188974e-004
3.249603e+003,-2.676405e-004
3.251532e+003,-3.370743e-004
3.253460e+003,-2.742632e-004
3.255389e+003,-1.672947e-004
3.257318e+003,-5.224924e-005
3.259246e+003,2.206783e-005
3.261175e+003,2.634236e-005
3.263103e+003,6.749928e-005
3.265032e+003,2.224526e-004
3.266960e+003,3.370045e-004
3.268889e+003,3.252993e-004
3.270817e+003,3.655228e-004
3.272746e+003,4.816715e-004
3.274675e+003,4.914569e-004
3.276603e+003,4.805437e-004
3.278531e+003,4.811076e-004
3.280460e+003,4.824012e-004
3.282389e+003,4.639918e-004
3.284317e+003,4.595803e-004
3.286246e+003,5.809630e-004
3.288174e+003,6.539284e-004
3.290103e+003,5.970217e-004
3.292031e+003,6.103933e-004
3.293960e+003,6.802109e-004
3.295888e+003,7.475173e-004
3.297817e+003,7.802782e-004
3.299746e+003,8.406948e-004
3.301674e+003,9.261555e-004
3.303603e+003,8.032488e-004
3.305531e+003,6.842929e-004
3.307460e+003,6.541607e-004
3.309388e+003,6.385313e-004
3.311317e+003,6.484863e-004
3.313245e+003,6.713836e-004
3.315174e+003,7.878132e-004
3.317103e+003,9.999759e-004
3.319031e+003,9.216064e-004
3.320960e+003,7.205006e-004
3.322888e+003,7.537905e-004
3.324817e+003,8.560327e-004
3.326745e+003,9.002233e-004
3.328674e+003,9.259562e-004
3.330602e+003,7.777223e-004
3.332531e+003,6.825672e-004
3.334459e+003,8.431515e-004
3.336388e+003,9.104167e-004
3.338317e+003,7.482475e-004
3.340245e+003,6.734411e-004
3.342174e+003,8.097551e-004
3.344102e+003,8.242288e-004
3.346031e+003,7.175800e-004
3.347959e+003,6.322599e-004
3.349888e+003,7.515998e-004
3.351816e+003,8.975671e-004
3.353745e+003,7.514007e-004
3.355674e+003,6.526675e-004
3.357602e+003,6.387968e-004
3.359531e+003,6.680983e-004
3.361459e+003,7.810749e-004
3.363388e+003,8.116141e-004
3.365316e+003,8.144358e-004
3.367245e+003,9.046393e-004
3.369173e+003,7.614247e-004
3.371102e+003,5.986475e-004
3.373031e+003,6.774234e-004
3.374959e+003,7.559148e-004
3.376887e+003,6.916271e-004
3.378816e+003,6.679987e-004
3.380745e+003,7.145598e-004
3.382673e+003,7.003222e-004
3.384602e+003,7.358010e-004
3.386530e+003,8.625066e-004
3.388459e+003,1.026014e-003
3.390387e+003,1.065538e-003
3.392316e+003,9.305053e-004
3.394244e+003,7.288643e-004
3.396173e+003,7.355355e-004
3.398102e+003,7.345398e-004
3.400030e+003,6.829322e-004
3.401959e+003,6.953108e-004
3.403887e+003,7.053335e-004
3.405816e+003,7.116060e-004
3.407744e+003,7.346062e-004
3.409673e+003,6.773570e-004
3.411601e+003,6.391287e-004
3.413530e+003,5.658339e-004
3.415458e+003,4.614377e-004
3.417387e+003,4.579218e-004
3.419316e+003,3.853541e-004
3.421244e+003,3.225139e-004
3.423173e+003,3.990509e-004
3.425101e+003,4.450524e-004
3.427030e+003,4.404089e-004
3.428958e+003,4.304919e-004
3.430887e+003,3.557402e-004
3.432815e+003,3.898644e-004
3.434744e+003,4.079058e-004
3.436673e+003,2.681703e-004
3.438601e+003,3.088196e-004
3.440530e+003,2.556049e-004
3.442458e+003,6.736672e-005
3.444387e+003,9.414401e-005
3.446315e+003,2.559696e-004
3.448244e+003,2.222206e-004
3.450172e+003,7.429287e-005
3.452101e+003,7.885973e-006
3.454030e+003,5.387929e-005
3.455958e+003,1.289437e-004
3.457886e+003,-1.878659e-005
3.459815e+003,-1.076723e-004
3.461744e+003,-8.915455e-005
3.463672e+003,-6.599799e-005
3.465601e+003,-1.486801e-004
3.467529e+003,-3.845821e-004
3.469458e+003,-4.509520e-004
3.471386e+003,-4.805752e-004
3.473315e+003,-5.544754e-004
3.475243e+003,-5.439852e-004
3.477172e+003,-4.798801e-004
3.479101e+003,-3.836221e-004
3.481029e+003,-4.236439e-004
3.482958e+003,-5.399479e-004
3.484886e+003,-6.012315e-004
3.486815e+003,-6.194296e-004
3.488743e+003,-6.810330e-004
3.490672e+003,-8.098356e-004
3.492600e+003,-8.763389e-004
3.494529e+003,-1.047594e-003
3.496458e+003,-1.126388e-003
3.498386e+003,-9.829017e-004
3.500315e+003,-9.256394e-004
3.502243e+003,-9.788353e-004
3.504172e+003,-1.060551e-003
3.506100e+003,-1.265135e-003
3.508029e+003,-1.380950e-003
3.509957e+003,-1.178799e-003
3.511886e+003,-1.087158e-003
3.513814e+003,-1.298733e-003
3.515743e+003,-1.241413e-003
3.517672e+003,-1.077804e-003
3.519600e+003,-1.164193e-003
3.521529e+003,-1.346202e-003
3.523457e+003,-1.449512e-003
3.525386e+003,-1.507630e-003
3.527314e+003,-1.537478e-003
3.529243e+003,-1.622092e-003
3.531171e+003,-1.707944e-003
3.533100e+003,-1.701112e-003
3.535029e+003,-1.642459e-003
3.536957e+003,-1.761209e-003
3.538885e+003,-1.797046e-003
3.540814e+003,-1.742036e-003
3.542743e+003,-1.807638e-003
3.544671e+003,-1.931752e-003
3.546600e+003,-1.932016e-003
3.548528e+003,-1.798762e-003
3.550457e+003,-1.760912e-003
3.552385e+003,-1.952798e-003
3.554314e+003,-2.159303e-003
3.556242e+003,-2.058107e-003
3.558171e+003,-1.950818e-003
3.560100e+003,-2.124914e-003
3.562028e+003,-2.213238e-003
3.563957e+003,-2.061900e-003
3.565885e+003,-2.101668e-003
3.567814e+003,-2.308630e-003
3.569742e+003,-2.372136e-003
3.571671e+003,-2.405945e-003
3.573599e+003,-2.467559e-003
3.575528e+003,-2.534336e-003
3.577457e+003,-2.448516e-003
3.579385e+003,-2.451975e-003
3.581314e+003,-2.540496e-003
3.583242e+003,-2.633511e-003
3.585171e+003,-2.774115e-003
3.587099e+003,-2.675895e-003
3.589028e+003,-2.559305e-003
3.590956e+003,-2.692261e-003
3.592885e+003,-2.805358e-003
3.594813e+003,-2.744582e-003
3.596742e+003,-2.836467e-003
3.598671e+003,-2.848844e-003
3.600599e+003,-2.801013e-003
3.602528e+003,-2.833439e-003
3.604456e+003,-2.883900e-003
3.606385e+003,-2.809868e-003
3.608313e+003,-2.790675e-003
3.610242e+003,-2.949000e-003
3.612170e+003,-3.059596e-003
3.614099e+003,-3.157763e-003
3.616028e+003,-3.253211e-003
3.617956e+003,-3.208186e-003
3.619885e+003,-3.152763e-003
3.621813e+003,-3.167269e-003
3.623742e+003,-3.283301e-003
3.625670e+003,-3.452689e-003
3.627599e+003,-3.526184e-003
3.629527e+003,-3.487860e-003
3.631456e+003,-3.475797e-003
3.633385e+003,-3.551786e-003
3.635313e+003,-3.644026e-003
3.637241e+003,-3.732140e-003
3.639170e+003,-3.730103e-003
3.641099e+003,-3.793237e-003
3.643027e+003,-3.897511e-003
3.644956e+003,-3.846740e-003
3.646884e+003,-3.855903e-003
3.648813e+003,-3.927425e-003
3.650741e+003,-3.883292e-003
3.652670e+003,-3.907493e-003
3.654598e+003,-4.067250e-003
3.656527e+003,-4.001398e-003
3.658456e+003,-3.842701e-003
3.660384e+003,-3.962394e-003
3.662313e+003,-4.196890e-003
3.664241e+003,-4.075555e-003
3.666170e+003,-3.871141e-003
3.668098e+003,-3.959997e-003
3.670027e+003,-4.097054e-003
3.671955e+003,-4.158888e-003
3.673884e+003,-4.279019e-003
3.675813e+003,-4.303527e-003
3.677741e+003,-4.217301e-003
3.679670e+003,-4.126955e-003
3.681598e+003,-4.118454e-003
3.683527e+003,-4.174083e-003
3.685455e+003,-4.354178e-003
3.687384e+003,-4.545873e-003
3.689312e+003,-4.379141e-003
3.691241e+003,-4.099352e-003
3.693169e+003,-4.098860e-003
3.695098e+003,-4.209721e-003
3.697027e+003,-4.271703e-003
3.698955e+003,-4.306972e-003
3.700884e+003,-4.375336e-003
3.702812e+003,-4.430178e-003
3.704741e+003,-4.462417e-003
3.706669e+003,-4.480454e-003
3.708598e+003,-4.371400e-003
3.710526e+003,-4.293389e-003
3.712455e+003,-4.258874e-003
3.714384e+003,-4.275640e-003
3.716312e+003,-4.305069e-003
3.718240e+003,-4.347356e-003
3.720169e+003,-4.422863e-003
3.722098e+003,-4.413122e-003
3.724026e+003,-4.404136e-003
3.725955e+003,-4.434999e-003
3.727883e+003,-4.384324e-003
3.729812e+003,-4.435852e-003
3.731740e+003,-4.487472e-003
3.733669e+003,-4.389539e-003
3.735597e+003,-4.351095e-003
3.737526e+003,-4.385537e-003
3.739455e+003,-4.483471e-003
3.741383e+003,-4.528756e-003
3.743312e+003,-4.521280e-003
3.745240e+003,-4.383045e-003
3.747169e+003,-4.501572e-003
3.749097e+003,-4.630919e-003
3.751026e+003,-4.457169e-003
3.752954e+003,-4.352210e-003
3.754883e+003,-4.457137e-003
3.756812e+003,-4.452939e-003
3.758740e+003,-4.277116e-003
3.760669e+003,-4.234593e-003
3.762597e+003,-4.471796e-003
3.764526e+003,-4.629575e-003
3.766454e+003,-4.595971e-003
3.768383e+003,-4.496654e-003
3.770311e+003,-4.362051e-003
3.772240e+003,-4.369399e-003
3.774168e+003,-4.482618e-003
3.776097e+003,-4.492489e-003
3.778026e+003,-4.488586e-003
3.779954e+003,-4.427521e-003
3.781883e+003,-4.326688e-003
3.783811e+003,-4.347618e-003
3.785740e+003,-4.408235e-003
3.787668e+003,-4.414533e-003
3.789597e+003,-4.365922e-003
3.791525e+003,-4.339318e-003
3.793454e+003,-4.358377e-003
3.795383e+003,-4.345715e-003
3.797311e+003,-4.322358e-003
3.799240e+003,-4.369399e-003
3.801168e+003,-4.261794e-003
3.803097e+003,-4.084647e-003
3.805025e+003,-4.148682e-003
3.806954e+003,-4.098433e-003
3.808882e+003,-4.124165e-003
3.810811e+003,-4.191147e-003
3.812740e+003,-4.225964e-003
3.814668e+003,-4.358377e-003
3.816596e+003,-4.397182e-003
3.818525e+003,-4.377534e-003
3.820454e+003,-4.414074e-003
3.822382e+003,-4.411482e-003
3.824311e+003,-4.426898e-003
3.826239e+003,-4.351718e-003
3.828168e+003,-4.423356e-003
3.830096e+003,-4.494883e-003
3.832025e+003,-4.381339e-003
3.833953e+003,-4.388654e-003
3.835882e+003,-4.568562e-003
3.837811e+003,-4.406694e-003
3.839739e+003,-4.109920e-003
3.841668e+003,-4.157411e-003
3.843596e+003,-4.299065e-003
3.845525e+003,-4.369957e-003
3.847453e+003,-4.397444e-003
3.849382e+003,-4.418895e-003
3.851310e+003,-4.313566e-003
3.853239e+003,-4.215726e-003
3.855167e+003,-4.202698e-003
3.857096e+003,-4.237973e-003
3.859025e+003,-4.349652e-003
3.860953e+003,-4.503442e-003
3.862882e+003,-4.503868e-003
3.864810e+003,-4.454939e-003
3.866739e+003,-4.447462e-003
3.868667e+003,-4.386259e-003
3.870596e+003,-4.202698e-003
3.872524e+003,-4.175560e-003
3.874453e+003,-4.133453e-003
3.876382e+003,-4.106737e-003
3.878310e+003,-4.262352e-003
3.880239e+003,-4.319209e-003
3.882167e+003,-4.280889e-003
3.884096e+003,-4.323933e-003
3.886024e+003,-4.377173e-003
3.887953e+003,-4.345158e-003
3.889881e+003,-4.311729e-003
3.891810e+003,-4.300870e-003
3.893739e+003,-4.203420e-003
3.895667e+003,-4.203059e-003
3.897595e+003,-4.290371e-003
3.899524e+003,-4.227539e-003
3.901453e+003,-4.171654e-003
3.903381e+003,-4.315272e-003
3.905310e+003,-4.456317e-003
3.907238e+003,-4.566234e-003
3.909167e+003,-4.611151e-003
3.911095e+003,-4.497244e-003
3.913024e+003,-4.307792e-003
3.914952e+003,-4.247226e-003
3.916881e+003,-4.217596e-003
3.918810e+003,-4.220877e-003
3.920738e+003,-4.287845e-003
3.922667e+003,-4.289321e-003
3.924595e+003,-4.255954e-003
3.926524e+003,-4.249293e-003
3.928452e+003,-4.271965e-003
3.930381e+003,-4.327738e-003
3.932309e+003,-4.351554e-003
3.934238e+003,-4.338334e-003
3.936167e+003,-4.307005e-003
3.938095e+003,-4.229671e-003
3.940024e+003,-4.166600e-003
3.941952e+003,-4.216382e-003
3.943881e+003,-4.202994e-003
3.945809e+003,-4.152948e-003
3.947738e+003,-4.208933e-003
3.949666e+003,-4.269898e-003
3.951595e+003,-4.266617e-003
3.953523e+003,-4.242632e-003
3.955452e+003,-4.227867e-003
3.957380e+003,-4.311073e-003
3.959309e+003,-4.441296e-003
3.961238e+003,-4.535839e-003
3.963166e+003,-4.499671e-003
3.965095e+003,-4.482192e-003
3.967023e+003,-4.504032e-003
3.968952e+003,-4.382454e-003
3.970880e+003,-4.260219e-003
3.972809e+003,-4.237382e-003
3.974737e+003,-4.297064e-003
3.976666e+003,-4.459858e-003
3.978594e+003,-4.511082e-003
3.980523e+003,-4.477338e-003
3.982452e+003,-4.434277e-003
3.984380e+003,-4.400363e-003
3.986309e+003,-4.292766e-003
3.988237e+003,-4.220123e-003
3.990166e+003,-4.253197e-003
3.992094e+003,-4.396624e-003
3.994023e+003,-4.452250e-003
3.995951e+003,-4.399117e-003
3.997880e+003,-4.342599e-003
3.999809e+003,-4.435163e-003
4.001737e+003,0.000000e+000
